# SAXS profile: number of points = 501, q_min = 0, q_max = 0.5, delta_q = 0.001
#    q    intensity    error
0.00000000 1664650.74656090 274.66737318
0.00100000 1664569.14538911 549.30783102
0.00200000 1664324.26869456 898.73513355
0.00300000 1663916.35345171 1297.85480193
0.00400000 1663345.27007503 1247.50899996
0.00500000 1662611.51109607 1645.98546114
0.00600000 1661714.99420158 2268.24105943
0.00700000 1660656.28452727 2590.62391153
0.00800000 1659435.19335514 2912.30888730
0.00900000 1658052.95289345 2984.49544279
0.01000000 1656508.97734794 3006.56392371
0.01100000 1654804.45642390 3872.24259663
0.01200000 1652939.41227006 3545.55519477
0.01300000 1650914.93089907 4160.30580936
0.01400000 1648731.10954111 4080.60967701
0.01500000 1646389.29190524 5531.86826713
0.01600000 1643888.91728828 5030.30031177
0.01700000 1641232.22090936 5760.72535381
0.01800000 1638419.11401070 6070.34309056
0.01900000 1635450.39067594 5887.62167210
0.02000000 1632327.15785167 5656.01385781
0.02100000 1629051.38372973 5375.86981004
0.02200000 1625621.61822046 6169.23432143
0.02300000 1622041.16956867 7007.21817149
0.02400000 1618309.51117718 7282.39313236
0.02500000 1614429.20167468 9444.41126113
0.02600000 1610400.25381164 6522.12132625
0.02700000 1606224.79306390 9444.60221579
0.02800000 1601902.58357972 9755.58718139
0.02900000 1597436.21086935 9345.00226265
0.03000000 1592827.11657777 8887.97571904
0.03100000 1588075.54255359 8385.03925051
0.03200000 1583182.88757370 10187.78235077
0.03300000 1578153.11686726 11268.01377389
0.03400000 1572984.23876770 11561.43468839
0.03500000 1567679.45256641 10158.56332173
0.03600000 1562240.17996598 11271.56341936
0.03700000 1556668.02297080 11534.91058367
0.03800000 1550964.63323502 15424.34399135
0.03900000 1545132.02869231 11124.95112178
0.04000000 1539170.02817139 13252.25455665
0.04100000 1533082.67588260 11590.10556707
0.04200000 1526870.92651366 10833.14972620
0.04300000 1520535.31287717 15053.30029623
0.04400000 1514079.74621464 11242.04263775
0.04500000 1507505.40049794 16642.86039481
0.04600000 1500812.35763544 11638.80037451
0.04700000 1494004.65159762 11832.51739096
0.04800000 1487083.11624458 15302.08597813
0.04900000 1480050.99460503 16650.57446435
0.05000000 1472908.38584868 14648.07457937
0.05100000 1465659.60687676 12575.36001281
0.05200000 1458303.00197617 16230.91316838
0.05300000 1450844.43858301 15277.39265048
0.05400000 1443283.99585051 13097.80287314
0.05500000 1435624.40672357 18088.86836855
0.05600000 1427866.55675231 13429.08559291
0.05700000 1420015.56041675 13589.54954753
0.05800000 1412070.39287495 13746.50591650
0.05900000 1404033.44438566 13899.93174863
0.06000000 1395909.05764443 17881.59586383
0.06100000 1387697.93456805 15486.70967349
0.06200000 1379402.65128036 19553.03349588
0.06300000 1371026.21025283 19742.77835072
0.06400000 1362567.39077100 15942.03921758
0.06500000 1354032.30313936 13404.92042813
0.06600000 1345422.21459385 14873.64327825
0.06700000 1336738.13839695 14998.20261471
0.06800000 1327983.61505252 15119.09416508
0.06900000 1319161.18731918 13851.19311535
0.07000000 1310271.57592266 18140.71081815
0.07100000 1301317.75121121 21081.34855702
0.07200000 1292302.26082940 14150.71041900
0.07300000 1283227.76985710 14243.82891282
0.07400000 1274096.68388737 18633.66487510
0.07500000 1264910.21675578 14419.97714692
0.07600000 1255670.02882337 20304.18531795
0.07700000 1246381.02936738 17499.19047283
0.07800000 1237043.62661343 16124.86442910
0.07900000 1227660.05543860 17678.30562749
0.08000000 1218234.08699099 14801.54485130
0.08100000 1208766.74424777 19328.18114737
0.08200000 1199259.96860494 17916.94477171
0.08300000 1189716.96777452 14990.43449749
0.08400000 1180139.72425054 15046.78219047
0.08500000 1170530.30418955 21139.77828607
0.08600000 1160890.85622392 28784.29013154
0.08700000 1151224.97706598 15196.17041085
0.08800000 1141532.42260277 16763.40441319
0.08900000 1131818.13738807 21391.36380138
0.09000000 1122082.26842280 18379.70842016
0.09100000 1112327.49694382 23025.18026849
0.09200000 1102555.96702666 15380.65646271
0.09300000 1092772.46074220 16948.90166258
0.09400000 1082973.58334774 23148.56143198
0.09500000 1073165.35469519 21635.01456756
0.09600000 1063348.74167505 18566.06990240
0.09700000 1053528.63284824 27876.36893571
0.09800000 1043704.14653758 20148.70949625
0.09900000 1033878.55444379 20160.63275966
0.10000000 1024052.33968508 18617.27241099
0.10100000 1014228.10540316 18621.22889099
0.10200000 1004408.74335720 15518.11581478
0.10300000 994595.59479734 18618.83041045
0.10400000 984791.34692508 18612.55733251
0.10500000 974999.13252241 17052.73563014
0.10600001 965215.85314144 15491.71517186
0.10700001 955449.07551920 15478.27575178
0.10800001 945697.32815204 26285.65847303
0.10900001 935964.60849116 21620.78347374
0.11000001 926250.74240290 16964.28314561
0.11100001 916558.56387300 15398.18459791
0.11200001 906889.63471122 16908.95803522
0.11300001 897245.33771542 15342.89599729
0.11400001 887628.60400420 24498.55062402
0.11500001 878040.65157142 18333.48966810
0.11600001 868482.50975748 16766.05564041
0.11700001 858956.99495546 18244.24743207
0.11800001 849463.27996741 15162.92026157
0.11900001 840004.21527538 21168.10722199
0.12000001 830581.18196495 24120.07866044
0.12100001 821198.45058417 21039.10529508
0.12200001 811854.07256186 17974.45001332
0.12300001 802551.30086772 17912.94587933
0.12400001 793289.87604585 17849.02305203
0.12500001 784071.70998976 19264.64282221
0.12600001 774900.47510545 17714.22569567
0.12700001 765774.90732620 16173.16680491
0.12800001 756696.57926637 16106.28744876
0.12900001 747667.99966511 24785.19535708
0.13000001 738689.78343298 17418.30591436
0.13100001 729762.08910660 15894.21904996
0.13200001 720887.50825309 23010.73034817
0.13300001 712067.04459552 17175.05792533
0.13400001 703300.54104563 14241.83662761
0.13500001 694590.85324164 22671.44651873
0.13600001 685938.11295791 25372.85199466
0.13700001 677343.18023278 21031.50673793
0.13800001 668805.96852603 20916.90765200
0.13900001 660330.21470764 16640.32219536
0.14000001 651914.11216660 17924.37935934
0.14100001 643560.79057393 17820.19913145
0.14200001 635269.41617432 16351.83554357
0.14300001 627042.26103439 16252.93617262
0.14400001 618876.41997052 13460.56276929
0.14500001 610778.01802850 13376.03922580
0.14600001 602744.45996256 18606.72235680
0.14700001 594778.22279612 15844.89260280
0.14800001 586876.63569894 14428.36276937
0.14900001 579043.50402746 14331.32740084
0.15000001 571278.12289318 15527.34011286
0.15100001 563581.24792828 17989.51428271
0.15200001 555954.64950495 19138.73971231
0.15300001 548397.71314059 16468.38410274
0.15400001 540908.88432785 15091.35858492
0.15500001 533492.17211535 16228.83264164
0.15600001 526144.48352291 12390.70317174
0.15700001 518870.89808660 13526.96495155
0.15800001 511665.83621310 15864.20000056
0.15900001 504534.68317512 13319.71626452
0.16000001 497473.53162739 14416.78362707
0.16100001 490487.03431539 13110.71904613
0.16200001 483572.42688833 16552.68495377
0.16300001 476730.33822085 14073.08024864
0.16400001 469961.71079917 16284.17404796
0.16500001 463265.13175575 16149.42325544
0.16600001 456642.59022341 13726.67691019
0.16700001 450092.24583698 11342.32513062
0.16800001 443615.45459556 14619.34799647
0.16900001 437213.12506712 13378.72225877
0.17000001 430882.64933975 16578.21071616
0.17100001 424626.16505337 10955.35557570
0.17200001 418442.70707173 11944.44763741
0.17300001 412332.19458599 11838.05786561
0.17400001 406295.70458492 11731.78902394
0.17500001 400330.95681938 10568.73775917
0.17600001 394437.90019161 10472.32674469
0.17700001 388620.15277567 11413.77442610
0.17800001 382872.97543659 13364.18183883
0.17900001 377197.72538030 11202.77297294
0.18000001 371595.83441607 10088.82738094
0.18100001 366065.77124711 10992.95562982
0.18200001 360605.23887519 11878.33712966
0.18300001 355216.45529582 10784.37209223
0.18400001 349898.67388800 12622.59525681
0.18500001 344651.31380089 12500.50374211
0.18600001 339474.57729570 14283.39351451
0.18700001 334366.59602472 11314.96614405
0.18800001 329326.86456613 9336.41705156
0.18900001 324359.37524316 12941.93968368
0.19000001 319456.19981191 10982.90466846
0.19100001 314623.98568063 10873.40545889
0.19200001 309857.64686841 10764.45516084
0.19300001 305160.26898137 12432.22994576
0.19400001 300527.77512593 11427.56918916
0.19500001 295962.27082167 9571.42029067
0.19600001 291461.13674142 9473.94469748
0.19700001 287026.86629346 11934.57766448
0.19800001 282656.03640212 12655.92462801
0.19900001 278349.78538716 8350.49395626
0.20000001 274105.35832404 9090.70463845
0.20100001 269925.48310640 11450.23953454
0.20200001 265806.76305684 10521.96121291
0.20300001 261750.14983821 8009.55496362
0.20400001 257755.01245678 13474.14391304
0.20500001 253819.49840685 9411.62744578
0.20600001 249943.77860249 8536.83016169
0.20700001 246127.55345469 10750.85204308
0.20800001 242369.50255144 7598.28426416
0.20900001 238671.62570439 9021.78787810
0.21000001 235028.20462088 7438.64302789
0.21100001 231442.88334847 8095.87244225
0.21200001 227912.60597473 12379.07377873
0.21300001 224437.54987171 7924.89026062
0.21400001 221017.58014637 7127.81729670
0.21500001 217652.65753158 7051.94643742
0.21600001 214339.32202181 8372.09431399
0.21700001 211079.43048109 7592.52747338
0.21800001 207871.54401401 8194.29665246
0.21900001 204714.17238707 8782.23841064
0.22000001 201606.84324807 9356.57403755
0.22100001 198550.96068645 7272.92203383
0.22200001 195543.74000947 7849.12609512
0.22300001 192584.61525342 8412.09639204
0.22400001 189672.80018818 7681.74877086
0.22500001 186810.15005369 6966.15082491
0.22600001 183992.16332808 6891.42680334
0.22700001 181220.81264877 6817.52729424
0.22800001 178494.12651509 8583.78295004
0.22900001 175811.24762007 6065.48832974
0.23000001 173172.75993123 7200.52369847
0.23100001 170578.24746588 7716.96028031
0.23200001 168024.45893257 7046.94614091
0.23300001 165513.53051007 6390.47771523
0.23400001 163042.75099975 5747.25724456
0.23500001 160612.04963242 6822.80019108
0.23600001 158221.49417335 7874.68413746
0.23700001 155870.26233600 6121.02549145
0.23800001 153556.78989861 7707.01564954
0.23900001 151281.46791947 5990.74641297
0.24000001 149042.49246156 9159.40680747
0.24100001 146841.26273828 6396.40570744
0.24200001 144675.82970649 5273.43424225
0.24300001 142544.81831319 6260.56871646
0.24400001 140448.62104854 5677.63577446
0.24500001 138385.84019282 5106.43774467
0.24600001 136356.70983485 6062.41960604
0.24700001 134360.99196989 6997.52079282
0.24800001 132397.05062335 5934.03608966
0.24900001 130463.55525333 5870.86026414
0.25000001 128562.44459921 6776.52677541
0.25100001 126690.79985293 5267.80370710
0.25200001 124850.84542169 5211.89878870
0.25300001 123038.55137876 6094.09973810
0.25400001 121256.17898037 5565.65887852
0.25500001 119500.30162348 4588.81179945
0.25600001 117773.55097334 4994.18766531
0.25700001 116073.02538476 4941.22892442
0.25800001 114399.28477998 5777.73615118
0.25900001 112752.61523513 4837.08742245
0.26000001 111130.68950186 6091.07337980
0.26100001 109533.39157955 6887.45998841
0.26200001 107962.27227549 6388.66776419
0.26300001 106413.80992968 5056.78448713
0.26400001 104889.91144909 5837.12384834
0.26500001 103389.34170935 5775.32890117
0.26600001 101911.14445760 4489.69568153
0.26700001 100455.61766674 4845.97922556
0.26800001 99022.28229243  4395.10420753
0.26900001 97609.74421142  4743.83379316
0.27000001 96218.95750679  5866.95121161
0.27100001 94848.53280327  4256.80235365
0.27200001 93499.12346789  5360.30500208
0.27300001 92169.30288052  5682.23779149
0.27400001 90857.89378059  4122.67712540
0.27500001 89567.58123627  5191.33725414
0.27600001 88293.85404148  4402.33177085
0.27700001 87040.65082201  3992.55484216
0.27800001 85804.46446323  3950.00870851
0.27900001 84586.51867352  4263.16074291
0.28000001 83385.59399276  4920.58413440
0.28100001 82202.08078840  3477.14818192
0.28200001 81035.82616359  4127.96518015
0.28300001 79885.96120417  3743.45631921
0.28400001 78751.64645467  3703.29634981
0.28500001 77633.97309608  4329.64688450
0.28600001 76531.73048368  3953.62938392
0.28700001 75445.67390315  4237.02924695
0.28800001 74373.20956109  4191.30242320
0.28900001 73317.36648177  3189.30559292
0.29000001 72275.38603385  4732.23112456
0.29100001 71248.35626163  3120.67815198
0.29200001 70235.29601125  3086.84140581
0.29300001 69236.47410080  3358.66151762
0.29400001 68250.65275932  4228.12813858
0.29500001 67279.73459462  2987.22035741
0.29600001 66320.89326057  4136.43430847
0.29700001 65375.85612628  2922.30090718
0.29800001 64443.91534931  2890.30974024
0.29900001 63525.27592883  3144.50130733
0.30000001 62618.16612773  3675.37343486
0.30100001 61724.63403819  2796.12605430
0.30200001 60842.54456330  3041.82315944
0.30300001 59973.27860351  3281.73796055
0.30400001 59115.88728810  3786.37276006
0.30500001 58270.78883485  2674.62933414
0.30600001 57436.23120858  3702.91400132
0.30700001 56614.29454216  2877.13858485
0.30800001 55803.38973113  4914.32574933
0.30900001 55004.24259574  3325.00662233
0.31000001 54216.09043440  2782.09881236
0.31100001 53438.85190529  3251.21990385
0.31200001 52673.39500444  3956.82562007
0.31300001 51918.07646843  2689.87566918
0.31400001 51174.96413219  2901.62060368
0.31500001 50441.04648532  2629.99628827
0.31600002 49719.15105546  4255.46234032
0.31700002 49007.01730565  3506.45225424
0.31800002 48305.13442030  2542.54087060
0.31900002 47614.43404459  2285.49294236
0.32000002 46933.97961191  2711.84547038
0.32100002 46263.46618647  2234.52552261
0.32200002 45604.08257256  2651.42148631
0.32300002 44953.10752054  3495.55380631
0.32400002 44313.49338136  2808.36777602
0.32500002 43683.47000225  3204.18267639
0.32600002 43063.64119074  2745.95321055
0.32700002 42453.64331139  3341.95095972
0.32800002 41854.53482575  2478.62566975
0.32900002 41263.16956407  2246.77968916
0.33000002 40682.92014500  2221.89778893
0.33100002 40111.34423056  1997.54503727
0.33200002 39550.85804342  1975.56545282
0.33300002 38999.21046654  2149.24659059
0.33400002 38457.73972682  2125.75166407
0.33500002 37925.47172189  2676.02141142
0.33600002 37402.06547347  2457.87684899
0.33700002 36888.40849600  2057.26663925
0.33800002 36384.85284208  2590.23779649
0.33900002 35889.80163961  2379.49396139
0.34000002 35404.20018273  2173.10991013
0.34100002 34927.94746864  1791.80379000
0.34200002 34461.84562487  1950.36824551
0.34300002 34004.00891139  2631.91041439
0.34400002 33556.17755274  1910.18549766
0.34500002 33116.91166013  2406.27491519
0.34600002 32687.51150315  1871.52355975
0.34700002 32266.06532456  1852.71755868
0.34800002 31854.46090954  2001.09732911
0.34900002 31451.42929334  1816.32012771
0.35000002 31057.67110642  1962.22375344
0.35100002 30673.57094884  1781.52108509
0.35200002 30296.67267676  1764.62978364
0.35300002 29930.05995631  1748.21488485
0.35400002 29571.50619120  2204.55589097
0.35500002 29222.18988079  1716.51151490
0.35600002 28881.04447105  2010.55400608
0.35700002 28548.60484820  1992.97819885
0.35800002 28225.11222763  1823.90683854
0.35900002 27910.71341821  2110.05003436
0.36000002 27604.40276360  2092.68987263
0.36100002 27306.04566213  1927.53385459
0.36200002 27017.70023379  1618.22523215
0.36300002 26736.17784883  2335.67260751
0.36400002 26463.79509160  1738.67141987
0.36500002 26198.69312521  1869.80081691
0.36600002 25942.84333647  1570.96895265
0.36700002 25694.54126201  1985.67424279
0.36800002 25455.26377910  1831.63359199
0.36900002 25223.73065113  1539.90882920
0.37000002 24999.52651821  1669.46845997
0.37100002 24783.24036442  1521.19536563
0.37200002 24575.52406097  1650.00076361
0.37300002 24375.32325865  1504.20126955
0.37400002 24182.64081226  1496.30097114
0.37500002 23997.82150878  1759.52035637
0.37600002 23820.75572448  2020.59570005
0.37700002 23650.94344710  2011.51283546
0.37800002 23488.56360074  1602.38988475
0.37900002 23334.26211083  1330.05300333
0.38000002 23186.63856939  1325.11645701
0.38100002 23045.40777507  1452.55212087
0.38200002 22912.53744930  1447.95787270
0.38300002 22785.95800584  1706.21261631
0.38400002 22666.61534158  2094.39535678
0.38500002 22553.64924816  1828.19889467
0.38600002 22448.45112959  1303.13264981
0.38700002 22348.90333519  1560.84748287
0.38800002 22256.07173079  1558.37021642
0.38900002 22169.78199152  1296.93230795
0.39000002 22090.32223404  1813.83644457
0.39100002 22016.47082659  2071.30967350
0.39200002 21949.41211836  1682.09327738
0.39300002 21887.78717916  1681.63876865
0.39400002 21833.42260967  1552.35642109
0.39500002 21783.80933394  1682.14583646
0.39600002 21740.04080522  1683.00533867
0.39700002 21701.42592680  1425.13270813
0.39800002 21669.59755964  1686.00311801
0.39900002 21642.09548143  1428.37836945
0.40000002 21620.40821365  1300.46761567
0.40100002 21603.65323255  2084.32056263
0.40200002 21592.39093278  1566.31211248
0.40300002 21585.85038097  1700.53337358
0.40400002 21584.24802735  1442.36744277
0.40500002 21586.92689716  1577.57269239
0.40600002 21595.37725568  1450.23762832
0.40700002 21607.52520377  1851.33284718
0.40800002 21624.07910433  1857.29224227
0.40900002 21644.58623130  1996.71317445
0.41000002 21670.09358827  1603.15359962
0.41100002 21699.20070053  1877.41493357
0.41200002 21731.44820331  1615.51593598
0.41300002 21768.90321199  1622.21874422
0.41400002 21809.22892225  1764.91193416
0.41500002 21853.12877519  1499.99883020
0.41600002 21899.56151961  2054.72645694
0.41700002 21950.74642346  1651.57423916
0.41800002 22005.40508864  1521.34375289
0.41900002 22061.30099997  1389.86202886
0.42000002 22120.82885855  1816.00953119
0.42100002 22183.80545730  1965.92893278
0.42200002 22249.20254226  1694.05436184
0.42300002 22316.65133101  1703.20691029
0.42400002 22386.61871453  1569.86171175
0.42500002 22459.49529147  1722.19418056
0.42600002 22533.19067716  1587.57602439
0.42700002 22610.29305025  1741.89705913
0.42800002 22688.51066713  1752.00687674
0.42900002 22769.43406020  2349.80570636
0.43000002 22851.90563627  1920.58850021
0.43100002 22934.54029922  2229.23742272
0.43200002 23019.94759390  2093.20393391
0.43300002 23105.92520047  1654.61538201
0.43400002 23193.77798504  2270.09112786
0.43500002 23281.90208598  2588.48199658
0.43600002 23371.99345221  1685.23766773
0.43700002 23462.17919525  1849.75829541
0.43800002 23552.66866750  1706.03763578
0.43900002 23644.92777666  2184.79143010
0.44000002 23736.96218094  2355.30018402
0.44100002 23829.79503691  1895.89858298
0.44200002 23922.75160158  2225.53368696
0.44300002 24016.16084015  1919.37166530
0.44400002 24109.25847359  2092.08100319
0.44500002 24201.98645620  1942.93556478
0.44600002 24294.60982244  2443.43049869
0.44700002 24387.86858714  2458.29727009
0.44800002 24479.87476597  1813.59160799
0.44900002 24571.99603383  1824.47079198
0.45000002 24663.89323526  2169.06619337
0.45100002 24754.19479871  2181.83483296
0.45200002 24844.35590934  1688.17406405
0.45300002 24933.30395888  2546.93712011
0.45400002 25021.52758288  2049.26320616
0.45500002 25109.17691369  2232.70811698
0.45600002 25195.19794239  1727.13090081
0.45700002 25280.45421938  2257.79747334
0.45800002 25363.96968132  2794.09503252
0.45900002 25446.27772117  1755.79324597
0.46000002 25527.65805999  1941.76140236
0.46100002 25606.65349718  1951.99528860
0.46200002 25684.85868156  2140.57622397
0.46300002 25761.13315890  1972.27244812
0.46400002 25835.29407187  2522.81658569
0.46500002 25908.74691272  1992.12364454
0.46600002 25979.25337035  2365.80082030
0.46700002 26048.00185738  2011.42679876
0.46800002 26115.47133553  2388.39054419
0.46900002 26180.16502971  2030.27189428
0.47000002 26242.94043334  2039.47021244
0.47100002 26303.75764284  2234.76735526
0.47200002 26362.56558721  2805.63617560
0.47300002 26418.96753495  1878.38868077
0.47400002 26472.37786570  2074.77271356
0.47500002 26524.08398038  2083.20165456
0.47600002 26574.05210536  1901.37351826
0.47700002 26620.29969974  3435.61604209
