# SAXS profile: number of points = 501, q_min = 0, q_max = 0.5, delta_q = 0.001
#    q    intensity    error
0.00000000 1664650.74656090 349.57665678
0.00100000 1664569.14180740 599.24490528
0.00200000 1664324.25781047 898.73512768
0.00300000 1663916.32276756 998.34982922
0.00400000 1663345.22194377 1372.25986025
0.00500000 1662611.43618289 1795.62042215
0.00600000 1661714.89215585 2268.24092014
0.00700000 1660656.14411898 2192.06620134
0.00800000 1659434.99981257 3808.40348536
0.00900000 1658052.68739790 2984.49496490
0.01000000 1656508.67270684 3006.56337078
0.01100000 1654804.09679237 2978.64750391
0.01200000 1652938.98492896 3223.23116193
0.01300000 1650914.41710031 4160.30451458
0.01400000 1648730.50936074 4451.57257262
0.01500000 1646388.60261429 4346.46610444
0.01600000 1643888.12531578 5030.29788834
0.01700000 1641231.36272169 4431.32487813
0.01800000 1638418.16709113 6070.33958222
0.01900000 1635449.27912579 6378.25247639
0.02000000 1632325.96398296 7198.55782680
0.02100000 1629050.06647603 5913.45200941
0.02200000 1625620.13618163 6730.06766955
0.02300000 1622039.59825825 7007.21138343
0.02400000 1618307.80003611 7889.25088491
0.02500000 1614427.34676792 6925.89363394
0.02600000 1610398.23671309 11087.59236690
0.02700000 1606222.62229971 8769.97591943
0.02800000 1601900.27434997 10452.39976948
0.02900000 1597433.72266376 8626.14249845
0.03000000 1592824.50839671 13331.94174809
0.03100000 1588072.72801858 11434.12416785
0.03200000 1583179.87791153 8620.41483227
0.03300000 1578149.94545614 8853.42160216
0.03400000 1572980.84048365 9083.96477293
0.03500000 1567675.94642990 8465.45050164
0.03600000 1562236.48561189 12138.57805417
0.03700000 1556664.07842790 11534.88135461
0.03800000 1550960.50675611 9980.43132287
0.03900000 1545127.67617281 12979.07308091
0.04000000 1539165.45457994 11359.04158117
0.04100000 1533077.95307404 11590.06986263
0.04200000 1526865.94516026 13787.60012444
0.04300000 1520530.08680521 13046.14875036
0.04400000 1514074.34459880 12264.00276081
0.04500000 1507499.72713790 10401.74860057
0.04600000 1500806.44191141 16929.09745174
0.04700000 1493998.56138567 12908.14817070
0.04800000 1487076.81604443 10930.01510648
0.04900000 1480044.54095405 12210.36803123
0.05000000 1472901.54773766 12394.46710137
0.05100000 1465652.58731663 12575.29978498
0.05200000 1458295.72832639 12752.79673851
0.05300000 1450836.87534301 14102.13508575
0.05400000 1443276.30198513 11907.03004665
0.05500000 1435616.40988156 13265.09624611
0.05600000 1427858.23836294 13429.00735846
0.05700000 1420007.04224060 12354.06184416
0.05800000 1412061.67933008 13746.42109013
0.05900000 1404024.41278364 17690.70842733
0.06000000 1395899.84877738 14049.73263433
0.06100000 1387688.42563536 16777.15384995
0.06200000 1379392.91125749 14338.78998277
0.06300000 1371016.20925115 13161.75622419
0.06400000 1362557.25327871 14613.42722484
0.06500000 1354021.82569379 17426.26171184
0.06600000 1345411.42105231 14873.52395564
0.06700000 1336727.15845455 16361.54118519
0.06800000 1327972.34465995 16493.41729272
0.06900000 1319149.66465688 23546.82261656
0.07000000 1310259.82425537 13954.26778178
0.07100000 1301305.78202848 19675.74434584
0.07200000 1292290.09170909 15565.63488384
0.07300000 1283215.24397190 14243.68987548
0.07400000 1274083.89915928 15766.78899099
0.07500000 1264897.19735109 17303.79447083
0.07600000 1255656.79623604 17403.40401171
0.07700000 1246367.57294031 20415.50180201
0.07800000 1237029.89538114 17590.56593725
0.07900000 1227646.02500206 16204.92829010
0.08000000 1218219.82154361 17761.64583132
0.08100000 1208752.28925994 22301.48078319
0.08200000 1199245.37847056 14930.60566258
0.08300000 1189702.09934605 14990.24715528
0.08400000 1180124.58473959 16551.24807787
0.08500000 1170515.09154713 19629.53900676
0.08600000 1160875.34308663 19694.25112014
0.08700000 1151209.27622299 21274.34842360
0.08800000 1141516.45886147 16763.16998564
0.08900000 1131802.02703041 18335.19369909
0.09000000 1122065.95424763 18379.44119396
0.09100000 1112310.97084679 18419.87054261
0.09200000 1102539.24401863 16918.46549441
0.09300000 1092755.41418094 18489.42247680
0.09400000 1082956.33467666 16975.34134385
0.09500000 1073147.97179396 15453.33152018
0.09600000 1063331.24516975 15471.47034450
0.09700000 1053510.83712190 17035.27103714
0.09800000 1043686.19221342 17048.61475139
0.09900000 1033860.46114568 20160.27994033
0.10000000 1024034.06107767 21719.76345688
0.10100000 1014209.72403576 20172.63235983
0.10200000 1004390.27178763 20173.17955773
0.10300000 994576.85953671 18618.47968635
0.10400000 984772.54109743 18612.20190235
0.10500000 974980.25990873 18602.62423430
0.10600001 965196.78790431 27884.53651462
0.10700001 955429.86438052 18573.55743759
0.10800001 945678.09576639 17008.02135278
0.10900001 935945.24374215 21620.33614802
0.11000001 926231.18760748 18506.09999947
0.11100001 916538.91598812 16937.63996477
0.11200001 906869.89327346 16908.58995609
0.11300001 897225.56928665 16876.81375286
0.11400001 887608.76289793 16842.37706900
0.11500001 878020.72227802 21388.58580184
0.11600001 868462.40803091 18289.81917443
0.11700001 858936.82054660 15203.18243967
0.11800001 849443.12719945 16678.81658811
0.11900001 839984.14196638 18143.65832107
0.12000001 830560.86835211 21104.55265896
0.12100001 821178.11986045 18033.07236164
0.12200001 811833.67782982 14978.33206161
0.12300001 802530.99170639 20897.90800863
0.12400001 793269.54766117 17848.56566336
0.12500001 784051.41530272 19264.14418172
0.12600001 774880.19101040 19189.90883467
0.12700001 765754.51245937 14702.48733209
0.12800001 756676.12503737 16105.85208048
0.12900001 747647.57381869 14579.12837661
0.13000001 738669.45475495 15966.34101710
0.13100001 729741.82655672 17338.66661629
0.13200001 720867.31211430 14381.30355462
0.13300001 712046.85760368 21468.21376883
0.13400001 703280.45713023 22786.28788529
0.13500001 694570.70422319 18420.01594447
0.13600001 685918.08027248 14095.61721422
0.13700001 677323.39717255 14020.59498259
0.13800001 668786.15098609 19521.86866785
0.13900001 660310.48948971 15253.17302652
0.14000001 651894.43096182 15166.32465158
0.14100001 643541.19525334 13707.42810538
0.14200001 635249.95051261 16351.33449741
0.14300001 627023.04557560 14898.06826558
0.14400001 618857.13060888 16152.17187079
0.14500001 610758.88713603 18725.86836293
0.14600001 602725.63064926 14619.11086104
0.14700001 594759.56615938 15844.39558997
0.14800001 586857.99688625 15739.53221906
0.14900001 579025.07287488 16936.48418067
0.15000001 571259.86484371 14232.94020413
0.15100001 563563.19575325 17988.93805725
0.15200001 555936.75132191 12758.74904489
0.15300001 548380.00207093 16467.85223929
0.15400001 540891.22638368 15090.86592826
0.15500001 533474.78945472 12483.31066236
0.15600001 526127.32981730 16107.38896254
0.15700001 518853.97760408 14756.20781951
0.15800001 511649.10889115 18304.24773452
0.15900001 504518.28729182 15740.97130649
0.16000001 497457.20169814 13214.95118689
0.16100001 490470.95089181 15493.97807005
0.16200001 483556.68661492 16552.14616419
0.16300001 476714.78381387 17590.77635315
0.16400001 469946.28829530 12794.28830285
0.16500001 463250.04470520 13841.91198929
0.16600001 456627.78495241 12582.37920842
0.16700001 450077.64231370 14744.54425836
0.16800001 443601.22986704 19116.99590376
0.16900001 437199.19686758 13378.29605584
0.17000001 430868.89054674 11051.78756439
0.17100001 424612.85097765 13146.01448704
0.17200001 418429.63919915 13029.89957997
0.17300001 412319.40407492 13989.99804093
0.17400001 406283.22987163 11731.42881657
0.17500001 400318.65683137 13738.93695131
0.17600001 394425.99296598 12566.41272940
0.17700001 388608.56394387 11413.43406210
0.17800001 382861.76114354 11307.82264947
0.17900001 377186.85329972 15276.06828018
0.18000001 371585.31025210 10088.54164988
0.18100001 366055.55082834 15989.30721546
0.18200001 360595.33548345 10888.17666926
0.18300001 355206.80523469 12744.82077388
0.18400001 349889.32968422 11651.31522890
0.18500001 344642.44510392 12500.18207445
0.18600001 339465.95860873 9522.02058883
0.18700001 334358.40816970 9428.90755585
0.18800001 329318.86261051 11203.42823533
0.18900001 324351.79884279 12941.63738529
0.19000001 319448.99692009 10067.43561361
0.19100001 314617.06755293 9967.06917102
0.19200001 309851.19063700 11661.25011063
0.19300001 305154.21991798 9767.98704114
0.19400001 300521.96885151 10548.32160514
0.19500001 295956.71887447 10441.35353530
0.19600001 291456.08259174 9473.78041234
0.19700001 287022.32406515 10229.47611310
0.19800001 282651.81658438 14343.16711041
0.19900001 278345.78005124 9185.41117579
0.20000001 274101.80420921 10743.42072373
0.20100001 269922.32065611 8996.51137266
0.20200001 265803.93640004 12140.59536888
0.20300001 261747.67859048 9611.37521212
0.20400001 257752.91353276 10303.67320548
0.20500001 253817.78102518 8627.26678483
0.20600001 249942.40414739 10088.92562029
0.20700001 246126.57803254 9982.89447688
0.20800001 242368.92463510 7598.26614648
0.20900001 238671.42834559 9021.78041793
0.21000001 235028.41909962 9670.24476099
0.21100001 231443.53440510 7359.90474201
0.21200001 227913.40310158 8010.01693067
0.21300001 224438.78754991 7924.93396304
0.21400001 221019.17580823 9266.22938384
0.21500001 217654.65501017 7757.21227130
0.21600001 214341.60660509 9767.54747479
0.21700001 211082.08342121 8282.86134506
0.21800001 207874.47903296 7511.54465501
0.21900001 204717.50134277 7431.24565010
0.22000001 201610.42811713 6683.38600809
0.22100001 198555.02647303 9256.63577186
0.22200001 195548.12232200 9157.51900135
0.22300001 192589.27536875 7765.19995005
0.22400001 189677.86310333 7681.95381894
0.22500001 186815.56158546 6333.04783722
0.22600001 183997.81352883 7518.15101631
0.22700001 181226.92805999 6817.75735602
0.22800001 178500.53990272 6744.64321918
0.22900001 175817.91422595 7885.43382594
0.23000001 173179.73297211 8400.94924377
0.23100001 170585.55738217 7123.65321318
0.23200001 168032.09422508 5872.72197091
0.23300001 165521.51882550 9295.68893687
0.23400001 163051.00187252 5747.54808784
0.23500001 160620.59864660 5685.96946101
0.23600001 158230.37337002 7875.12605510
0.23700001 155879.27187098 5564.89026900
0.23800001 153566.19887486 6055.88333907
0.23900001 151291.20505331 6535.78036744
0.24000001 149052.42189756 5927.06983711
0.24100001 146851.46118849 5330.70829329
0.24200001 144686.31101663 5801.19791462
0.24300001 142555.49707027 6782.79087145
0.24400001 140459.56467819 6194.26709532
0.24500001 138397.05713997 6128.22198005
0.24600001 136368.24336618 5052.44365572
0.24700001 134372.67028430 5998.39628525
0.24800001 132408.97328670 5440.02292483
0.24900001 130475.54636355 6360.68318613
0.25000001 128574.65959342 5324.91977897
0.25100001 126703.28521934 5747.26128945
0.25200001 124863.45857427 5212.42532478
0.25300001 123051.37722956 8438.86384965
0.25400001 121269.28781759 6030.11562202
0.25500001 119513.61729270 5966.12005752
0.25600001 117786.96703494 5902.89413224
0.25700001 116086.65356210 4492.55370541
0.25800001 114413.07979312 6222.92770438
0.25900001 112766.50706311 4837.68338190
0.26000001 111144.61462825 4786.44305544
0.26100001 109547.66048353 4735.74558678
0.26200001 107976.64853493 5963.55058076
0.26300001 106428.18856185 4636.01211312
0.26400001 104904.50420421 7088.92220703
0.26500001 103404.00928544 4125.82016572
0.26600001 101925.80486527 5306.76728142
0.26700001 100470.47965983 6058.37021017
0.26800001 99037.17211674  4795.38010081
0.26900001 97624.72160680  4744.56169461
0.27000001 96234.05510764  3911.91452525
0.27100001 94863.69501551  5031.57062173
0.27200001 93514.37843315  5744.12096709
0.27300001 92184.48428132  3788.78248326
0.27400001 90873.27317841  5997.63631361
0.27500001 89582.85755337  4450.47657387
0.27600001 88309.23582535  4770.02359885
0.27700001 87056.10372696  5445.35954583
0.27800001 85819.92838119  6105.65909364
0.27900001 84601.95272844  3908.61040104
0.28000001 83400.95761252  4921.49074164
0.28100001 82217.53231930  4868.92249439
0.28200001 81051.20825582  6193.12311595
0.28300001 79901.34813967  4424.93686941
0.28400001 78766.99093965  5050.93353307
0.28500001 77649.25466724  3997.38381947
0.28600001 76547.03811362  3624.88516144
0.28700001 75460.94477038  4563.87815573
0.28800001 74388.35978484  3224.73554931
0.28900001 73332.47342040  3508.95901926
0.29000001 72290.38960612  4102.11835237
0.29100001 71263.33886685  3745.60126814
0.29200001 70250.09241528  4013.73922014
0.29300001 69251.25847553  4275.57290067
0.29400001 68265.33786304  3322.81547777
0.29500001 67294.23823844  4183.01004691
0.29600001 66335.36655472  3841.81293588
0.29700001 65390.14452191  3215.23355835
0.29800001 64458.15210671  4047.32756238
0.29900001 63539.25118914  3431.11972664
0.30000001 62632.13278236  4241.76139349
0.30100001 61738.42750940  3076.42598843
0.30200001 60856.18755537  3595.68801193
0.30300001 59986.74665617  3008.93535472
0.30400001 59129.17520669  3787.22385128
0.30500001 58283.95268970  2675.23355511
0.30600001 57449.24244918  3703.75283604
0.30700001 56627.15722718  2877.79226653
0.30800001 55816.09222377  3621.90639588
0.30900001 55016.69741377  2558.27655086
0.31000001 54228.37062729  4047.60577525
0.31100001 53450.92594917  2751.65379814
0.31200001 52685.21935481  2968.28539899
0.31300001 51929.66686853  2935.06491037
0.31400001 51186.41589313  2418.55826546
0.31500001 50452.20335610  3108.86491800
0.31600002 49730.13203213  2601.13467910
0.31700002 49017.76111336  3039.59151056
0.31800002 48315.70324072  3005.47846239
0.31900002 47624.70976791  3200.38064794
0.32000002 46944.00189006  2938.45993744
0.32100002 46273.23948947  2681.99708780
0.32200002 45613.65469892  3093.97434473
0.32300002 44962.37762814  2403.68882182
0.32400002 44322.50526889  3241.08335126
0.32500002 43692.29082191  3632.14030801
0.32600002 43072.16780824  2112.68993103
0.32700002 42461.94711631  2715.86626616
0.32800002 41862.58149683  2479.10219364
0.32900002 41270.88115518  2451.49045670
0.33000002 40690.34920642  2020.27593377
0.33100002 40118.46683162  2197.68971711
0.33200002 39557.74889969  2766.27351155
0.33300002 39005.85734601  2149.61290013
0.33400002 38464.07969850  2319.38411566
0.33500002 37931.46019427  2485.26938962
0.33600002 37407.84756877  2836.45017623
0.33700002 36893.88662523  2992.83222477
0.33800002 36390.03133523  1850.43318103
0.33900002 35894.64495981  1830.62697964
0.34000002 35408.83065659  1992.27795124
0.34100002 34932.25115660  1971.22702612
0.34200002 34465.83546061  1950.59405027
0.34300002 34007.71212167  2281.23743716
0.34400002 33559.58326514  2257.72107109
0.34500002 33120.09137493  2234.61267090
0.34600002 32690.31498237  1871.68407296
0.34700002 32268.59527081  1852.86282820
0.34800002 31856.62779590  1834.46399851
0.34900002 31453.36838075  1651.30191820
0.35000002 31059.32093764  2616.43731971
0.35100002 30674.87506578  2267.48687226
0.35200002 30297.73264777  1925.11802362
0.35300002 29930.81573290  1748.25902976
0.35400002 29571.97292761  1889.64915957
0.35500002 29222.32782441  1716.51961771
0.35600002 28880.80880919  2319.85107748
0.35700002 28548.09039960  1533.03252707
0.35800002 28224.35783110  2279.82261179
0.35900002 27909.68152593  1657.83516116
0.36000002 27603.08389389  1793.64847638
0.36100002 27304.43397552  2520.47241967
0.36200002 27015.80892498  1618.11195221
0.36300002 26733.98547158  2481.44864901
0.36400002 26461.37080295  1593.63613209
0.36500002 26195.95457136  1581.97377150
0.36600002 25939.85729380  1999.18489633
0.36700002 25691.25458793  1985.42024860
0.36800002 25451.69508501  1831.37680659
0.36900002 25219.85877025  2099.55334208
0.37000002 24995.42099027  1669.19429280
0.37100002 24778.91985130  1520.93017252
0.37200002 24570.97306295  1924.64441119
0.37300002 24370.48308737  1640.62099916
0.37400002 24177.45005999  1495.97979333
0.37500002 23992.44623549  1623.80883814
0.37600002 23815.15124774  1616.09624023
0.37700002 23645.07951375  1608.81128633
0.37800002 23482.45146631  1601.97291492
0.37900002 23328.02530686  1462.66725603
0.38000002 23180.07758117  1722.16394548
0.38100002 23038.63692429  1716.14814579
0.38200002 22905.56952898  1973.88754767
0.38300002 22778.73039574  1836.87690613
0.38400002 22659.24423524  1439.42855823
0.38500002 22545.97877872  1435.95345644
0.38600002 22440.66094838  1302.68042977
0.38700002 22340.86799784  1430.26243698
0.38800002 22247.86672569  1557.79570193
0.38900002 22161.36543015  1426.08393299
0.39000002 22081.75302097  1554.11385124
0.39100002 22007.65835054  1811.67052125
0.39200002 21940.44840891  1422.72844448
0.39300002 21878.72399848  1680.94244444
0.39400002 21824.20789252  1939.62656834
0.39500002 21774.34475300  1552.07536753
0.39600002 21730.43360147  1423.45212050
0.39700002 21691.68126151  1424.49277593
0.39800002 21659.71886997  1425.96765936
0.39900002 21632.09341586  1297.92566645
0.40000002 21610.29148766  1819.80273240
0.40100002 21593.34827287  1302.07896255
0.40200002 21581.99187638  1304.63147074
0.40300002 21575.36311112  1438.21377313
0.40400002 21573.64580644  2228.01837622
0.40500002 21576.27707329  1445.39486962
0.40600002 21584.62051770  1713.06348855
0.40700002 21596.60019519  1453.88319403
0.40800002 21613.13312976  1723.75551444
0.40900002 21633.54664353  2394.83372691
0.41000002 21658.93824839  1735.85568817
0.41100002 21688.02587234  1742.41608114
0.41200002 21720.22778622  1345.56817511
0.41300002 21757.64392824  2026.72462795
0.41400002 21797.90466467  1492.61159264
0.41500002 21841.77361394  1635.51208571
0.41600002 21888.07904367  1506.00934996
0.41700002 21939.32016031  1375.59543923
0.41800002 21993.86438233  2211.70310709
0.41900002 22049.82244453  1805.88054378
0.42000002 22109.30991703  1396.20298742
0.42100002 22172.26497797  1964.90621545
0.42200002 22237.68765584  1410.98134862
0.42300002 22305.16986905  1560.46975798
0.42400002 22375.14332653  2139.62318199
0.42500002 22448.01401808  2008.19942922
0.42600002 22521.74750412  1731.02159519
0.42700002 22598.82432485  1595.92904945
0.42800002 22677.06455344  1751.12300780
0.42900002 22758.07867585  2055.05460181
0.43000002 22840.61816729  1771.97524139
0.43100002 22923.25821214  2525.22624431
0.43200002 23008.71763914  1494.41628148
0.43300002 23094.78224107  1954.51151368
0.43400002 23182.64491319  1966.46794795
0.43500002 23270.86654932  1826.29769334
0.43600002 23361.07276677  1684.45023167
0.43700002 23451.30389247  2002.97596038
0.43800002 23541.87069987  1860.27871086
0.43900002 23634.20961040  2183.80107149
0.44000002 23726.37251966  1883.39953986
0.44100002 23819.29107893  2368.82861006
0.44200002 23912.34761972  2065.66824702
0.44300002 24005.85756463  1598.79018957
0.44400002 24099.12460761  1769.47830817
0.44500002 24191.96529405  2103.97532133
0.44600002 24284.69817747  1953.94690796
0.44700002 24378.13016626  2293.49459473
0.44800002 24470.23338451  1648.07029655
0.44900002 24562.42165289  1989.55624817
0.45000002 24654.46456428  1834.66206750
0.45100002 24744.94913199  2013.24915679
0.45200002 24835.24942731  2193.82186213
0.45300002 24924.41078727  1697.35245506
0.45400002 25012.81657148  2048.54977429
0.45500002 25100.58318657  2575.31995700
0.45600002 25186.75583101  2244.51785226
0.45700002 25272.18236241  1909.81891164
0.45800002 25355.86512409  1920.32653619
0.45900002 25438.35495801  2106.29589035
0.46000002 25519.91831800  2294.11316592
0.46100002 25599.05377951  1951.41596210
0.46200002 25677.48637755  2139.96181613
0.46300002 25753.90378357  2150.96614595
0.46400002 25828.27753841  2702.28366553
0.46500002 25901.92105401  2896.87098798
0.46600002 25972.66219541  1819.38507302
0.46700002 26041.58455728  2376.55511934
0.46800002 26109.26945152  3306.21694735
0.46900002 26174.17418215  2029.80730403
0.47000002 26237.09072200  2595.11076631
0.47100002 26298.14091218  2234.29015780
0.47200002 26357.16163545  2244.04884800
0.47300002 26413.75568824  2065.81993029
0.47400002 26467.38310159  3583.02215720
0.47500002 26519.29564775  2082.82557890
0.47600002 26569.51693449  2471.36373480
0.47700002 26615.98438946  1908.36617118
