# SAXS profile: number of points = 501, q_min = 0, q_max = 0.5, delta_q = 0.001
#    q    intensity    error
0.00000000 1646666.22097350 296.39991978
0.00100000 1646585.13769953 592.77066365
0.00200000 1646341.81472831 889.02460810
0.00300000 1645936.48351626 1283.83050288
0.00400000 1645369.03329558 1727.63755061
0.00500000 1644639.92509756 1628.19359029
0.00600000 1643749.09972819 2416.31127497
0.00700000 1642697.11396495 2956.85492802
0.00800000 1641483.77959621 2880.80415482
0.00900000 1640110.30025237 3690.24833332
0.01000000 1638576.15541941 3785.11108246
0.01100000 1636882.48430416 3241.02746003
0.01200000 1635029.30402312 4144.79946742
0.01300000 1633017.69730641 4801.07224183
0.01400000 1630847.78171601 3669.40767153
0.01500000 1628520.88371556 4690.14035395
0.01600000 1626036.45871520 4975.67178610
0.01700000 1623396.74065269 6136.43995494
0.01800000 1620601.62565900 6004.32929325
0.01900000 1617651.75966439 5338.25104777
0.02000000 1614548.59744697 5594.41114322
0.02100000 1611293.78399198 5848.99670108
0.02200000 1607885.92813872 6656.64804492
0.02300000 1604328.52608808 6930.69954817
0.02400000 1600620.80186457 11404.42373330
0.02500000 1596765.43768789 9341.07823709
0.02600000 1592762.41179861 7095.75686911
0.02700000 1588613.82754301 8006.61405753
0.02800000 1584319.53608370 7580.96932782
0.02900000 1579882.03317681 9242.31031844
0.03000000 1575302.76622640 8057.67401962
0.03100000 1570581.83891084 9046.55180839
0.03200000 1565720.85916073 9300.38233177
0.03300000 1560723.80794596 9551.63014496
0.03400000 1555588.61206799 8983.52464920
0.03500000 1550318.48979047 14231.92439348
0.03600000 1544914.57974279 11146.55920797
0.03700000 1539378.79968436 12284.24338960
0.03800000 1533712.76749921 9869.44211561
0.03900000 1527918.27805320 11001.01211144
0.04000000 1521995.46731866 14040.40883663
0.04100000 1515948.25208620 10505.52187406
0.04200000 1509777.33750635 12659.48356230
0.04300000 1503483.50036129 14884.48734448
0.04400000 1497070.71304320 12126.27333882
0.04500000 1490539.96001324 10284.72620197
0.04600000 1483891.28725778 11507.57746764
0.04700000 1477128.92306061 13825.92736286
0.04800000 1470253.62512997 11887.00111226
0.04900000 1463268.47893632 17559.22256457
0.05000000 1456173.50425719 12253.70060893
0.05100000 1448973.44310116 18083.18941229
0.05200000 1441666.33968928 17191.87190196
0.05300000 1434258.06427111 13940.98903461
0.05400000 1426748.84752336 11770.67854098
0.05500000 1419141.09238625 13112.86430535
0.05600000 1411435.82854255 19308.44303547
0.05700000 1403638.18436842 15875.14860624
0.05800000 1395747.37468988 18528.54726415
0.05900000 1387765.32954206 13738.87740415
0.06000000 1379696.67700973 13886.64770287
0.06100000 1371542.07004815 16581.94440178
0.06200000 1363303.97027475 14171.54543343
0.06300000 1354985.55981029 18211.00677531
0.06400000 1346585.58904142 18380.89415003
0.06500000 1338109.59174569 14572.01413576
0.06600000 1329559.56709887 13362.07427454
0.06700000 1320936.18550919 14820.90469502
0.06800000 1312243.05986547 14939.88793589
0.06900000 1303482.86302960 17792.54191338
0.07000000 1294655.88792165 13788.08585204
0.07100000 1285765.50159119 18052.14848786
0.07200000 1276814.14213778 16777.33861366
0.07300000 1267804.04586136 14072.62556844
0.07400000 1258738.29060867 24073.37093607
0.07500000 1249617.72598118 17094.77129270
0.07600000 1240444.09201957 17192.55592139
0.07700000 1231222.20751655 17286.36060406
0.07800000 1221952.53981806 18824.17975868
0.07900000 1212636.94535132 17461.97283209
0.08000000 1203279.79511696 14619.85019650
0.08100000 1193881.70755932 22027.11853794
0.08200000 1184444.74242115 17695.60528214
0.08300000 1174972.32588559 17765.58240116
0.08400000 1165465.68588587 19317.59465030
0.08500000 1155927.93350473 19384.91235490
0.08600000 1146360.17838960 16456.00113342
0.08700000 1136766.69043695 15005.32101838
0.08800000 1127146.81472190 18056.89281986
0.08900000 1117505.84005663 18103.59545924
0.09000000 1107843.88918819 19658.69073712
0.09100000 1098163.21471676 18185.58369009
0.09200000 1088465.99689395 19739.33178116
0.09300000 1078757.48429504 21294.67374067
0.09400000 1069033.94880201 16757.10793501
0.09500000 1059301.60906043 22880.91583117
0.09600000 1049561.22776412 18325.33989820
0.09700000 1039817.33332704 21399.44172592
0.09800000 1030069.67242904 18355.84242573
0.09900000 1020321.41532643 26018.19731426
0.10000000 1010572.65212387 19903.22931957
0.10100000 1000826.45449953 15312.64547402
0.10200000 991085.39485232 19905.95109191
0.10300000 981350.40353413 18370.88041834
0.10400000 971625.12858622 16833.40614469
0.10500000 961912.00675438 16823.84178969
0.10600001 952208.00697020 21396.11492338
0.10700001 942520.64744261 16795.71872779
0.10800001 932848.82593544 16777.28692402
0.10900001 923196.15306790 19802.55841533
0.11000001 913562.38883388 21295.14028607
0.11100001 903950.51549642 25816.82793786
0.11200001 894362.29288604 18191.32989370
0.11300001 884798.95481418 21182.08797552
0.11400001 875263.26483316 16608.12123219
0.11500001 865756.27741162 15064.15993630
0.11600001 856279.43958786 21038.78682142
0.11700001 846835.41205237 19485.68374900
0.11800001 837423.26660403 23916.80962065
0.11900001 828046.19528054 14904.83221709
0.12000001 818704.74396065 17831.39016341
0.12100001 809403.86637440 16293.30059766
0.12200001 800141.55262730 23620.17974634
0.12300001 790920.79767022 17653.35303573
0.12400001 781741.54934788 19054.95116318
0.12500001 772605.42004089 16062.46743952
0.12600001 763516.57124866 15999.49050447
0.12700001 754473.02496151 15934.47103812
0.12800001 745476.96223828 20194.97185881
0.12900001 736530.48787013 14362.34519039
0.13000001 727634.75390257 17157.62830575
0.13100001 718789.53486491 19924.84684567
0.13200001 709997.03318238 14164.44147970
0.13300001 701258.63350706 16914.35903758
0.13400001 692574.54494321 22439.41631408
0.13500001 683946.83085058 13952.51600719
0.13600001 675375.93137738 22206.36167073
0.13700001 666863.30125290 16564.88518421
0.13800001 658407.93138298 13727.80601668
0.13900001 650013.83626945 16380.34944646
0.14000001 641679.26106298 13571.51701152
0.14100001 633407.64543641 21586.53357456
0.14200001 625197.73231333 20115.73798595
0.14300001 617051.93615879 15993.98693963
0.14400001 608967.25536818 19867.55764354
0.14500001 600949.77061931 14476.88065712
0.14600001 592997.28857700 14383.14991295
0.14700001 585111.63540407 16886.32259440
0.14800001 577290.35751089 14192.68410900
0.14900001 569537.55996563 23066.27226689
0.15000001 561852.39656280 20361.53181215
0.15100001 554235.39974866 16427.53802368
0.15200001 546688.43357165 16310.45018525
0.15300001 539210.77715933 13701.34649417
0.15400001 531801.00499813 13600.81134466
0.15500001 524463.41219026 19635.91107908
0.15600001 517194.58659611 13397.92639809
0.15700001 509999.35956570 13295.68393139
0.15800001 502872.57900616 15591.56504799
0.15900001 495819.50528070 14279.60242609
0.16000001 488835.74253387 12985.92211338
0.16100001 481926.70016081 15224.06517672
0.16200001 475089.36436011 13939.12260834
0.16300001 468323.91592771 13824.92265083
0.16400001 461631.45268223 12567.91689260
0.16500001 455011.21131644 14728.71360568
0.16600001 448464.22011376 15727.64094194
0.16700001 441989.49281122 11138.13574473
0.16800001 435587.97276745 11042.15563103
0.16900001 429260.37707535 10946.14013228
0.17000001 423004.06407859 13020.06570714
0.17100001 416821.70797552 11829.40063094
0.17200001 410712.04902572 17052.76508083
0.17300001 404674.61292786 19011.61421316
0.17400001 398711.19609274 15699.25408757
0.17500001 392818.86142263 13481.54396073
0.17600001 386997.93370521 13357.23431269
0.17700001 381251.95279946 10179.42762053
0.17800001 375576.11922447 11092.64120522
0.17900001 369971.93967778 14983.86426469
0.18000001 364440.41878143 11873.46940474
0.18100001 358980.49078707 9800.16786141
0.18200001 353589.59458134 9706.03482975
0.18300001 348269.90333788 12495.92472206
0.18400001 343020.97445729 12374.48223813
0.18500001 337842.17204106 15081.27527238
0.18600001 332733.18389093 13999.74937361
0.18700001 327692.89237683 13861.41000242
0.18800001 322720.06648900 10064.02574895
0.18900001 317819.15346128 13586.76945241
0.19000001 312982.00481753 12553.70880638
0.19100001 308215.31007588 8876.60134961
0.19200001 303514.41756667 10544.09136449
0.19300001 298881.64503943 10436.94753795
0.19400001 294313.23393271 12052.12749905
0.19500001 289811.39109793 9372.50083101
0.19600001 285373.76618659 10119.35422718
0.19700001 281002.41459337 10014.92652939
0.19800001 276693.70475416 8259.30747724
0.19900001 272449.10294284 8173.47347456
0.20000001 268265.99024097 10514.68598443
0.20100001 264147.04199901 8003.65575084
0.20200001 260088.44882054 7919.69364090
0.20300001 256091.62924619 10187.32549291
0.20400001 252156.07250740 7753.79959609
0.20500001 248279.38033637 10740.56650102
0.20600001 244461.68783790 7590.53576616
0.20700001 240703.47462422 9762.93339224
0.20800001 237002.53082286 8173.03266177
0.20900001 233361.64572156 7350.89218772
0.21000001 229774.48235723 7999.59898143
0.21100001 226244.88987687 12230.79932494
0.21200001 222769.75228390 7829.24331414
0.21300001 219349.46761788 8449.34189209
0.21400001 215983.79642493 7662.02554041
0.21500001 212672.38533225 12403.05409896
0.21600001 209412.32114626 8861.28278825
0.21700001 206204.90397726 7417.19074674
0.21800001 203049.16952700 7337.18208776
0.21900001 199943.62069725 13196.27958996
0.22000001 196887.29246547 9790.22108075
0.22100001 193882.25883110 7101.90747679
0.22200001 190924.91355173 7663.72639234
0.22300001 188015.31629675 6949.04641892
0.22400001 185152.69172239 7498.68436934
0.22500001 182338.56069282 6799.40524976
0.22600001 179568.52400859 8560.03194428
0.22700001 176844.73428789 7862.51725825
0.22800001 174165.11230863 6580.82907979
0.22900001 171528.61706069 5917.73756845
0.23000001 168935.98606994 7024.35863298
0.23100001 166387.20837660 6948.33015041
0.23200001 163878.34618536 7445.81301107
0.23300001 161411.81059439 8498.33222972
0.23400001 158985.02993253 7845.91159825
0.23500001 156597.81055122 6097.91903127
0.23600001 154250.14407960 5483.59288139
0.23700001 151941.36498673 5966.73768524
0.23800001 149669.96619143 5365.66854175
0.23900001 147436.04025565 8492.31632041
0.24000001 145238.12873685 5775.39446240
0.24100001 143077.30435971 6232.44767271
0.24200001 140951.91894220 5651.46745731
0.24300001 138860.32867442 6098.74592387
0.24400001 136803.25854863 6535.77598633
0.24500001 134779.06383859 5968.01722909
0.24600001 132788.17168766 5903.76239251
0.24700001 130830.00462346 4866.87640222
0.24800001 128903.13775756 6740.34539221
0.24900001 127006.47093392 5715.29146240
0.25000001 125141.52169069 5182.73636601
0.25100001 123305.60249349 5127.04719423
0.25200001 121500.98138769 5072.05870799
0.25300001 119723.63212372 5473.76471966
0.25400001 117975.81455890 5415.09014445
0.25500001 116254.00308013 7142.64628718
0.25600001 114560.67850700 4857.94580193
0.25700001 112893.36359621 4368.97337788
0.25800001 111252.36872502 6051.01662125
0.25900001 109637.79702934 4275.87428646
0.26000001 108047.71565531 5076.08192166
0.26100001 106481.87516053 4603.21168100
0.26200001 104941.80232950 4553.94972757
0.26300001 103423.68773049 5733.80951909
0.26400001 101930.24798498 4456.90030404
0.26500001 100459.33401793 4409.16037868
0.26600001 99010.48920869  5154.98136458
0.26700001 97583.94897725  3922.87493452
0.26800001 96179.15167843  5045.07764003
0.26900001 94794.89003040  4223.11255070
0.27000001 93432.00678816  4557.61350680
0.27100001 92088.95831311  5260.12154777
0.27200001 90766.66395536  5575.34259730
0.27300001 89463.57048540  4780.03879725
0.27400001 88178.56813011  5092.31255051
0.27500001 86914.29956656  3958.07738958
0.27600001 85666.23037926  3559.43204071
0.27700001 84438.29804027  3521.07719492
0.27800001 83227.05514714  5572.88387640
0.27900001 82033.69211540  3789.95675510
0.28000001 80857.06370109  4430.56301519
0.28100001 79697.53475831  4719.68823177
0.28200001 78554.93362659  4001.58850833
0.28300001 77428.30387328  3628.29049123
0.28400001 76317.00782498  4241.31791062
0.28500001 75222.03653002  3549.72807187
0.28600001 74142.24465910  5426.10043220
0.28700001 73078.25889254  4104.07521366
0.28800001 72027.63221101  4371.35720580
0.28900001 70993.18220726  3397.02392941
0.29000001 69972.50474945  3359.72997458
0.29100001 68966.51903811  3624.88041223
0.29200001 67974.05314627  2987.45977719
0.29300001 66995.61122140  3840.85857313
0.29400001 66029.99603109  3798.37570149
0.29500001 65079.01210796  3467.40992925
0.29600001 64139.74948393  3714.65376720
0.29700001 63214.23704494  3108.24418264
0.29800001 62301.47428467  3073.64337934
0.29900001 61401.56562536  3591.99175913
0.30000001 60513.33881634  3005.39511459
0.30100001 59638.23196879  3512.09564691
0.30200001 58774.32224397  3205.55168694
0.30300001 57923.15747047  3169.55532683
0.30400001 57083.52842675  2611.57154916
0.30500001 56256.15176643  3615.02048365
0.30600001 55438.98585648  2552.96541956
0.30700001 54634.23255119  3028.92199604
0.30800001 53840.37321537  4741.45269169
0.30900001 53057.99165333  2467.19672869
0.31000001 52286.47982905  4146.57947916
0.31100001 51525.68060312  2893.68235967
0.31200001 50776.53176323  2383.95827915
0.31300001 50037.31189054  2592.43325179
0.31400001 49310.21122280  4193.83366306
0.31500001 48592.25771619  3224.58237472
0.31600002 47885.94779544  2276.97692548
0.31700002 47189.28475608  2476.02188839
0.31800002 46502.72639655  2447.67111978
0.31900002 45827.17509092  3299.55676278
0.32000002 45161.88380295  2174.54480808
0.32100002 44506.34901862  2579.58811126
0.32200002 43861.74761178  2125.10177242
0.32300002 43225.46962008  2520.90950761
0.32400002 42600.30377045  2284.44139786
0.32500002 41984.81975221  2258.36356141
0.32600002 41379.37950356  2435.59039291
0.32700002 40783.68238412  2407.86872198
0.32800002 40198.63467247  2182.18298653
0.32900002 39621.20539690  2157.37473602
0.33000002 39055.00843600  2132.98938674
0.33100002 38497.20383144  2300.59300991
0.33200002 37950.59342761  2274.75867777
0.33300002 37412.59303670  3186.43069983
0.33400002 36884.84064900  2224.15599646
0.33500002 36365.85849640  2565.97509702
0.33600002 35856.02060733  3262.53946956
0.33700002 35355.70625497  2151.04127042
0.33800002 34865.47240938  1772.90935598
0.33900002 34383.69851872  2981.06680275
0.34000002 33911.34038614  2428.39120006
0.34100002 33448.13828847  2230.65644810
0.34200002 32995.10395443  2037.11781462
0.34300002 32550.45683535  2015.52438270
0.34400002 32115.60861862  2659.17251956
0.34500002 31689.37110338  2138.08196960
0.34600002 31272.70482371  2604.39098106
0.34700002 30864.12419767  2255.55030319
0.34800002 30465.38109672  2232.80788633
0.34900002 30075.15898820  1894.73510599
0.35000002 29694.13480094  1719.73589845
0.35100002 29322.79836501  2632.01450590
0.35200002 28958.58764231  2146.70020360
0.35300002 28604.56524488  1822.68298373
0.35400002 28258.84255270  1655.26178092
0.35500002 27922.20080770  1789.25471250
0.35600002 27593.60820855  2364.22046329
0.35700002 27273.80920150  1611.06398584
0.35800002 26962.86881649  1887.53572090
0.35900002 26661.10022257  1583.66942823
0.36000002 26367.43115365  1427.79646460
0.36100002 26081.63371118  1557.85605536
0.36200002 25805.78276522  1545.63743193
0.36300002 25536.95647840  1533.74967874
0.36400002 25277.11676275  1937.49109164
0.36500002 25024.59610597  1648.62046955
0.36600002 24781.30232454  1364.21075759
0.36700002 24545.57553083  1490.40741683
0.36800002 24318.82154774  1346.04683643
0.36900002 24099.87494951  1337.54312306
0.37000002 23888.35677654  1329.38711759
0.37100002 23684.67576254  1585.92596418
0.37200002 23489.55477821  1314.24065210
0.37300002 23301.92852510  2091.58120349
0.37400002 23121.83784904  1300.60344062
0.37500002 22949.77162424  1423.80389902
0.37600002 22785.30580950  1417.36001502
0.37700002 22628.04865029  1796.21458695
0.37800002 22478.39889945  1916.84555696
0.37900002 22336.90881015  1527.84463499
0.38000002 22201.87243079  1903.25560429
0.38100002 22073.41639208  1897.21022878
0.38200002 21953.31405786  1891.82692856
0.38300002 21839.32472975  1635.32871324
0.38400002 21732.84709642  1631.59357306
0.38500002 21632.67420099  1252.53189558
0.38600002 21540.21732954  1875.61451283
0.38700002 21453.51768795  1373.45426745
0.38800002 21373.48061746  1496.57118373
0.38900002 21300.00708360  1495.26056811
0.39000002 21233.48555686  1618.94718298
0.39100002 21172.46725880  1369.43524718
0.39200002 21118.19092704  1618.39263837
0.39300002 21069.55268321  1992.33699612
0.39400002 21028.03305570  1744.27542461
0.39500002 20991.24835083  1620.94427445
0.39600002 20960.53531542  1373.01993089
0.39700002 20934.79087908  1499.76848963
0.39800002 20915.85453090  1376.99534828
0.39900002 20901.40401387  1254.08430025
0.40000002 20892.66790829  1508.03284107
0.40100002 20888.85460996  1511.51759119
0.40200002 20890.63489996  1894.25840930
0.40300002 20897.02800356  1266.35995702
0.40400002 20908.41203977  1905.27913740
0.40500002 20924.15593670  1911.42173538
0.40600002 20945.54219406  1790.21557615
0.40700002 20970.78299152  1283.41197989
0.40800002 21000.32960399  1803.71839515
0.40900002 21033.75064621  1422.93329864
0.41000002 21072.24577925  1688.83521800
0.41100002 21114.33525653  1696.32577489
0.41200002 21159.68767881  1441.92698519
0.41300002 21210.06362582  1844.00301900
0.41400002 21263.33139178  1456.00668604
0.41500002 21320.16541644  1463.41622353
0.41600002 21379.59974802  1738.48223589
0.41700002 21443.84637695  1344.52923154
0.41800002 21511.25845303  1622.37918940
0.41900002 21580.14984758  1495.50445530
0.42000002 21652.52958635  2051.03596225
0.42100002 21728.39758605  1512.94839561
0.42200002 21806.66581195  1798.72291473
0.42300002 21887.02564228  1670.41787617
0.42400002 21969.85234991  2100.86723051
0.42500002 22055.36095510  1691.20515818
0.42600002 22141.84383767  1985.45923101
0.42700002 22231.66578568  1570.00031218
0.42800002 22322.57884975  1436.45801705
0.42900002 22416.33852444  1879.61007434
0.43000002 22511.38979469  1891.96984495
0.43100002 22606.60147217  1904.38019826
0.43200002 22704.57459580  1622.12840887
0.43300002 22803.13709905  1929.82958414
0.43400002 22903.28971611  1793.32766975
0.43500002 23004.00470284  1805.35437463
0.43600002 23106.43114028  1817.55195963
0.43700002 23208.92333666  1829.79160257
0.43800002 23311.74505042  1842.09418118
0.43900002 23416.20530250  1700.01658552
0.44000002 23520.44535784  2178.22854782
0.44100002 23625.37465820  1722.99865548
0.44200002 23730.44781350  2207.64366471
0.44300002 23835.83605417  2063.70678337
0.44400002 23940.94779845  1917.67000954
0.44500002 24045.56437569  2573.83733275
0.44600002 24149.98534012  2105.03357193
0.44700002 24255.03505090  2444.90764900
0.44800002 24358.72379910  2624.89620099
0.44900002 24462.41688491  1651.21321799
0.45000002 24565.84212781  1661.87929871
0.45100002 24667.56229973  2174.19904414
0.45200002 24769.13491843  1851.36907722
0.45300002 24869.49990261  2032.33562836
0.45400002 24968.89445936  2385.77797866
0.45500002 25067.64352893  1886.08958850
0.45600002 25164.73663603  2070.05133379
0.45700002 25260.94118665  1908.96941595
0.45800002 25355.32313643  1920.28548875
0.45900002 25448.48330932  1931.53997472
0.46000002 25540.55242060  2649.19392538
0.46100002 25630.16557815  1953.78761462
0.46200002 25718.87638569  2322.02886453
0.46300002 25805.52815255  1796.06484454
0.46400002 25889.97991365  1986.40880302
0.46500002 25973.65288852  1997.11426525
0.46600002 26054.24413661  2007.60987710
0.46700002 26133.03702601  2568.35500065
0.46800002 26210.35494534  2028.28841358
0.46900002 26284.90549315  1853.08592510
0.47000002 26357.30736561  2048.35823900
0.47100002 26427.76871466  2993.73778189
0.47200002 26495.94169812  2255.86458310
0.47300002 26561.62625076  2643.94440232
0.47400002 26624.40963925  2655.78498739
0.47500002 26685.17442547  2095.85369872
0.47600002 26744.03117165  2870.30328154
0.47700002 26799.28667925  2305.81073517
