# SAXS profile: number of points = 501, q_min = 0, q_max = 0.5, delta_q = 0.001
#    q    intensity    error
0.00000000 1682732.95097189 302.89193117
0.00100000 1682650.59534688 555.27470965
0.00200000 1682403.46385677 832.78974098
0.00300000 1681991.79943453 1311.95365029
0.00400000 1681415.45163662 1639.38012764
0.00500000 1680674.92777824 1966.38974333
0.00600000 1679770.16253776 2469.26223946
0.00700000 1678701.69693989 2618.77475606
0.00800000 1677469.39137478 4076.25079314
0.00900000 1676074.38870163 2514.11169052
0.01000000 1674516.18897875 3039.24701423
0.01100000 1672795.96990620 3312.13616462
0.01200000 1670913.69880588 4561.59459774
0.01300000 1668870.62695151 5607.40555387
0.01400000 1666666.67233394 5625.00026849
0.01500000 1664303.23442280 5991.49191072
0.01600000 1661779.77709933 6356.30793155
0.01700000 1659098.58113182 5375.47964400
0.01800000 1656259.67177544 4720.34027696
0.01900000 1653263.52154740 6943.70710382
0.02000000 1650111.45379648 6757.20670896
0.02100000 1646805.52233661 7064.79601113
0.02200000 1643344.13268924 7937.35252150
0.02300000 1639730.68266530 5903.03072629
0.02400000 1635964.57022473 6748.35415989
0.02500000 1632048.43084005 7001.48808807
0.02600000 1627982.33196474 7911.99449523
0.02700000 1623768.30119281 8183.79261284
0.02800000 1619406.16051264 7748.85883341
0.02900000 1614898.72583540 10173.86243989
0.03000000 1610247.03314530 7487.64904830
0.03100000 1605451.51331032 10788.63466586
0.03200000 1600513.84836158 8714.79830572
0.03300000 1595437.54083338 8136.73183336
0.03400000 1590220.87686136 13357.85598197
0.03500000 1584867.03557610 9414.11062605
0.03600000 1579377.47326850 10518.65445807
0.03700000 1573753.92487640 10764.47734398
0.03800000 1567997.75319976 12841.90219302
0.03900000 1562111.31115861 13121.73562140
0.04000000 1556094.04943893 12440.97250177
0.04100000 1549950.56525149 11717.62681661
0.04200000 1543681.19324686 11948.09299004
0.04300000 1537287.14078165 15219.14340018
0.04400000 1530771.71996264 13432.52246650
0.04500000 1524136.49819240 15774.81348927
0.04600000 1517381.43900358 14976.55549918
0.04700000 1510510.73912941 13050.81339304
0.04800000 1503524.99619168 15471.27293066
0.04900000 1496427.95644629 15712.49427406
0.05000000 1489218.91834880 11392.52525587
0.05100000 1481902.90288626 11558.84318097
0.05200000 1474478.03139914 12894.31098548
0.05300000 1466950.57750676 14258.76027808
0.05400000 1459319.78999255 13243.32771177
0.05500000 1451589.10112926 18290.02352745
0.05600000 1443759.15753737 13578.55551027
0.05700000 1435835.32496044 16239.29828333
0.05800000 1427816.22209073 18954.26123327
0.05900000 1419704.70824777 19166.01445651
0.06000000 1411504.79060780 19372.90415617
0.06100000 1403217.34078871 16964.89844293
0.06200000 1394844.97645026 15817.54277231
0.06300000 1386390.55255700 15971.21991220
0.06400000 1377853.01212361 17464.28774541
0.06500000 1369238.58791017 16266.55518529
0.06600000 1360548.24574446 23244.96786614
0.06700000 1351783.40820233 19303.46797251
0.06800000 1342947.38381972 13899.50607316
0.06900000 1334042.64226766 15408.19323959
0.07000000 1325070.18277939 18345.59753968
0.07100000 1316032.71510737 18477.10018553
0.07200000 1306933.14706880 15742.01049391
0.07300000 1297773.87515808 20167.40696491
0.07400000 1288557.69233239 14496.27471809
0.07500000 1279285.35778093 16042.23913851
0.07600000 1269958.57371280 19068.42887824
0.07700000 1260583.05718804 19173.46919885
0.07800000 1251158.31751491 17791.47210941
0.07900000 1241687.01970292 19370.31841591
0.08000000 1232172.70820054 16467.98901763
0.08100000 1222616.74485292 18045.82400071
0.08200000 1213020.82789389 19632.74302073
0.08300000 1203388.63668341 15162.69753383
0.08400000 1193721.64182694 18263.94197724
0.08500000 1184022.06026037 18328.66235327
0.08600000 1174292.22551598 19921.86854124
0.08700000 1164535.71964869 26132.18277602
0.08800000 1154752.19968581 20040.72536674
0.08900000 1144946.74110739 15456.78173095
0.09000000 1135119.52168745 23241.57329834
0.09100000 1125272.86956957 17081.64296258
0.09200000 1115409.58744865 18671.95737122
0.09300000 1105533.85359212 20264.43648861
0.09400000 1095642.93107288 17174.20375171
0.09500000 1085742.22759852 21888.56433721
0.09600000 1075833.38750893 17218.71417649
0.09700000 1065920.68596385 18802.84178438
0.09800000 1056003.45445159 21954.31285029
0.09900000 1046085.38044739 23536.92216683
0.10000000 1036166.20571691 17267.71063032
0.10100000 1026249.31472109 18841.93830445
0.10200000 1016337.34379413 20413.13651026
0.10300000 1006431.30817374 17270.36206067
0.10400000 996534.65414399 20404.04800351
0.10500000 986649.70380765 23531.59654296
0.10600001 976773.66055305 17244.93978850
0.10700001 966914.40863914 15664.01415707
0.10800001 957070.43178763 26601.77390346
0.10900001 947245.42833535 23444.32545472
0.11000001 937439.63007986 20290.88174816
0.11100001 927655.37079502 15584.61096298
0.11200001 917894.84308037 17114.15015492
0.11300001 908159.07898408 18635.42517812
0.11400001 898450.81931525 23247.41604437
0.11500001 888771.85099853 15464.63093557
0.11600001 879122.59710717 20057.18299752
0.11700001 869506.46568561 16929.29168418
0.11800001 859922.38015942 15349.61520879
0.11900001 850373.37976587 21429.41017946
0.12000001 840860.33735250 18313.93901021
0.12100001 831388.04607639 15214.40195992
0.12200001 821954.63563858 18198.07649037
0.12300001 812563.04363942 19647.77532089
0.12400001 803213.10257068 16566.27102108
0.12500001 793906.88643928 15004.84086074
0.12600001 784647.93372561 19431.80699441
0.12700001 775434.93189141 14888.35139395
0.12800001 766269.64501981 16310.05016293
0.12900001 757154.69960984 16240.96907210
0.13000001 748090.28979131 19109.96735346
0.13100001 739076.74628808 20487.20837282
0.13200001 730117.27534612 17479.00839575
0.13300001 721211.84428641 14496.35875356
0.13400001 712361.42857814 18752.91549144
0.13500001 703567.82902729 17223.34126664
0.13600001 694831.49058458 15706.66658525
0.13700001 686154.19607639 14203.39252852
0.13800001 677534.50506809 19777.23313555
0.13900001 668976.88335414 14048.51521294
0.14000001 660479.43333016 15366.05474110
0.14100001 652045.68226414 16666.28842470
0.14200001 643674.07278187 19329.53331732
0.14300001 635367.36573831 13723.93574727
0.14400001 627122.30306331 21823.85717603
0.14500001 618945.54466047 17621.38048772
0.14600001 610833.99152902 16162.66817832
0.14700001 602790.50328981 20072.92470652
0.14800001 594812.10503677 14623.45629224
0.14900001 586903.01735779 15846.38221631
0.15000001 579061.94621152 15738.90444064
0.15100001 571290.32343666 14327.96198786
0.15200001 563589.43954215 15521.25389739
0.15300001 555958.55077068 15411.17175460
0.15400001 548396.49345376 16575.28479684
0.15500001 540907.37904352 17720.12657373
0.15600001 533487.94740765 17589.09845615
0.15700001 526143.12004050 16210.47029353
0.15800001 518867.38858708 12374.98780189
0.15900001 511666.50010451 14735.99589856
0.16000001 504535.78466221 12184.53977473
0.16100001 497480.49592590 16924.28727030
0.16200001 490497.91245287 13191.94197816
0.16300001 483588.31508828 13085.90042405
0.16400001 476752.83737800 12979.59661038
0.16500001 469990.25983569 17554.13703362
0.16600001 463302.20473254 13926.86493179
0.16700001 456686.95237026 17262.76761465
0.16800001 450145.97797541 12552.32118852
0.16900001 443680.33878182 12445.23409047
0.17000001 437286.84035347 11216.40798470
0.17100001 430968.04556980 16678.46415113
0.17200001 424722.85386014 12123.71443595
0.17300001 418551.55461580 12016.61570050
0.17400001 412454.48246860 10826.93067611
0.17500001 406430.03535870 11802.72878423
0.17600001 400477.94778880 11695.95901756
0.17700001 394601.94024500 11589.45953237
0.17800001 388796.96784075 15658.79861938
0.17900001 383064.56526724 13445.56687596
0.18000001 377406.10171203 14345.20660367
0.18100001 371820.11804332 12180.82764248
0.18200001 366304.39681329 12066.06740101
0.18300001 360860.88127301 10955.73687299
0.18400001 355488.77047395 12824.25800067
0.18500001 350188.21080664 15632.40246892
0.18600001 344958.57139763 9676.08838484
0.18700001 339798.34302237 11498.77647113
0.18800001 334706.94037567 10437.83642876
0.18900001 329688.58664934 10335.73767979
0.19000001 324734.80481385 13025.11363650
0.19100001 319852.71551567 14738.81382737
0.19200001 315036.93960120 10032.35181564
0.19300001 310290.97905780 13544.20187587
0.19400001 305610.24580762 8939.10011228
0.19500001 300997.21894859 10619.18238632
0.19600001 296449.00325984 8760.06846030
0.19700001 291968.45790945 9538.60997067
0.19800001 287551.70147326 10300.10243354
0.19900001 283199.96759997 10195.19931542
0.20000001 278910.61036614 10931.90188996
0.20100001 274686.55170258 9155.30320095
0.20200001 270523.82146807 10708.68597894
0.20300001 266424.03063204 10598.34843947
0.20400001 262386.04686621 13716.23124824
0.20500001 258408.30279283 10380.26201383
0.20600001 254490.74617682 12643.10086768
0.20700001 250633.22048793 8601.73253374
0.20800001 246834.14953985 10059.72624002
0.20900001 243095.93693105 13017.78803803
0.21000001 239412.68566425 10608.37660327
0.21100001 235787.91089082 10497.27828910
0.21200001 232218.67474051 7419.38700871
0.21300001 228705.11411759 10278.00831434
0.21400001 225247.07172533 8717.06208788
0.21500001 221844.37585567 15094.29204684
0.21600001 218493.85066395 9956.76524550
0.21700001 215197.06721176 7740.63887358
0.21800001 211952.75912624 6962.64846649
0.21900001 208759.25457878 6889.05572682
0.22000001 205616.35900536 7497.80088565
0.22100001 202525.14922071 6744.08778793
0.22200001 199483.16599201 8674.52588333
0.22300001 196489.54735957 7262.25401381
0.22400001 193543.55038630 7185.30464786
0.22500001 190647.13123392 9694.40708167
0.22600001 187795.72475313 7033.88920325
0.22700001 184991.38145222 6959.37609934
0.22800001 182231.75192050 6885.62707194
0.22900001 179516.56818572 7431.98627435
0.23000001 176845.92054013 7966.02486746
0.23100001 174219.67496502 8487.98296572
0.23200001 171634.39431009 8398.07131077
0.23300001 169092.32964382 8902.71157680
0.23400001 166590.39928297 5872.31185246
0.23500001 164129.23217153 5810.17509367
0.23600001 161708.34193485 9197.97092429
0.23700001 159326.97092197 6825.56775713
0.23800001 156983.72450250 7316.22682649
0.23900001 154678.80734348 6682.12479330
0.24000001 152410.48175518 8264.45876409
0.24100001 150180.28875175 7632.16263537
0.24200001 147985.90104951 5394.08634841
0.24300001 145826.32917035 5337.24390010
0.24400001 143701.72429559 5809.14247944
0.24500001 141610.87226989 5747.98557734
0.24600001 139553.75170646 7755.70011797
0.24700001 137530.28226892 5627.73941667
0.24800001 135538.76137100 6581.08486970
0.24900001 133577.92220956 7012.84124776
0.25000001 131649.51116685 7434.90649488
0.25100001 129750.93454148 7356.87833655
0.25200001 127884.21401061 6794.48861183
0.25300001 126045.32662137 4802.32717147
0.25400001 124236.56151714 4752.04870286
0.25500001 122454.23959728 5172.46732531
0.25600001 120701.46682676 5583.65011958
0.25700001 118974.97465660 5064.76491076
0.25800001 117275.33582301 6378.60581721
0.25900001 115602.94789322 4508.51518115
0.26000001 113955.48929883 5799.76490228
0.26100001 112332.90872001 4856.15187374
0.26200001 110736.30925306 5242.25712809
0.26300001 109162.69513190 6051.98010448
0.26400001 107613.79734635 7272.00269978
0.26500001 106088.29219671 4656.21536484
0.26600001 104585.21035497 5026.36544751
0.26700001 103104.97520216 5802.74827896
0.26800001 101647.10253265 4511.60685941
0.26900001 100210.13476008 4464.36171482
0.27000001 98794.83303876  4819.21218369
0.27100001 97400.17384621  4371.32000908
0.27200001 96026.44302329  4718.73963347
0.27300001 94672.78734286  4280.15691833
0.27400001 93337.18427189  5390.22264679
0.27500001 92023.10957643  4190.73260844
0.27600001 90725.65587181  4523.58141585
0.27700001 89448.69284943  4103.01173518
0.27800001 88188.75516769  3690.69957844
0.27900001 86947.28664683  3651.78621200
0.28000001 85722.77436721  3613.21511059
0.28100001 84515.86103649  3932.52320015
0.28200001 83326.32964738  3537.20286095
0.28300001 82153.11973182  3849.69537284
0.28400001 80995.67523022  3462.56527998
0.28500001 79855.01380895  3768.35828001
0.28600001 78729.61391372  4406.10305123
0.28700001 77620.64480239  3353.21201418
0.28800001 76525.21670639  3649.10513137
0.28900001 75446.59330418  3938.31235689
0.29000001 74381.86601408  3896.12232624
0.29100001 73332.24076101  4175.53798658
0.29200001 72296.41704163  4448.39875114
0.29300001 71275.14010186  3771.88059274
0.29400001 70266.97898135  4353.03955395
0.29500001 69273.66680097  3383.32604672
0.29600001 68292.46975800  3042.42967174
0.29700001 67325.29915876  3611.32921783
0.29800001 66371.19764401  2976.74835525
0.29900001 65430.39850467  3533.24168651
0.30000001 64501.35664232  2912.23639026
0.30100001 63585.98518218  3744.57884465
0.30200001 62681.94934982  2848.89473282
0.30300001 61791.06652675  3099.44004371
0.30400001 60911.93633387  3344.06546304
0.30500001 60045.32686855  3307.29676049
0.30600001 59189.22371572  2998.23026926
0.30700001 58345.86115125  3773.81047793
0.30800001 57513.68923291  4265.21539544
0.30900001 56693.25641622  4217.97847706
0.31000001 55884.09669912  3128.39188133
0.31100001 55085.72731886  3351.41580875
0.31200001 54299.38162404  3569.09852313
0.31300001 53523.14534947  3025.12831838
0.31400001 52759.24792207  4487.17424822
0.31500001 52004.64955953  2711.52255642
0.31600002 51262.26306696  3412.52901394
0.31700002 50529.66176338  2651.29147826
0.31800002 49807.47118271  4766.57521788
0.31900002 49096.57418836  2592.29923989
0.32000002 48396.26368089  2796.33624789
0.32100002 47705.68735567  2765.02177006
0.32200002 47026.41104414  2278.42972297
0.32300002 46355.92248617  2703.47752741
0.32400002 45696.74851167  2673.25991451
0.32500002 45047.22302165  3524.49489611
0.32600002 44408.04468569  3049.50057297
0.32700002 43778.93990156  2369.31633967
0.32800002 43160.67206684  4046.96060798
0.32900002 42550.46171516  2948.74713649
0.33000002 41951.46710716  2291.17948455
0.33100002 41361.24363305  3295.66404875
0.33200002 40782.41396873  3055.62251131
0.33300002 40212.44011480  2417.57201419
0.33400002 39652.78522766  2191.80780725
0.33500002 39102.45608931  2956.14582034
0.33600002 38561.37190248  2144.20518618
0.33700002 38029.95188289  2120.93051695
0.33800002 37509.02846008  2288.80102503
0.33900002 36996.63982649  2264.19446461
0.34000002 36493.89725415  2799.99439943
0.34100002 36000.84290274  3139.63365824
0.34200002 35517.81155615  2192.86978933
0.34300002 35043.38933998  1808.23897558
0.34400002 34579.11841610  1968.41640906
0.34500002 34123.79201579  2302.33235634
0.34600002 33678.39588896  2103.55270685
0.34700002 33240.98580721  2429.25135784
0.34800002 32813.74341043  2061.35945867
0.34900002 32395.30375202  2721.20564405
0.35000002 31986.40608991  2189.30966851
0.35100002 31587.20615785  2168.14593336
0.35200002 31195.51840252  2477.70416647
0.35300002 30814.28842401  1636.23879281
0.35400002 30441.25993993  1783.09688544
0.35500002 30077.74989718  1927.38230470
0.35600002 29722.71340923  1591.65137845
0.35700002 29376.43266813  1893.01741080
0.35800002 29039.47360705  1563.77572781
0.35900002 28711.70822768  2170.60524482
0.36000002 28392.36115016  2152.42500074
0.36100002 28081.21661709  1677.29114799
0.36200002 27780.17209899  1663.89348668
0.36300002 27486.35182795  1800.90585707
0.36400002 27201.68875376  1936.08028876
0.36500002 26924.81277594  1921.62397884
0.36600002 26657.21339345  1760.97560019
0.36700002 26397.48081996  1602.85511131
0.36800002 26146.97631072  1736.68224882
0.36900002 25904.35994406  1437.69204500
0.37000002 25669.42364668  1857.05454169
0.37100002 25442.70547301  1419.70303265
0.37200002 25224.73182132  2116.98571839
0.37300002 25014.38706084  1683.96861671
0.37400002 24812.01983456  1674.81141817
0.37500002 24617.63626116  1666.12170108
0.37600002 24431.30658790  1519.74949829
0.37700002 24252.42129223  1650.13482289
0.37800002 24081.17901113  1779.71961913
0.37900002 23918.42853212  1908.69068728
0.38000002 23762.36535922  1493.82116907
0.38100002 23613.11170904  1894.24391104
0.38200002 23472.41071584  2022.73508926
0.38300002 23338.33097955  1478.71672092
0.38400002 23211.62247921  2144.75401868
0.38500002 23091.56854926  1738.10244704
0.38600002 22979.46830818  1734.14565803
0.38700002 22873.33942001  1597.47410077
0.38800002 22774.06576316  1993.30020035
0.38900002 22681.65209417  1459.56438141
0.39000002 22596.38898905  2252.97307089
0.39100002 22516.80215927  1853.58324157
0.39200002 22444.40133870  1852.33653024
0.39300002 22377.62269647  1322.51756402
0.39400002 22318.35112781  1719.07107706
0.39500002 22263.82969481  1586.96585583
0.39600002 22215.66900749  1984.41472811
0.39700002 22172.79975216  1720.83107029
0.39800002 22136.93747361  1854.85407879
0.39900002 22105.64615819  1989.50824850
0.40000002 22080.40860513  1593.76396863
0.40100002 22060.21776345  1862.32367183
0.40200002 22045.84809203  1465.93873834
0.40300002 22036.42527474  1869.57040889
0.40400002 22032.06264241  1606.13744273
0.40500002 22032.35341330  1744.30150238
0.40600002 22038.44201994  1479.99164397
0.40700002 22048.63411447  1619.25176609
0.40800002 22063.17968044  2436.43704755
0.40900002 22082.07843756  1629.65746591
0.41000002 22106.13407775  1907.98052265
0.41100002 22133.97883123  1915.03193922
0.41200002 22165.19517170  1373.13390595
0.41300002 22201.72200477  1792.34510237
0.41400002 22241.31617442  1661.42639695
0.41500002 22284.66039100  1390.56287429
0.41600002 22330.71039031  2514.21480198
0.41700002 22381.65386033  1543.66273989
0.41800002 22436.39406034  1551.14017686
0.41900002 22492.42502708  1842.12969701
0.42000002 22552.28397295  1709.01216045
0.42100002 22615.84829939  1861.05824474
0.42200002 22681.76701950  1870.90564126
0.42300002 22750.10431243  1446.90670283
0.42400002 22820.94862462  1745.80265251
0.42500002 22894.88725440  2340.77338381
0.42600002 22969.79716127  1912.58025126
0.42700002 23048.21916625  1775.63488871
0.42800002 23127.92967801  1637.11057984
0.42900002 23210.53650710  2545.03544860
0.43000002 23294.82676767  1807.21274627
0.43100002 23379.25161746  2423.96092256
0.43200002 23466.59801289  1828.98673580
0.43300002 23554.70971920  1840.09401046
0.43400002 23644.66607366  1851.37744130
0.43500002 23735.20420152  2173.19539968
0.43600002 23827.60585055  2030.46952878
0.43700002 23920.35705899  2043.03779323
0.43800002 24013.40888108  1897.53965971
0.43900002 24108.27987117  2704.94912973
0.44000002 24203.03756539  1921.23721299
0.44100002 24298.62987959  2094.29900857
0.44200002 24394.42425159  1783.11052517
0.44300002 24490.73046184  2120.40754387
0.44400002 24586.86636391  1969.40808908
0.44500002 24682.67737143  1816.39831384
0.44600002 24778.32775651  1827.52565029
0.44700002 24874.81896073  2173.06428739
0.44800002 24969.90965977  2522.58524293
0.44900002 25065.27390047  1861.09667531
0.45000002 25160.43216466  2212.73431159
0.45100002 25254.01729166  1883.44469887
0.45200002 25347.48693107  2066.83418231
0.45300002 25439.74675277  1732.44683597
0.45400002 25531.34885878  2439.52049907
0.45500002 25622.30577346  1927.82237776
0.45600002 25711.65759834  2291.29447547
0.45700002 25800.23218327  2126.97124199
0.45800002 25887.20103433  1960.56726325
0.45900002 25972.71250141  1792.11724753
0.46000002 26057.41629673  1982.05746455
0.46100002 26139.68968357  1811.48058093
0.46200002 26221.10046379  2185.26661622
0.46300002 26300.72867494  2013.58388279
0.46400002 26378.08506564  2391.83297669
0.46500002 26454.70041964  2219.02037637
0.46600002 26528.39858542  2415.80873168
0.46700002 26600.16588722  2800.99760068
0.46800002 26670.74746131  1876.28717283
0.46900002 26738.38035832  2073.56149507
0.47000002 26804.10796674  1893.71031761
0.47100002 26867.85794792  2663.14220602
0.47200002 26929.46471226  2674.90385665
0.47300002 26988.67281130  2110.78420062
0.47400002 27044.82508166  2697.72142976
0.47500002 27099.09879787  1934.87574588
0.47600002 27151.51719085  2136.96026179
0.47700002 27200.37419802  1950.26692244
