# SAXS profile: number of points = 501, q_min = 0, q_max = 0.5, delta_q = 0.001
#    q    intensity    error
0.00000000 1700912.83420644 331.67800267
0.00100000 1700829.95671749 969.47309835
0.00200000 1700581.26335434 994.84007056
0.00300000 1700166.99251202 1122.11025503
0.00400000 1699586.98835227 1912.03543455
0.00500000 1698841.78936152 2446.33227351
0.00600000 1697931.28948876 2674.24188982
0.00700000 1696856.06007491 2239.85009239
0.00800000 1695615.93949108 2746.89793795
0.00900000 1694212.09538846 2795.45007689
0.01000000 1692644.01614554 3351.43529668
0.01100000 1690912.90379767 3043.64335935
0.01200000 1689018.69726510 4281.66258529
0.01300000 1686962.61746885 3896.88381822
0.01400000 1684744.68795920 5306.94600233
0.01500000 1682366.20758202 4441.44698579
0.01600000 1679826.70335335 5996.98159906
0.01700000 1677128.46323866 5433.89646465
0.01800000 1674271.46054863 6203.17604046
0.01900000 1671256.23367040 6016.52271269
0.02000000 1668084.02713731 5779.91141549
0.02100000 1664757.00220064 6592.43802761
0.02200000 1661273.51741523 9170.23023276
0.02300000 1657636.88935413 7160.99168797
0.02400000 1653846.69550216 7442.31046911
0.02500000 1649905.58866733 7078.09529864
0.02600000 1645813.35054559 7332.09881204
0.02700000 1641572.20997664 7584.06395745
0.02800000 1637182.03312797 9970.43903899
0.02900000 1632645.63560353 8816.28683705
0.03000000 1627963.95224240 9084.03927106
0.03100000 1623137.44595412 9349.27211889
0.03200000 1618167.93757406 10412.91115789
0.03300000 1613058.83068568 8226.60041575
0.03400000 1607808.26584110 10129.19254216
0.03500000 1602419.73002542 12979.60041258
0.03600000 1596894.51378219 12407.87094550
0.03700000 1591234.39992401 12698.05109865
0.03800000 1585440.69424577 12984.75988680
0.03900000 1579515.76043956 12320.22350198
0.04000000 1573459.17925163 9676.77440081
0.04100000 1567275.49279419 12835.98688114
0.04200000 1560965.01225975 11075.04727579
0.04300000 1554528.89181208 11285.88027842
0.04400000 1547970.67079623 13583.44326708
0.04500000 1541291.62475791 11698.40397548
0.04600000 1534491.96177893 14063.61948348
0.04700000 1527575.74457375 16497.81880868
0.04800000 1520543.68294605 16763.99488448
0.04900000 1513399.45316757 14755.64535522
0.05000000 1506142.40614971 17282.98491537
0.05100000 1498777.52206178 18704.74434667
0.05200000 1491303.03637888 13041.44566088
0.05300000 1483725.11348013 18027.26096918
0.05400000 1476043.10595455 12177.35619200
0.05500000 1468260.35153485 13566.72628106
0.05600000 1460377.62101630 16232.09801505
0.05700000 1452400.15078217 15163.05828196
0.05800000 1444326.59447575 12782.29095795
0.05900000 1436160.00678768 18095.61693070
0.06000000 1427904.12438478 16984.92035307
0.06100000 1419560.15697988 17162.48309991
0.06200000 1411130.38588240 13335.18276992
0.06300000 1402617.88615146 17504.67203761
0.06400000 1394021.71414705 13591.71234857
0.06500000 1385347.81658154 16457.93283085
0.06600000 1376597.10250221 13834.80152746
0.06700000 1367771.65539517 18136.65299932
0.06800000 1358873.99199619 25315.82365590
0.06900000 1349907.08349157 15591.42754430
0.07000000 1340871.74861490 15708.31327062
0.07100000 1331770.92851235 15821.43937177
0.07200000 1322607.27411293 24620.33556100
0.07300000 1313383.23908193 18952.12102797
0.07400000 1304101.67142796 16138.25894023
0.07500000 1294763.54838007 17712.36617206
0.07600000 1285370.12091079 17815.23071101
0.07700000 1275927.55160446 22392.52958061
0.07800000 1266435.27478240 24011.61393593
0.07900000 1256895.64130093 19607.57292396
0.08000000 1247312.65155778 21216.78919830
0.08100000 1237687.43731983 19790.62305128
0.08200000 1228021.87368887 16817.76034935
0.08300000 1218319.14914138 15350.82199963
0.08400000 1208581.51191903 15409.41500026
0.08500000 1198810.46688242 15464.65574877
0.08600000 1189008.95852570 17068.22440102
0.08700000 1179180.26680578 20234.73432856
0.08800000 1169323.97877888 17171.52343481
0.08900000 1159445.34718745 21913.51809111
0.09000000 1149544.55557642 15691.28392072
0.09100000 1139623.95379875 17299.49243142
0.09200000 1129686.32080419 17335.03740726
0.09300000 1119735.67375136 15788.27374182
0.09400000 1109769.37612633 17395.63578833
0.09500000 1099793.23559586 20588.13033805
0.09600000 1089808.46064385 19028.05661731
0.09700000 1079819.65726137 17460.68467879
0.09800000 1069825.73113797 15886.91285436
0.09900000 1059830.67986135 17487.20704000
0.10000000 1049834.36184117 17495.49046285
0.10100000 1039839.68312220 19091.45748003
0.10200000 1029849.72914918 17502.29697013
0.10300000 1019865.55134097 20682.87435413
0.10400000 1009890.52298411 23858.66472793
0.10500000 999926.72371076 17488.71922053
0.10600001 989971.70471983 22244.66525175
0.10700001 980033.54009787 15876.54409670
0.10800001 970109.96928299 20619.68836751
0.10900001 960205.18370795 23765.07941529
0.11000001 950319.60367468 22151.95100434
0.11100001 940455.42035667 17379.61698631
0.11200001 930614.50414816 17351.30824669
0.11300001 920798.49057659 17320.22042320
0.11400001 911009.63215483 18857.90027352
0.11500001 901249.97306080 20386.27535058
0.11600001 891519.74274938 20340.02388867
0.11700001 881822.78879054 20290.74332566
0.11800001 872157.44650631 17124.81226870
0.11900001 862527.12412646 20183.13565522
0.12000001 852932.86347495 17028.80542142
0.12100001 843379.37226758 20063.99621142
0.12200001 833864.36924402 24615.67733976
0.12300001 824391.55232452 16867.05195524
0.12400001 814959.83462474 22920.74642879
0.12500001 805572.06862394 18270.37537730
0.12600001 796231.41281547 21235.49278048
0.12700001 786936.84460384 19641.94456697
0.12800001 777689.70941454 15048.29658639
0.12900001 768493.02582777 17982.73765193
0.13000001 759347.05825923 19397.52151753
0.13100001 750251.81402033 17825.98394140
0.13200001 741210.80118631 19223.30303496
0.13300001 732223.92790554 17661.24197369
0.13400001 723291.79774614 19040.65747335
0.13500001 714416.76525957 16031.51296828
0.13600001 705599.05900636 15950.06748090
0.13700001 696840.45524096 23079.35696585
0.13800001 688139.28734887 21521.55722670
0.13900001 679500.82940669 22831.22894474
0.14000001 670922.28752700 24123.01198569
0.14100001 662407.59141013 18342.06707121
0.14200001 653955.17348007 19638.27478585
0.14300001 645568.20858863 15338.70135956
0.14400001 637242.42085529 15246.02563812
0.14500001 628985.52005356 17907.21860065
0.14600001 620793.65070454 13688.50064378
0.14700001 612670.28908841 17681.66537725
0.14800001 604612.20314077 13513.08337773
0.14900001 596623.33078901 17451.23324894
0.15000001 588702.73701901 16000.94114715
0.15100001 580852.12674188 14567.77202607
0.15200001 573072.22286934 19728.01220318
0.15300001 565362.66564422 23507.78074680
0.15400001 557721.96408531 15560.44353229
0.15500001 550154.54283425 12873.61690987
0.15600001 542657.05121921 12779.57415934
0.15700001 535234.59072811 16490.57851864
0.15800001 527881.19712000 17625.95400376
0.15900001 520603.01381478 14993.36750556
0.16000001 513395.44253047 12398.50052235
0.16100001 506263.35559290 14762.64014595
0.16200001 499204.44058366 15867.21389298
0.16300001 492218.63750357 13319.43695963
0.16400001 485307.27213079 19218.16888366
0.16500001 478469.26731132 13105.27385037
0.16600001 471706.41100659 17724.36923039
0.16700001 465016.09565842 19921.29047859
0.16800001 458400.42952793 18592.72229953
0.16900001 451860.87603466 12674.69817125
0.17000001 445393.58132115 11424.34590034
0.17100001 439001.44705273 15856.73301632
0.17200001 432682.92618744 12350.93471127
0.17300001 426439.12074315 15582.08620781
0.17400001 420269.55592107 15444.90690950
0.17500001 414173.10697611 14214.42170273
0.17600001 408149.32537489 10836.36510050
0.17700001 402202.15965311 13960.43762092
0.17800001 396326.31733615 11705.49833540
0.17900001 390523.26315344 11598.54146350
0.18000001 384795.04878321 12536.62328152
0.18100001 379139.48982437 14490.71198558
0.18200001 373554.28379469 10254.06557454
0.18300001 368042.13763136 14221.14886987
0.18400001 362601.55419631 12074.63232515
0.18500001 357233.01516841 12956.84207227
0.18600001 351935.80414893 11846.15972731
0.18700001 346708.38810206 13688.04780896
0.18800001 341550.13427836 10651.24144070
0.18900001 336465.43925643 11507.11856625
0.19000001 331445.99664908 10445.52107793
0.19100001 326498.47815157 9403.15661507
0.19200001 321617.75409104 11173.00130506
0.19300001 316807.33670884 14750.55029417
0.19400001 312062.56556918 10040.61352165
0.19500001 307386.04674566 9940.86522151
0.19600001 302774.59192356 11631.08649839
0.19700001 298231.50109969 9743.22360137
0.19800001 293752.54110709 10522.21651972
0.19900001 289338.96329296 9548.18623991
0.20000001 284988.36445990 10310.87951346
0.20100001 280703.63727522 11056.91679485
0.20200001 276480.55319924 9260.71656710
0.20300001 272320.91773271 8333.02047648
0.20400001 268223.51456884 8247.87346283
0.20500001 264186.76669516 9796.04577208
0.20600001 260210.87624578 8887.50289827
0.20700001 256295.38092898 9595.69951556
0.20800001 252439.00021065 10288.15193991
0.20900001 248643.72066697 10965.18859975
0.21000001 244903.98769512 10076.57505006
0.21100001 241223.27662427 8437.99061521
0.21200001 237598.32673516 10627.77365729
0.21300001 234029.72914371 10517.29652493
0.21400001 230517.13842500 10407.84929194
0.21500001 227060.42982962 9563.78575658
0.21600001 223656.35002963 7280.01453765
0.21700001 220306.51621896 8644.82810516
0.21800001 217009.62777331 8554.51993129
0.21900001 213763.86907553 9170.47041693
0.22000001 210569.25223122 9772.51945812
0.22100001 207426.91012191 6907.31643366
0.22200001 204334.37756250 7518.48377792
0.22300001 201290.51154270 6763.36150764
0.22400001 198294.66040716 8030.93412624
0.22500001 195349.10921837 9933.50267348
0.22600001 192448.91245455 7208.17435685
0.22700001 189596.42015349 7781.03745106
0.22800001 186788.90841559 7699.43916900
0.22900001 184026.40111653 6348.91113877
0.23000001 181308.97451478 7538.82751685
0.23100001 178636.47606347 6216.54966101
0.23200001 176005.31888249 6766.52480445
0.23300001 173417.91251147 7913.05972214
0.23400001 170870.90202915 7830.15945582
0.23500001 168365.36723612 7152.16113846
0.23600001 165900.55322574 6487.54144073
0.23700001 163475.42298482 6419.68016425
0.23800001 161089.24128349 8085.06940243
0.23900001 158741.82173652 6286.17643810
0.24000001 156431.34452938 6220.49270944
0.24100001 154159.41781081 9513.17812309
0.24200001 151923.79607374 6645.14715459
0.24300001 149723.53729074 7123.84624127
0.24400001 147558.46868281 8676.43836898
0.24500001 145427.71077493 6439.53933773
0.24600001 143331.13894592 5841.46084407
0.24700001 141268.82756456 6831.76082420
0.24800001 139238.72415469 5720.62325252
0.24900001 137239.59399432 6175.78202191
0.25000001 135273.59579380 6620.96645935
0.25100001 133337.78683607 7056.23601319
0.25200001 131434.28683028 7980.69027390
0.25300001 129558.88273428 5923.43239885
0.25400001 127714.14858172 4885.06641437
0.25500001 125896.16815178 5317.85439433
0.25600001 124108.36939625 5741.25343990
0.25700001 122347.17383957 7102.25377742
0.25800001 120613.10448412 9371.63866183
0.25900001 118906.88385861 5101.10555889
0.26000001 117225.70231056 5507.26375513
0.26100001 115570.17262544 5450.28959890
0.26200001 113940.72092554 6292.94631448
0.26300001 112334.81329076 4893.30469848
0.26400001 110753.91823705 5282.96214989
0.26500001 109196.84393308 5228.34513492
0.26600001 107662.49746677 4311.88322758
0.26700001 106151.49669598 5547.47747984
0.26800001 104663.17826559 4645.47538715
0.26900001 103196.02473848 4179.43919969
0.27000001 101750.97967777 5790.64852749
0.27100001 100326.97656087 5321.34308861
0.27200001 98924.21796439  4456.04160908
0.27300001 97541.83441914  4810.76350122
0.27400001 96177.93857456  4364.07416935
0.27500001 94835.77452662  5104.06162657
0.27600001 93510.81612986  5050.98697230
0.27700001 92206.57750558  5383.02024954
0.27800001 90919.63488444  4185.48558999
0.27900001 89651.48012692  5271.50728095
0.28000001 88400.55714637  3726.08366007
0.28100001 87167.59778864  7374.37912194
0.28200001 85952.37480187  6202.75342115
0.28300001 84753.90025705  5054.72285057
0.28400001 83571.27650784  4644.47391175
0.28500001 82405.77618904  4595.77035559
0.28600001 81255.91502425  3498.06730736
0.28700001 80122.76234712  5538.08559556
0.28800001 79003.28398338  4794.70953190
0.28900001 77901.16563041  4744.18121145
0.29000001 76813.05797239  5699.91323664
0.29100001 75740.27484531  4976.13629288
0.29200001 74681.63322060  4266.93531604
0.29300001 73637.85460297  5520.63022091
0.29400001 72607.34146589  5783.17502151
0.29500001 71591.94242971  3178.68239435
0.29600001 70589.05095363  3773.69084262
0.29700001 69600.20814328  4044.46828666
0.29800001 68624.84734706  4001.17191398
0.29900001 67663.07514770  3349.32237837
0.30000001 66713.17517307  3313.31000182
0.30100001 65777.16399830  2979.70567018
0.30200001 64852.75880957  3537.06963292
0.30300001 63941.70587318  3207.31611844
0.30400001 63042.66113929  3749.46244877
0.30500001 62156.32802839  3423.57070988
0.30600001 61280.71233861  3104.17463047
0.30700001 60418.01665167  4745.23125248
0.30800001 59566.78916099  3589.19705082
0.30900001 58727.48131969  4369.32481705
0.31000001 57899.69422742  2701.02086359
0.31100001 57082.72531719  3740.06033986
0.31200001 56278.02523623  3699.15477392
0.31300001 55483.64039541  3397.26346226
0.31400001 54701.79627285  3876.98999440
0.31500001 53929.23160977  2811.87026927
0.31600002 53169.33592779  2528.20204307
0.31700002 52419.26766449  3000.47902318
0.31800002 51679.79078213  3462.02934842
0.31900002 50951.66815970  2690.24820621
0.32000002 50234.42356152  3386.30265262
0.32100002 49526.93603380  2392.15112370
0.32200002 48831.01552710  2602.44909574
0.32300002 48144.02824211  2807.75986003
0.32400002 47468.52019946  2776.90856316
0.32500002 46802.66410758  3432.97557485
0.32600002 46147.28510601  3847.99155078
0.32700002 45502.18414341  2910.31983562
0.32800002 44868.12752850  2435.66641822
0.32900002 44242.15796114  2627.98430734
0.33000002 43627.40424181  2382.71079550
0.33100002 43021.63541666  2785.22080877
0.33200002 42427.41199319  2331.17426236
0.33300002 41842.14279012  2305.92059836
0.33400002 41267.18640181  2488.41145787
0.33500002 40701.83066073  2871.92130742
0.33600002 40145.78414760  2435.24338172
0.33700002 39599.46526428  2610.00087917
0.33800002 39063.61905076  3972.77024560
0.33900002 38536.54919829  2358.43692263
0.34000002 38019.16956812  2139.14867706
0.34100002 37511.66420718  2501.65300445
0.34200002 37014.17720593  2475.69335966
0.34300002 36525.26036951  2450.11458162
0.34400002 36046.67608445  2238.49869086
0.34500002 35577.08802211  2769.67643369
0.34600002 35117.63187410  2010.66010818
0.34700002 34666.07985669  1990.52639964
0.34800002 34224.85525749  1970.83838334
0.34900002 33792.43484233  2128.92349590
0.35000002 33369.67270080  2283.98735618
0.35100002 32956.64159725  1914.12183463
0.35200002 32551.17988211  2240.66057331
0.35300002 32156.25344712  2561.24570837
0.35400002 31769.41623428  2368.41009244
0.35500002 31392.24306224  2011.61503071
0.35600002 31023.71357451  2159.71592278
0.35700002 30663.88508969  2634.64113170
0.35800002 30313.52104474  1958.85982269
0.35900002 29972.33524184  1780.35679769
0.36000002 29639.58657893  1925.98042712
0.36100002 29315.04859999  2069.34937869
0.36200002 29000.80544659  1894.91271764
0.36300002 28693.62114168  2820.00921938
0.36400002 28395.76794878  1710.13520572
0.36500002 28105.66950392  2005.90172751
0.36600002 27824.95089341  1684.93998116
0.36700002 27552.03951722  1977.13444941
0.36800002 27288.43679321  1510.41504805
0.36900002 27032.72031336  2250.47407269
0.37000002 26784.66423067  1788.67996205
0.37100002 26544.98999401  2073.69471656
0.37200002 26313.99471981  1619.49488175
0.37300002 26090.73995233  1610.05963873
0.37400002 25875.33062819  2183.23112517
0.37500002 25667.99262552  2171.51227899
0.37600002 25468.83423456  1440.26264419
0.37700002 25277.08448583  1433.21075824
0.37800002 25092.88394321  1569.18357172
0.37900002 24917.37694588  1846.37771916
0.38000002 24748.40506523  1838.68284142
0.38100002 24586.30596855  1690.55447848
0.38200002 24432.82739639  1824.76580055
0.38300002 24286.03252729  1538.76309383
0.38400002 24146.57454161  2231.14359334
0.38500002 24013.73988399  1668.47472618
0.38600002 23888.93241744  2080.12888879
0.38700002 23770.09265160  1383.41945786
0.38800002 23658.10475391  1656.54057335
0.38900002 23552.93989708  2342.33998373
0.39000002 23455.02798178  1375.63745630
0.39100002 23362.70258230  2472.70855846
0.39200002 23277.78411125  1646.67052604
0.39300002 23198.34732433  1371.02239182
0.39400002 23126.46852508  1507.26765753
0.39500002 23059.31661769  1506.69581918
0.39600002 22998.53497748  1780.43166963
0.39700002 22943.10526919  1643.64413936
0.39800002 22894.74983973  1781.32609568
0.39900002 22850.83314997  2330.78509173
0.40000002 22813.11566400  1783.87166386
0.40100002 22780.35002846  1785.75172334
0.40200002 22753.45250905  1650.53552321
0.40300002 22731.53657182  1790.79053598
0.40400002 22714.79320105  1517.91612758
0.40500002 22702.60041476  2073.88264615
0.40600002 22696.25223932  1939.84877081
0.40700002 22694.00361287  1805.53501299
0.40800002 22696.19399669  1670.89388121
0.40900002 22702.76197360  2094.32989130
0.41000002 22714.40672500  1540.37756504
0.41100002 22729.98368865  1685.65567022
0.41200002 22748.78668242  1832.07362228
0.41300002 22773.12457787  1697.05332395
0.41400002 22800.40822843  1987.05567126
0.41500002 22831.46336043  1567.15171932
0.41600002 22865.23944932  1430.22079532
0.41700002 22904.02684919  2154.12382724
0.41800002 22946.62403454  2163.29308336
0.41900002 22990.50762728  2027.76286881
0.42000002 23038.19905558  2036.80727502
0.42100002 23089.75475875  1753.89785458
0.42200002 23143.53767990  1908.99479598
0.42300002 23199.84354670  1475.51011949
0.42400002 23258.66395933  1631.01388743
0.42500002 23320.71468938  1788.23248712
0.42600002 23383.75054151  1647.50222247
0.42700002 23450.17912233  2107.70219939
0.42800002 23517.98560090  1664.72068965
0.42900002 23588.81348321  1673.62639594
0.43000002 23661.35971163  2294.56046677
0.43100002 23734.03010368  1537.96522360
0.43200002 23809.62012439  2010.36537047
0.43300002 23886.11749371  1554.98632253
0.43400002 23964.45055897  2658.25680422
0.43500002 24043.38359225  1729.68109759
0.43600002 24124.31926260  2530.15872416
0.43700002 24205.48596250  1749.33055341
0.43800002 24287.19949483  1599.31216252
0.43900002 24370.68080836  1769.31151053
0.44000002 24454.08471897  1617.63778082
0.44100002 24538.38557647  1789.58454490
0.44200002 24622.97901200  1799.81673618
0.44300002 24708.05763219  2139.22373117
0.44400002 24793.13333651  2316.91842010
0.44500002 24877.88013212  1664.33025971
0.44600002 24962.51748750  1673.73687686
0.44700002 25048.10219187  1851.55580177
0.44800002 25132.22259707  1861.92079934
0.44900002 25216.77822490  1872.34587193
0.45000002 25301.20883761  2053.95223078
0.45100002 25384.19187500  2581.57243603
0.45200002 25467.03552126  2076.58217482
0.45300002 25548.72150809  2087.84162059
0.45400002 25629.88479030  2448.93560778
0.45500002 25710.44727544  2110.31361238
0.45600002 25789.44951023  1767.86684771
0.45700002 25867.80353895  2132.54182482
0.45800002 25944.57808835  2143.54114325
0.45900002 26019.97130899  1974.91591595
0.46000002 26094.62729355  1984.88791916
0.46100002 26166.88037052  1994.70138518
0.46200002 26238.42273322  2186.71025423
0.46300002 26308.31557582  2197.27062103
0.46400002 26375.95439471  2207.66748747
0.46500002 26442.98895613  3142.22052658
0.46600002 26507.15863453  2599.55717050
0.46700002 26569.41910059  1865.17330926
0.46800002 26630.72709709  2622.86043611
0.46900002 26689.04527169  2257.89333700
0.47000002 26745.57879855  2078.53275484
0.47100002 26800.23792640  2087.20262864
0.47200002 26852.86708969  3238.85871754
0.47300002 26903.21689513  2677.94633667
0.47400002 26950.53833062  2496.29373119
0.47500002 26996.08150822  2891.28046657
0.47600002 27039.94506759  2321.64979354
0.47700002 27080.26235380  2524.15137364
