# SAXS profile: number of points = 501, q_min = 0, q_max = 0.5, delta_q = 0.001
#    q    intensity    error
0.00000000 1682732.95097188 353.37391970
0.00100000 1682650.53006338 656.23372231
0.00200000 1682403.20352305 984.20590523
0.00300000 1681991.20815986 1009.19476085
0.00400000 1681414.39996423 1639.37910226
0.00500000 1680673.29665894 1663.86662955
0.00600000 1679767.80514503 1940.13189393
0.00700000 1678698.48469677 2417.32591843
0.00800000 1677465.20588498 2491.03593591
0.00900000 1676069.09214737 3268.33486940
0.01000000 1674509.65892798 3039.23516219
0.01100000 1672788.07421025 3011.01866468
0.01200000 1670904.31865918 4887.39534636
0.01300000 1668859.59762841 4555.98690247
0.01400000 1666653.92206969 4124.96863999
0.01500000 1664288.59926446 4793.15137932
0.01600000 1661763.15312034 5932.49472184
0.01700000 1659079.84391961 4927.46735748
0.01800000 1656238.66653228 4720.28041202
0.01900000 1653240.16503002 8431.52522211
0.02000000 1650085.57743610 5717.54678445
0.02100000 1646777.05776192 7064.67389810
0.02200000 1643312.94674926 9071.08787818
0.02300000 1639696.63111476 6493.19895477
0.02400000 1635927.57367280 7975.14728530
0.02500000 1632008.44559643 7001.31655136
0.02600000 1627939.09287218 7252.46899046
0.02700000 1623721.77380782 8183.55811481
0.02800000 1619356.23742322 8453.03994700
0.02900000 1614845.25966642 9446.84520279
0.03000000 1610189.93674278 9733.59861502
0.03100000 1605390.65396040 8476.46304294
0.03200000 1600449.15596083 8714.44605558
0.03300000 1595368.92985125 10577.29649253
0.03400000 1590148.20500093 10852.76199988
0.03500000 1584790.25474594 10269.44132498
0.03600000 1579296.45239933 12271.13400224
0.03700000 1573668.57673294 10763.89356266
0.03800000 1567907.97287036 9172.26206578
0.03900000 1562016.90880568 11246.52226423
0.04000000 1555995.09005513 10526.30727200
0.04100000 1549846.91173820 15622.45759468
0.04200000 1543572.77882545 11947.25386238
0.04300000 1537173.76523949 13188.95151796
0.04400000 1530653.45333705 14464.67580580
0.04500000 1524013.20379468 12618.82991375
0.04600000 1517253.07208242 10696.63465543
0.04700000 1510377.11219328 14137.13042762
0.04800000 1503386.21211679 13259.86700783
0.04900000 1496283.74761582 12344.34149243
0.05000000 1489069.36161045 14808.79549080
0.05100000 1481747.79460555 12713.39666996
0.05200000 1474317.50276122 17581.23703974
0.05300000 1466784.43728502 13069.04994546
0.05400000 1459148.02918400 15649.36334279
0.05500000 1451411.73401593 20726.16052861
0.05600000 1443575.96687859 18513.86263915
0.05700000 1435646.26448634 13739.13539246
0.05800000 1427621.38983949 15161.33986801
0.05900000 1419503.90579165 12775.53574882
0.06000000 1411297.98244742 18078.72799977
0.06100000 1403004.63259213 14352.73806214
0.06200000 1394626.19275441 13179.21813757
0.06300000 1386165.79249584 17299.34989918
0.06400000 1377622.23374054 13431.81740713
0.06500000 1369001.64624703 14908.42862501
0.06600000 1360305.05191917 20506.59961716
0.06700000 1351534.09700458 19299.90780844
0.06800000 1342691.81289635 13896.86091398
0.06900000 1333780.92886327 18206.11053137
0.07000000 1324802.25233247 15520.05911286
0.07100000 1315758.59344936 17052.23216979
0.07200000 1306652.77886590 17169.41831863
0.07300000 1297487.21751421 15842.31966815
0.07400000 1288264.67300111 15942.27607551
0.07500000 1278986.15035123 14580.44279743
0.07600000 1269653.02770106 14664.49315743
0.07700000 1260271.15994047 16219.69058895
0.07800000 1250840.38297202 16304.70515667
0.07900000 1241362.66402310 22344.52900046
0.08000000 1231842.26286036 19456.94945463
0.08100000 1222279.92991019 19544.25699625
0.08200000 1212677.95541800 15097.84125342
0.08300000 1203039.42706185 22737.44623858
0.08400000 1193366.30145466 16736.96316351
0.08500000 1183660.63335139 16796.14517575
0.08600000 1173924.72189116 16851.69017396
0.08700000 1164162.01156442 16903.63320167
0.08800000 1154372.48114400 15410.87334703
0.08900000 1144561.08783548 16996.73295269
0.09000000 1134727.81336667 17037.93891807
0.09100000 1124875.30272966 17075.60789767
0.09200000 1115006.15732595 17109.77028810
0.09300000 1105124.52530937 20256.93350084
0.09400000 1095227.68847032 15606.99529419
0.09500000 1085321.38649177 21880.08018010
0.09600000 1075406.81050813 20341.32077696
0.09700000 1065488.60365053 23494.02481501
0.09800000 1055565.77573274 15675.15250664
0.09900000 1045642.19378397 18821.56037315
0.10000000 1035717.64082372 17260.23529603
0.10100000 1025795.25039221 15694.66806915
0.10200000 1015877.98219929 21973.44178852
0.10300000 1005966.75679310 18831.69857302
0.10400000 996064.97290418 26669.64090419
0.10500000 986174.84588900 20384.23502359
0.10600001 976293.92325446 18803.42184665
0.10700001 966429.85557122 15656.16439700
0.10800001 956581.07000013 26588.17209194
0.10900001 946751.28633760 18745.67635176
0.11000001 936940.74386576 20280.08335555
0.11100001 927152.07322200 24921.84890136
0.11200001 917386.90852987 18659.65059794
0.11300001 907646.81352891 17072.83736628
0.11400001 897934.31130176 24782.98815882
0.11500001 888251.15932563 18546.68508005
0.11600001 878597.87338138 21587.15076555
0.11700001 868977.83425635 21533.27174698
0.11800001 859389.85175222 18408.13149152
0.11900001 849837.02736893 22945.60081974
0.12000001 840320.42103719 15251.81636026
0.12100001 830844.68595855 16724.90431622
0.12200001 821408.00796361 15154.97846090
0.12300001 812013.03871544 16613.78755487
0.12400001 802659.86618079 16554.86052000
0.12500001 793350.74800406 17993.19581258
0.12600001 784088.71266234 19417.95788412
0.12700001 774872.96727705 20828.58634198
0.12800001 765704.92430931 17779.66918040
0.12900001 756587.25758737 14753.45221831
0.13000001 747520.52584000 19095.41273264
0.13100001 738504.90194205 23395.83639635
0.13200001 729543.07879538 17465.26212968
0.13300001 720635.78680960 17381.73599727
0.13400001 711783.36360974 15854.97517190
0.13500001 702987.95058707 17209.14584175
0.13600001 694249.92319224 14266.83659429
0.13700001 685571.20349310 17029.58949777
0.13800001 676950.07029875 16937.29155757
0.13900001 668391.35968117 14036.21921523
0.14000001 659892.65165082 20935.09536093
0.14100001 651457.94158014 13876.05481009
0.14200001 643085.56755213 16553.02328952
0.14300001 634778.36391886 16453.45596885
0.14400001 626532.70853458 13627.08705342
0.14500001 618355.56607435 14896.18628942
0.14600001 610243.69358530 14801.46148616
0.14700001 602200.23635842 16042.61505342
0.14800001 594221.75879858 15937.02832287
0.14900001 586312.83699011 21107.26312750
0.15000001 578472.11678509 15722.87287607
0.15100001 570701.04452670 14313.18287210
0.15200001 563000.71172128 12920.86694370
0.15300001 555370.62685334 15394.87450284
0.15400001 547809.47742875 17831.19933178
0.15500001 540321.37637005 16436.57704487
0.15600001 532903.21673391 16314.83275029
0.15700001 525559.72570809 12455.76608715
0.15800001 518285.47848140 19777.77479234
0.15900001 511086.21543832 15945.89067433
0.16000001 503957.39711837 12170.57171489
0.16100001 496904.00864953 13282.24477818
0.16200001 489923.68210014 17967.95188922
0.16300001 483016.23685387 13070.41998629
0.16400001 476183.01289477 12964.08313809
0.16500001 469422.94563653 12857.49508800
0.16600001 462737.76804002 11591.58163668
0.16700001 456125.20409693 18390.96909751
0.16800001 449587.13217495 14816.14464039
0.16900001 443124.61913854 13559.61398590
0.17000001 436734.32786101 13442.68324632
0.17100001 430418.97633159 15546.73415923
0.17200001 424177.24896996 16511.10019586
0.17300001 418009.69403946 12001.05888262
0.17400001 411916.44537283 12975.36864202
0.17500001 405895.93790658 10715.65326681
0.17600001 399947.76771337 16989.78197488
0.17700001 394076.02678237 12626.19649445
0.17800001 388275.48026239 14595.27599243
0.17900001 382547.43382703 12394.53744143
0.18000001 376893.64109584 11255.92912300
0.18100001 371312.48764962 12164.19767000
0.18200001 365801.51194458 13053.62757037
0.18300001 360363.05350488 10940.62282124
0.18400001 354996.12112854 12806.48567470
0.18500001 349700.83971109 9756.65388886
0.18600001 344476.52330786 10628.82362881
0.18700001 339321.85094188 9568.87664864
0.18800001 334235.94397870 10423.14840543
0.18900001 329223.22279363 11259.43475152
0.19000001 324275.36596213 12077.63657591
0.19100001 319399.23198383 15637.78713681
0.19200001 314589.61588406 10928.84377221
0.19300001 309849.84211174 9918.29391466
0.19400001 305175.36458674 10711.65580316
0.19500001 300568.74375924 10604.06578092
0.19600001 296027.07504445 9622.36052904
0.19700001 291553.20772782 10390.95681447
0.19800001 287143.14135557 11142.59012689
0.19900001 282798.18759125 8483.94602869
0.20000001 278515.76821633 11756.15113202
0.20100001 274298.78725717 10804.62974071
0.20200001 270143.14520845 9871.03099246
0.20300001 266050.52085845 9769.37558767
0.20400001 262019.92402462 11279.95826242
0.20500001 258049.43503376 10365.84629527
0.20600001 254139.43785593 10258.33889395
0.20700001 250289.46371967 10151.74112833
0.20800001 246498.17590949 9273.26181606
0.20900001 242767.63056811 8411.89879683
0.21000001 239092.16778207 9837.44770843
0.21100001 235475.22223453 9734.54614736
0.21200001 231913.88081159 11114.47326333
0.21300001 228408.30955521 8798.28850001
0.21400001 224958.31011300 9431.37759737
0.21500001 221563.81934208 8614.40170329
0.21600001 218221.42022916 7103.10756428
0.21700001 214933.03504451 8433.97269390
0.21800001 211696.97337760 7649.67049468
0.21900001 208511.88012763 8257.07084346
0.22000001 205377.32262632 6808.25856697
0.22100001 202294.64193643 10778.25903201
0.22200001 199261.16480187 10664.45804446
0.22300001 196276.05140338 8573.33833069
0.22400001 193338.66697597 8482.73441469
0.22500001 190450.87386104 7101.91342211
0.22600001 187608.16604333 8943.28169820
0.22700001 184812.52846262 8848.82428124
0.22800001 182061.61185660 7504.57999562
0.22900001 179355.13773355 9900.40407109
0.23000001 176693.27173280 6734.66437059
0.23100001 174075.91046603 7269.41036485
0.23200001 171499.44947996 6593.29664708
0.23300001 168966.19099281 6523.78494277
0.23400001 166473.13980300 8215.44983783
0.23500001 164020.85099025 5806.33839967
0.23600001 161608.76457432 7468.74940805
0.23700001 159236.24118976 7958.62771109
0.23800001 156901.94247407 10124.88282675
0.23900001 154606.02074504 6678.98041210
0.24000001 152346.55351196 6058.06098695
0.24100001 150125.13479795 7084.40544622
0.24200001 147939.67095977 7549.36176618
0.24300001 145788.99656203 6403.05303189
0.24400001 143673.12031243 7919.98113187
0.24500001 141591.12907818 5747.18420115
0.24600001 139542.85773992 5687.06943622
0.24700001 137528.18498655 7162.46821293
0.24800001 135545.38036574 6075.14423539
0.24900001 133593.18664132 6011.69368326
0.25000001 131673.53911919 6444.76167708
0.25100001 129783.71980909 4905.82484087
0.25200001 127925.53070062 5340.25153174
0.25300001 126095.27419696 6245.49922645
0.25400001 124295.06907990 5705.14394068
0.25500001 122521.24800024 5175.29776038
0.25600001 120776.94197153 4655.95133329
0.25700001 119058.90479639 5068.33781698
0.25800001 117367.61339618 5015.70519580
0.25900001 115703.59312467 5866.17244898
0.26000001 114064.29647944 5358.74090216
0.26100001 112449.98354426 4861.21301863
0.26200001 110861.53967476 6560.23192066
0.26300001 109295.99532394 5626.55810551
0.26400001 107755.09002984 5139.91803763
0.26500001 106237.57446690 5510.54324835
0.26600001 104742.32404967 5872.90238737
0.26700001 103269.93277681 7887.75783874
0.26800001 101819.79300315 5751.80037893
0.26900001 100390.40176489 4472.39261027
0.27000001 98982.78375345  4828.38041998
0.27100001 97595.59432517  4778.28052428
0.27200001 96229.34445573  5516.82857872
0.27300001 94882.81835726  5459.55762665
0.27400001 93554.61981712  6174.60520014
0.27500001 92247.52656913  4200.95255877
0.27600001 90957.18322743  4157.19825615
0.27700001 89687.23109304  4487.94925629
0.27800001 88434.18093075  4441.16477653
0.27900001 87199.41407839  4028.61312109
0.28000001 85981.59429863  3986.53680833
0.28100001 84781.31060672  5737.99937344
0.28200001 83598.19575898  3903.61793572
0.28300001 82431.47125205  4565.05509400
0.28400001 81280.23931937  4517.14951397
0.28500001 80145.62358054  4469.72163864
0.28600001 79026.36621787  3742.29374938
0.28700001 77923.32355872  5722.68915302
0.28800001 76833.66096291  4329.96116852
0.28900001 75760.79339770  3625.15413567
0.29000001 74701.67184791  4238.94656966
0.29100001 73657.46334462  4516.67586609
0.29200001 72627.03106324  4149.54561622
0.29300001 71611.00084865  3473.84981561
0.29400001 70607.88554944  3436.83899181
0.29500001 69619.61026253  4327.55517877
0.29600001 68643.31453866  5504.50765343
0.29700001 67680.69682047  3630.39274931
0.29800001 66731.27982885  4489.34706300
0.29900001 65795.02536035  4441.16442206
0.30000001 64870.34511263  3221.78584254
0.30100001 63959.13925316  4056.28880346
0.30200001 63059.24613232  3725.85573411
0.30300001 62172.27723862  3118.56157393
0.30400001 61296.97069726  4486.93846746
0.30500001 60434.12565587  3328.71179871
0.30600001 59581.54136007  3292.47613143
0.30700001 58741.65478011  3799.41041105
0.30800001 57912.79411733  2684.25813442
0.30900001 57095.50481874  3451.42342970
0.31000001 56289.35612413  4464.02759877
0.31100001 55493.89760919  3895.67179661
0.31200001 54710.25041877  2825.51101665
0.31300001 53936.66337185  3556.58375113
0.31400001 53175.28418022  3266.29198542
0.31500001 52422.98508384  2981.81953275
0.31600002 51682.85821558  2703.27202696
0.31700002 50952.33864601  2916.51200219
0.31800002 50232.09873020  3124.68784946
0.31900002 49522.86307217  2852.51704802
0.32000002 48824.16508994  2821.06039247
0.32100002 48135.10139025  3022.40315940
0.32200002 47457.22761953  3678.88445926
0.32300002 46787.93622453  2273.89380818
0.32400002 46129.85378272  2473.71352623
0.32500002 45481.32519208  3113.65167009
0.32600002 44842.92819353  3299.31859807
0.32700002 44214.44681143  3480.56141781
0.32800002 43596.84862846  2581.80549803
0.32900002 42987.00360471  2978.99949087
0.33000002 42388.21401510  2315.03241806
0.33100002 41798.06608446  2289.69816853
0.33200002 41219.20651780  2058.89946306
0.33300002 40649.10236718  2443.82415004
0.33400002 40089.15233305  3223.16800021
0.33500002 39538.51253208  2192.01523858
0.33600002 38996.76713889  2168.41533945
0.33700002 38464.70287710  2145.17658104
0.33800002 37942.90192551  3279.97431228
0.33900002 37429.48486117  2290.68458199
0.34000002 36925.73891748  2266.50196209
0.34100002 36431.41640137  2242.71809988
0.34200002 35947.02747823  2589.26451188
0.34300002 35471.10731191  2562.43291357
0.34400002 35005.21653876  2173.82405001
0.34500002 34548.11580248  2510.26621309
0.34600002 34100.83697570  2129.93837838
0.34700002 33661.51125227  1932.84406765
0.34800002 33232.09768196  2435.58055446
0.34900002 32811.45472095  1894.86159988
0.35000002 32400.13168275  2047.04041667
0.35100002 31998.47451998  2027.42344161
0.35200002 31604.21556091  2342.82061049
0.35300002 31220.27779444  1989.35619528
0.35400002 30844.35937874  2627.93954354
0.35500002 30477.90686475  1627.52030366
0.35600002 30119.77399242  1612.91397369
0.35700002 29770.33237609  1598.66692432
0.35800002 29430.07609531  1901.77160736
0.35900002 29098.96326825  2042.74731819
0.36000002 28776.03915920  1714.04485371
0.36100002 28461.28423064  1854.53736831
0.36200002 28156.50641499  1686.43403161
0.36300002 27858.79879106  1825.30858325
0.36400002 27570.30350692  1811.36902620
0.36500002 27289.28749200  1498.18195428
0.36600002 27017.60568945  1636.05119002
0.36700002 26753.61272849  2067.51928959
0.36800002 26498.82541759  1906.72307324
0.36900002 26251.72465179  1602.66786591
0.37000002 26012.30325720  1447.58474483
0.37100002 25781.00315258  1726.29605287
0.37200002 25558.29131365  2001.98105343
0.37300002 25343.26265740  1563.93281267
0.37400002 25135.95789058  2545.01585698
0.37500002 24936.65587709  1547.07020390
0.37600002 24745.30674206  1539.28187881
0.37700002 24561.31437197  2088.93988629
0.37800002 24384.85867493  1802.16306574
0.37900002 24216.90360751  1380.36357102
0.38000002 24055.50483324  1649.72659962
0.38100002 23900.77794201  2054.27196143
0.38200002 23754.67010290  2047.05879309
0.38300002 23614.99848828  2176.35836378
0.38400002 23482.73212167  2169.80455084
0.38500002 23356.96563412  1758.07888657
0.38600002 23239.15596654  1618.83968132
0.38700002 23127.24529362  2019.00860978
0.38800002 23022.15243160  2015.01398704
0.38900002 22923.84656692  1609.25410524
0.39000002 22832.58535829  1606.95743365
0.39100002 22747.00503017  1605.02875097
0.39200002 22668.55844499  1469.94274201
0.39300002 22595.68875695  1468.94579568
0.39400002 22530.25235619  1334.91751535
0.39500002 22469.62416894  1735.10446053
0.39600002 22415.14758117  2002.23315255
0.39700002 22366.07320840  1602.30556056
0.39800002 22323.92096292  1736.91275281
0.39900002 22286.23378670  1470.89149961
0.40000002 22254.69486167  1472.48195529
0.40100002 22228.11303975  2010.53291970
0.40200002 22207.26812747  1342.42942191
0.40300002 22191.40318501  1479.27900640
0.40400002 22180.63016254  1616.96801546
0.40500002 22174.37747847  1485.46161766
0.40600002 22174.02762720  2030.58667617
0.40700002 22177.59708248  1628.72280691
0.40800002 22185.69268456  1633.31077283
0.40900002 22198.00153390  1365.17715902
0.41000002 22215.46558028  1780.45857329
0.41100002 22236.75808878  1786.50122950
0.41200002 22261.34000682  1654.90809452
0.41300002 22291.37792396  1522.72409814
0.41400002 22324.36349928  2084.53754052
0.41500002 22361.10702900  1534.86645920
0.41600002 22400.60289248  1821.50511051
0.41700002 22444.97393581  1829.48991220
0.41800002 22493.15162271  1413.69464647
0.41900002 22542.63716453  1846.24207126
0.42000002 22595.94832598  1997.70788616
0.42100002 22652.93339720  1577.32382719
0.42200002 22712.36346475  1729.31943615
0.42300002 22774.12208048  1738.12107954
0.42400002 22838.50047992  2038.33626442
0.42500002 22906.00709896  2049.17149218
0.42600002 22974.49802079  1618.66833476
0.42700002 23046.49896832  1775.50236465
0.42800002 23119.76789874  1487.75713478
0.42900002 23195.97243613  1496.14029303
0.43000002 23273.96007447  1805.59390814
0.43100002 23352.04514517  2572.46141509
0.43200002 23433.08512803  1521.97895119
0.43300002 23514.96302116  1530.82416522
0.43400002 23598.75534360  1847.78263097
0.43500002 23683.03081883  2478.19246232
0.43600002 23769.39931574  2648.74313827
0.43700002 23855.96643154  1724.07077571
0.43800002 23943.00792328  1734.31186111
0.43900002 24031.89248896  1903.32597532
0.44000002 24120.69991343  1755.14281238
0.44100002 24210.38388138  1926.17823288
0.44200002 24300.36269217  2422.13876613
0.44300002 24390.82341065  3086.41494065
0.44400002 24481.26819580  1797.53720246
0.44500002 24571.33696856  1643.82252110
0.44600002 24661.35735753  2480.31613378
0.44700002 24752.26695468  2162.35814364
0.44800002 24841.82079262  2007.71605161
0.44900002 24931.69990817  1682.88982356
0.45000002 25021.46336666  2200.51270007
0.45100002 25109.73349296  2383.41601611
0.45200002 25197.87421893  1883.41519775
0.45300002 25284.92862956  2238.47483766
0.45400002 25371.41196599  2077.91873849
0.45500002 25457.30893285  1915.40801489
0.45600002 25541.60966371  2101.05291051
0.45700002 25625.27487339  2464.63905413
0.45800002 25707.35159654  2123.94148957
0.45900002 25788.08116209  2847.00429523
0.46000002 25868.07494090  1967.65521364
0.46100002 25945.67390848  2697.05293061
0.46200002 26022.53500106  1987.99165563
0.46300002 26097.62605265  2542.95280309
0.46400002 26170.57365815  2190.47711901
0.46500002 26242.86782830  2568.12716739
0.46600002 26312.31634227  2580.44898599
0.46700002 26379.88301850  1851.86787567
0.46800002 26446.38606404  3534.95636079
0.46900002 26509.98118763  2055.84913854
0.47000002 26571.79830245  2252.75716685
0.47100002 26631.63864761  2074.07211618
0.47200002 26689.52876239  3029.79544871
0.47300002 26745.01230161  2852.35569716
0.47400002 26797.54750190  2482.12295501
0.47500002 26848.29806576  2108.66543003
0.47600002 26897.38031156  2501.85994826
0.47700002 26942.79374987  2897.69760514
