# SAXS profile: number of points = 501, q_min = 0, q_max = 0.5, delta_q = 0.001
#    q    intensity    error
0.00000000 1682732.95097189 277.65093691
0.00100000 1682650.52709655 555.27468713
0.00200000 1682403.19137643 832.78960610
0.00300000 1681991.18287283 1009.19474567
0.00400000 1681414.35446914 1513.27297652
0.00500000 1680673.21959988 2117.64834051
0.00600000 1679767.69933078 1763.75615610
0.00700000 1678698.34449083 2417.32571653
0.00800000 1677465.01972823 2943.95123392
0.00900000 1676068.84815772 3268.33439362
0.01000000 1674509.37209920 3315.52869992
0.01100000 1672787.72957677 3613.22165320
0.01200000 1670903.90124289 4561.56785039
0.01300000 1668859.09865506 3855.06468792
0.01400000 1666653.35169429 3749.97020755
0.01500000 1664287.93971988 4393.72035651
0.01600000 1661762.41256820 5084.99320978
0.01700000 1659078.99414807 7167.22157623
0.01800000 1656237.73188115 6608.38884757
0.01900000 1653239.11434352 5455.68932351
0.02000000 1650084.42911741 6237.31942421
0.02100000 1646775.80479804 5434.36040222
0.02200000 1643311.53253970 5669.42504484
0.02300000 1639695.14315180 7083.48334084
0.02400000 1635925.94069823 7975.13932455
0.02500000 1632006.65938496 7001.30888852
0.02600000 1627937.18026673 6593.14588164
0.02700000 1623719.70194406 7501.58536656
0.02800000 1619354.01438027 7748.60931416
0.02900000 1614842.89143028 7266.79334509
0.03000000 1610187.40243075 8236.10894201
0.03100000 1605387.95016165 8476.44876688
0.03200000 1600446.28928018 8714.43044650
0.03300000 1595365.90977329 13831.82307539
0.03400000 1590145.04357626 12522.39279595
0.03500000 1584786.91458156 11980.98962750
0.03600000 1579292.90041078 9641.58360258
0.03700000 1573664.82398502 9866.87890270
0.03800000 1567904.00541648 9172.23885617
0.03900000 1562012.77581965 13120.90792451
0.04000000 1555990.78253576 11483.21250723
0.04100000 1549842.38631154 12693.20973243
0.04200000 1543567.99863424 11947.21686369
0.04300000 1537168.85925546 15217.97241302
0.04400000 1530648.33786294 20663.75352081
0.04500000 1524007.80982161 10515.65437638
0.04600000 1517247.47053650 12835.91419744
0.04700000 1510371.32873217 15224.54370168
0.04800000 1503380.23315019 13259.81427334
0.04900000 1496277.52599171 16833.12295095
0.05000000 1489062.86730346 12530.46461185
0.05100000 1481741.11647505 12713.33937159
0.05200000 1474310.53795050 12892.84625520
0.05300000 1466777.27692715 13068.98614667
0.05400000 1459140.68238879 20464.44902484
0.05500000 1451404.08203138 18287.69228670
0.05600000 1443568.10541105 17279.51102810
0.05700000 1435638.18652556 12490.05280579
0.05800000 1427613.06787132 15161.25148871
0.05900000 1419495.34489172 16608.09631093
0.06000000 1411289.19756577 12913.29676102
0.06100000 1402995.61608351 15657.43180719
0.06200000 1394616.89634025 18450.78240104
0.06300000 1386156.27738496 13307.10088507
0.06400000 1377612.51332075 18804.41168625
0.06500000 1368991.66787147 17618.92358968
0.06600000 1360294.79898673 13670.96336946
0.06700000 1351523.65103992 15164.09607433
0.06800000 1342681.10633509 15286.42511117
0.06900000 1333770.04218226 16805.50331831
0.07000000 1324790.97491577 16930.82945227
0.07100000 1315747.19003608 18473.09141334
0.07200000 1306641.08884998 14307.72059318
0.07300000 1297475.29837592 17282.37178414
0.07400000 1288252.52579432 15942.12575382
0.07500000 1278973.78183643 16038.33197599
0.07600000 1269640.49811992 20530.08781706
0.07700000 1260258.34381266 16219.52564538
0.07800000 1250827.34540657 22233.45710727
0.07900000 1241349.41093010 20854.67108179
0.08000000 1231828.77672642 16463.39237326
0.08100000 1222266.30749055 15033.87628750
0.08200000 1212664.00930741 22646.50143651
0.08300000 1203025.29647589 18189.74333640
0.08400000 1193351.99979624 15215.23871158
0.08500000 1183646.11903304 24430.45704373
0.08600000 1173909.90004386 16851.47740633
0.08700000 1164147.07020155 19976.76466272
0.08800000 1154357.35272612 18492.80565916
0.08900000 1144545.67059886 15451.36727883
0.09000000 1134712.30682193 18586.58845886
0.09100000 1124859.60882578 18627.67599730
0.09200000 1114990.16840237 24886.58172808
0.09300000 1105108.41790522 24931.24707951
0.09400000 1095211.41095038 18728.11600743
0.09500000 1085304.93646553 20316.90936558
0.09600000 1075390.21130732 17211.62114105
0.09700000 1065471.79383388 17228.67971626
0.09800000 1055548.69645734 20377.36854321
0.09900000 1045625.13948544 18821.25339576
0.10000000 1035700.41195036 23536.29296842
0.10100000 1025777.97438084 17263.84412078
0.10200000 1015860.44802943 20403.55805838
0.10300000 1005948.99744230 18831.36611796
0.10400000 996047.17104559 21962.84115480
0.10500000 986157.04058795 20383.86698800
0.10600001 976275.86382386 20369.99685717
0.10700001 966411.70781249 17221.45744362
0.10800001 956562.76389049 17203.78211821
0.10900001 946732.89744067 15621.09354299
0.11000001 936922.17857128 23399.63251123
0.11100001 927133.51669868 17133.42819512
0.11200001 917368.25326798 15549.39262491
0.11300001 907628.18317519 21728.61972821
0.11400001 897915.49391710 29429.18169879
0.11500001 888232.36312996 18546.29261546
0.11600001 878579.04669619 20044.78189431
0.11700001 868958.84408992 23070.85839711
0.11800001 859370.80859111 21475.67751816
0.11900001 849817.94546848 19885.74086061
0.12000001 840301.39529659 21352.05946027
0.12100001 830825.62310134 18244.93154279
0.12200001 821388.85387463 18185.55008153
0.12300001 811993.91135248 15103.08746273
0.12400001 802640.69787935 18059.41655320
0.12500001 793331.52990847 23990.34659487
0.12600001 784069.59214354 17923.83172103
0.12700001 774853.75711367 16364.91212146
0.12800001 765685.75900263 16297.62214847
0.12900001 756568.23883882 14753.08135270
0.13000001 747501.50573759 19094.92686410
0.13100001 738485.82114193 24857.43391136
0.13200001 729524.05758591 14554.00563492
0.13300001 720616.93081551 17381.28119068
0.13400001 711764.38806121 20178.52135286
0.13500001 702969.13586236 17208.68525727
0.13600001 694231.06622283 14266.44908355
0.13700001 685552.44941287 15610.03000920
0.13800001 676931.36282419 18348.22545457
0.13900001 668372.77216882 19650.16042843
0.14000001 659874.26684061 19538.87796262
0.14100001 651439.63393480 18038.36431440
0.14200001 643067.33085541 17931.93336667
0.14300001 634760.21101320 16452.98544551
0.14400001 626514.77967947 14989.36681088
0.14500001 618337.70297949 18958.23486765
0.14600001 610225.97725748 20183.22514992
0.14700001 602182.65488588 16042.14668297
0.14800001 594204.31533861 18592.65390412
0.14900001 586295.58231110 19787.47683659
0.15000001 578455.04352038 14412.20808932
0.15100001 570683.98623790 13011.59550018
0.15200001 562984.03875741 15504.58115899
0.15300001 555353.98410725 14111.54540208
0.15400001 547793.14135985 15283.42936518
0.15500001 540305.10316475 15171.76801287
0.15600001 532887.15097436 20079.18879635
0.15700001 525543.93868983 14946.47032176
0.15800001 518269.87254743 16068.95815677
0.15900001 511070.87175589 14718.84180131
0.16000001 503942.16283110 13387.22418752
0.16100001 496889.08909891 14489.28652208
0.16200001 489908.88282871 13176.10002567
0.16300001 483001.64373279 13070.02509642
0.16400001 476168.73151303 11785.17666132
0.16500001 469408.96041004 12857.11203263
0.16600001 462723.93012800 13909.48199636
0.16700001 456111.71860094 13792.81902172
0.16800001 449573.88679913 12536.36842532
0.16900001 443111.59458600 14689.15005412
0.17000001 436721.64510600 17923.05716147
0.17100001 430406.53592575 13325.38698150
0.17200001 424165.01995811 13208.49934524
0.17300001 417997.78587234 13091.69127177
0.17400001 411904.86452197 10812.50320433
0.17500001 405884.64324200 15001.49712271
0.17600001 399936.75425397 11680.15345963
0.17700001 394065.32306732 11573.69908512
0.17800001 388264.96239012 11467.40620582
0.17900001 382537.22251481 10328.50549575
0.18000001 376883.83554299 11255.63628015
0.18100001 371302.93725685 12163.88479911
0.18200001 365792.30231029 11045.09909001
0.18300001 360354.15223433 10940.35257865
0.18400001 354987.53541427 11821.08548773
0.18500001 349692.58860039 10732.06605115
0.18600001 344468.66609682 14493.51981075
0.18700001 339314.18024673 10525.52636853
0.18800001 334228.68248656 10422.92195579
0.18900001 329216.22336130 9382.66280910
0.19000001 324268.80986653 12077.39239412
0.19100001 319392.95652048 11038.22109890
0.19200001 314583.57650232 10928.63396408
0.19300001 309844.17761700 13524.69899206
0.19400001 305170.14007397 8926.22701896
0.19500001 300563.81079841 11487.54939156
0.19600001 296022.48346997 8747.46479991
0.19700001 291548.96684331 12122.60661423
0.19800001 287139.20802220 8571.10576452
0.19900001 282794.60949158 15270.90963425
0.20000001 278512.49451068 10916.29773826
0.20100001 274295.93537859 9142.28395825
0.20200001 270140.56881470 10693.51492194
0.20300001 266048.30899845 11397.51009619
0.20400001 262018.07061692 10474.17286798
0.20500001 258047.95982517 10365.78703614
0.20600001 254138.23582424 9469.19111440
0.20700001 250288.70056237 10151.71017467
0.20800001 246497.58178901 10046.00942069
0.20900001 242767.43787334 12235.47944720
0.21000001 239092.24008074 7567.26975628
0.21100001 235475.74124294 7488.12892551
0.21200001 231914.70452109 8891.61019168
0.21300001 228409.44281662 8065.13780714
0.21400001 224959.77401630 7254.95305501
0.21500001 221565.62150873 8614.47177153
0.21600001 218223.60036639 8523.81423331
0.21700001 214935.40221489 7731.22678320
0.21800001 211699.70981428 8345.20295544
0.21900001 208515.01849622 8257.19512286
0.22000001 205380.74901877 8850.88379746
0.22100001 202298.31710131 6736.53427800
0.22200001 199265.13620031 7331.96103318
0.22300001 196280.31865423 7254.52092049
0.22400001 193343.19653123 7830.39982979
0.22500001 190455.80279061 8393.38762588
0.22600001 187613.35450732 7665.88202768
0.22700001 184817.99805278 8217.00858200
0.22800001 182067.41425428 6254.01597539
0.22900001 179361.15899879 8044.34836152
0.23000001 176699.66614396 9183.96558216
0.23100001 174082.54785263 8481.30213248
0.23200001 171506.33977633 7792.39091627
0.23300001 168973.35216872 7710.25442411
0.23400001 166480.48793687 7628.96872052
0.23500001 164028.52559015 6387.27108857
0.23600001 161616.68735997 6894.56820887
0.23700001 159244.46751806 5685.02775928
0.23800001 156910.40412266 8437.85738080
0.23900001 154614.60028912 6122.73846105
0.24000001 152355.43947352 6058.41433723
0.24100001 150134.22484091 5994.85988146
0.24200001 147948.91551536 7549.83351587
0.24300001 145798.47610624 7470.71426907
0.24400001 143682.85034208 5808.37949984
0.24500001 141601.02821198 5747.58600701
0.24600001 139552.91012144 7238.60979042
0.24700001 137538.43005023 5628.07282390
0.24800001 135555.82693002 5063.01037535
0.24900001 133603.90378260 5010.14662886
0.25000001 131684.38424104 6445.29249159
0.25100001 129794.64365692 5396.86153857
0.25200001 127936.73835269 6311.75928524
0.25300001 126106.54851273 7206.98958847
0.25400001 124306.42541744 5230.19309689
0.25500001 122532.78075319 5175.78490389
0.25600001 120788.66705384 6518.96466933
0.25700001 119070.74459199 5068.84183710
0.25800001 117379.62213373 4560.19853566
0.25900001 115715.59648452 5415.49017171
0.26000001 114076.43646309 6252.52977838
0.26100001 112462.15126067 6187.66785514
0.26200001 110873.90388751 4811.37328686
0.26300001 109308.42979001 4328.61402450
0.26400001 107767.62615618 4712.13967665
0.26500001 106250.10557283 5087.25529555
0.26600001 104754.97495375 5873.61172359
0.26700001 103282.58450712 4982.35211239
0.26800001 101832.57221314 4108.94448324
0.26900001 100403.22046347 4879.59674543
0.27000001 98995.54071215  4829.00270446
0.27100001 97608.38700189  5177.14909158
0.27200001 96242.14157128  5123.45064901
0.27300001 94895.76003642  4680.25910649
0.27400001 93567.42333223  4245.62203462
0.27500001 92260.48680267  5347.41806815
0.27600001 90970.10178340  4535.76948958
0.27700001 89700.06139052  5236.68983181
0.27800001 88446.91737119  4811.95476732
0.27900001 87212.26001614  4029.20660344
0.28000001 85994.37696283  4349.59579264
0.28100001 84793.95225309  4304.14122008
0.28200001 83610.82453058  4259.13560317
0.28300001 82443.99627742  4916.96017071
0.28400001 81292.77122517  4170.31936124
0.28500001 80158.12900867  4470.41906640
0.28600001 79038.77317117  4083.14321529
0.28700001 77935.57748326  4040.18052796
0.28800001 76845.80798245  3664.39252709
0.28900001 75772.86806299  6262.62784184
0.29000001 74713.63626516  3913.50045281
0.29100001 73669.34922627  3549.38941373
0.29200001 72638.77535409  4469.46405910
0.29300001 71622.58235078  4421.97844366
0.29400001 70619.36987410  4062.37944431
0.29500001 69631.01055754  3400.77871661
0.29600001 68654.51468764  3058.55877412
0.29700001 67691.84962760  3933.57356807
0.29800001 66742.18579604  3292.72589212
0.29900001 65805.80438626  3257.38747132
0.30000001 64880.88129870  3222.30912224
0.30100001 63969.56663796  3477.38580706
0.30200001 63069.44692079  3153.15714808
0.30300001 62182.37466320  4253.27462832
0.30400001 61306.80868095  3365.74395592
0.30500001 60443.79680683  3051.80744526
0.30600001 59591.00323522  3841.83216046
0.30700001 58750.86816328  3528.57730894
0.30800001 57921.81443350  3758.54671653
0.30900001 57104.35750539  3451.95857463
0.31000001 56297.97283826  3939.45083587
0.31100001 55502.25491293  3376.75734878
0.31200001 54718.44901187  2825.93443301
0.31300001 53944.61250736  3303.02878021
0.31400001 53182.97458977  3266.76436885
0.31500001 52430.43787727  2485.20287305
0.31600002 51690.10597766  2703.65112117
0.31700002 50959.27049818  3889.21170857
0.31800002 50238.77109483  3125.10290392
0.31900002 49529.25818216  2852.88540637
0.32000002 48830.41516439  3056.53998194
0.32100002 48141.06598646  2557.73495697
0.32200002 47462.89572261  2989.45062864
0.32300002 46793.33214033  2274.15604970
0.32400002 46134.95852510  2249.07933460
0.32500002 45486.12746408  2669.12608598
0.32600002 44847.48822393  2199.76940155
0.32700002 44218.75890615  3263.34456180
0.32800002 43600.76971418  2797.20751347
0.32900002 42990.64502455  2766.44813833
0.33000002 42391.61354236  3157.11556807
0.33100002 41801.24372529  2706.21264693
0.33200002 41222.05243537  2470.84993998
0.33300002 40651.62339196  2240.31107122
0.33400002 40091.31641335  2618.96536872
0.33500002 39540.43091068  2789.97293718
0.33600002 38998.41615623  2168.50703306
0.33700002 38465.96991783  2535.29219735
0.33800002 37943.90022759  1929.44741795
0.33900002 37430.22350329  2481.62393579
0.34000002 36926.12512184  2077.64852837
0.34100002 36431.51315250  2429.61772720
0.34200002 35946.85918871  2219.35919142
0.34300002 35470.62037353  2196.34091755
0.34400002 35004.43513093  1811.47960382
0.34500002 34547.01340322  2868.78412887
0.34600002 34099.44679207  2129.85154750
0.34700002 33659.75994418  2459.85537322
0.34800002 33230.12894320  2609.39599885
0.34900002 32809.16193433  1894.72919144
0.35000002 32397.56365290  2388.02452996
0.35100002 31995.53607320  2196.17370008
0.35200002 31600.99459156  2175.25456574
0.35300002 31216.72643100  2320.65155279
0.35400002 30840.55493438  1642.25962804
0.35500002 30473.77319170  1627.29956551
0.35600002 30115.43011628  1612.68135911
0.35700002 29765.64846624  2237.78155768
0.35800002 29425.10331154  1584.54188838
0.35900002 29093.66626424  1728.16385795
0.36000002 28770.47837546  1713.71362561
0.36100002 28455.47531423  1699.64562102
0.36200002 28150.39427913  2145.90465754
0.36300002 27852.45756058  1520.74425484
0.36400002 27563.58729045  1810.92777076
0.36500002 27282.40321109  2696.04721302
0.36600002 27010.39677948  1635.61465446
0.36700002 26746.13100533  1771.66380171
0.36800002 26491.05840421  1906.16419777
0.36900002 26243.73051943  2039.13795795
0.37000002 26004.03552543  2170.68696831
0.37100002 25772.53460459  1438.10749906
0.37200002 25549.59906935  2144.25020347
0.37300002 25334.25187446  1705.50191698
0.37400002 25126.73543040  1696.05472190
0.37500002 24927.20372120  1687.07322777
0.37600002 24735.61632409  2377.95858796
0.37700002 24551.35490075  1531.26807770
0.37800002 24374.74812696  1524.27494633
0.37900002 24206.52409690  1517.74913278
0.38000002 24044.91467584  1374.16693882
0.38100002 23890.04594926  1505.78966752
0.38200002 23743.70556856  1773.29873440
0.38300002 23603.83088436  1359.58072335
0.38400002 23471.32749604  1626.56307253
0.38500002 23345.42958029  1757.21056776
0.38600002 23227.40076579  2022.52601750
0.38700002 23115.32790858  1479.84336281
0.38800002 23010.04007160  1476.89949196
0.38900002 22911.54811498  1340.32562822
0.39000002 22820.19577600  2275.28772764
0.39100002 22734.42231730  1871.49773382
0.39200002 22655.81173411  1736.22821450
0.39300002 22582.80648974  1735.03710481
0.39400002 22517.26664601  1734.39254558
0.39500002 22456.41149481  1734.08417779
0.39600002 22401.89614301  1734.24287208
0.39700002 22352.63607477  1467.89768058
0.39800002 22310.36476298  1735.85801263
0.39900002 22272.59869982  2004.53397796
0.40000002 22240.94049748  1739.13042460
0.40100002 22214.24523582  2009.27857678
0.40200002 22193.34606531  2012.38174982
0.40300002 22177.38909140  1747.13479540
0.40400002 22166.51177912  1750.60035070
0.40500002 22160.17901027  1889.37695194
0.40600002 22159.72128435  1623.42125821
0.40700002 22163.28289785  1492.03227538
0.40800002 22171.29457072  1360.20898636
0.40900002 22183.56576591  2319.29191072
0.41000002 22201.00219540  1916.16859028
0.41100002 22222.24950575  1648.00210143
0.41200002 22246.78377435  1929.46364817
0.41300002 22276.82765031  2075.08659395
0.41400002 22309.79819350  1944.29900469
0.41500002 22346.50281071  1673.30620975
0.41600002 22385.98050374  2240.38903497
0.41700002 22430.33927442  1547.02057306
0.41800002 22478.53195185  1977.88612016
0.41900002 22528.04342897  1703.12016393
0.42000002 22581.40076266  1996.42173603
0.42100002 22638.37835443  1862.91224306
0.42200002 22697.82768798  1728.21268205
0.42300002 22759.66882873  2316.02400976
0.42400002 22824.05989551  1600.53727602
0.42500002 22891.57093907  1609.04859755
0.42600002 22960.14561918  1764.71687591
0.42700002 23032.17383376  2070.13188227
0.42800002 23105.58079355  1486.84419452
0.42900002 23181.83576712  2093.31986897
0.43000002 23259.84421190  1954.87369943
0.43100002 23338.02024530  1663.53416192
0.43200002 23419.18959434  1673.18407986
0.43300002 23501.11420753  1682.91486815
0.43400002 23585.00822268  2308.38278919
0.43500002 23669.39916684  2321.96816830
0.43600002 23755.85310336  2024.35511813
0.43700002 23842.56745479  1723.10243161
0.43800002 23929.71369474  2048.50323792
0.43900002 24018.77545372  2060.81103159
0.44000002 24107.66339409  2232.61081273
0.44100002 24197.47079020  2727.29706201
0.44200002 24287.60917732  1613.91170632
0.44300002 24378.16683782  2110.66178484
0.44400002 24468.78736154  1959.94996054
0.44500002 24559.00502392  1642.99751396
0.44600002 24649.16968613  2644.36304925
0.44700002 24740.29037558  1828.80235123
0.44800002 24829.96695649  2341.21769528
0.44900002 24920.02405393  2018.52204403
0.45000002 25009.99040628  2876.27408299
0.45100002 25098.41163449  1701.67238946
0.45200002 25186.72388904  1711.43796937
0.45300002 25273.94508510  1893.27131605
0.45400002 25360.63709002  2596.29534514
0.45500002 25446.72865182  1914.61195450
0.45600002 25531.19226478  1925.17964397
0.45700002 25615.05837813  2111.70551277
0.45800002 25697.37719555  2300.04385490
0.45900002 25778.30087965  1956.57312950
0.46000002 25858.46303252  2324.54664448
0.46100002 25936.28965162  2156.86194965
0.46200002 26013.32224896  1987.28784740
0.46300002 26088.68525836  1815.77258004
0.46400002 26161.81508101  1824.78668839
0.46500002 26234.36677804  2200.53878964
0.46600002 26304.01844148  2579.63521082
0.46700002 26371.80348207  2591.82096906
0.46800002 26438.52422436  2231.94032081
0.46900002 26502.35911811  1868.41640638
0.47000002 26564.41238192  2815.16373560
0.47100002 26624.45764511  2073.51285968
0.47200002 26682.56728068  2839.69235744
0.47300002 26738.30490196  2091.20292550
0.47400002 26791.09081255  2099.75184196
0.47500002 26842.09161088  2108.17797504
0.47600002 26891.37572674  2693.70923422
0.47700002 26937.06218538  2317.66494028
