# SAXS profile: number of points = 501, q_min = 0, q_max = 0.5, delta_q = 0.001
#    q    intensity    error
0.00000000 1682732.95097189 328.13292544
0.00100000 1682650.51082144 605.75419828
0.00200000 1682403.12213789 908.49771472
0.00300000 1681991.02880767 1211.03358388
0.00400000 1681414.07754910 2269.90909094
0.00500000 1680672.78977003 1663.86612773
0.00600000 1679767.07779830 1940.13105384
0.00700000 1678697.50344477 2215.88079664
0.00800000 1677463.90600416 2491.03400559
0.00900000 1676067.45759237 2765.51142325
0.01000000 1674507.64620939 3591.81905621
0.01100000 1672785.66499180 4215.42005932
0.01200000 1670901.43611905 5213.21270926
0.01300000 1668856.19750797 4205.51780320
0.01400000 1666649.98544807 5624.94395025
0.01500000 1664284.07023097 4393.71014106
0.01600000 1661758.05701553 4661.23155830
0.01700000 1659074.08415874 5375.40027381
0.01800000 1656232.18622780 5192.28813746
0.01900000 1653232.96210846 5951.63893214
0.02000000 1650077.66251041 7276.84282084
0.02100000 1646768.30682189 5977.76922479
0.02200000 1643303.27909769 6236.33622751
0.02300000 1639686.14969211 7083.44448910
0.02400000 1635916.15277993 6748.15443792
0.02500000 1631996.04603045 9547.17730530
0.02600000 1627925.72912689 9230.33930633
0.02700000 1623707.36692077 10911.31400546
0.02800000 1619340.80176935 9157.37265396
0.02900000 1614828.66877008 7993.40227742
0.03000000 1610172.24100052 10482.22177073
0.03100000 1605371.85479288 9246.94230909
0.03200000 1600429.09962343 15052.03637523
0.03300000 1595347.66033046 9763.52813133
0.03400000 1590125.67833259 9182.97621608
0.03500000 1584766.36212813 9413.51262574
0.03600000 1579271.28642494 11394.44285814
0.03700000 1573641.96149530 10763.71151442
0.03800000 1567879.92238951 9172.09797046
0.03900000 1561987.57724732 12183.50366675
0.04000000 1555964.24918762 11483.01669112
0.04100000 1549814.55193311 9763.83212989
0.04200000 1543538.83573507 13938.15633332
0.04300000 1537138.38330114 13188.64794091
0.04400000 1530616.46310586 11364.82776637
0.04500000 1523974.54194236 14721.59475920
0.04600000 1517212.82301674 12835.62107941
0.04700000 1510335.26812991 13049.29732354
0.04800000 1503342.61244760 15469.39620185
0.04900000 1496238.40751271 11221.78857869
0.05000000 1489022.23185304 17086.53090617
0.05100000 1481699.14005925 12712.97921393
0.05200000 1474266.89392867 12892.46458821
0.05300000 1466731.93506298 15444.68799621
0.05400000 1459093.83373915 12037.52468970
0.05500000 1451355.57712458 14629.66489988
0.05600000 1443517.94433795 12342.07900002
0.05700000 1435586.41972535 18734.40365191
0.05800000 1427559.64139908 13897.29375792
0.05900000 1419440.21004391 15329.95498447
0.06000000 1411232.43604341 12912.77739307
0.06100000 1402936.94780582 15656.77706918
0.06200000 1394556.43205846 19767.83834845
0.06300000 1386094.06430339 15967.80436735
0.06400000 1377548.44456833 20146.64694400
0.06500000 1368925.88933261 18973.31371368
0.06600000 1360227.16852426 16404.34041994
0.06700000 1351454.10520782 20677.24877735
0.06800000 1342609.77569596 15285.61301180
0.06900000 1333696.78496076 15404.19858750
0.07000000 1324715.90819701 16929.87009956
0.07100000 1315670.13134807 14209.23808409
0.07200000 1306562.11626148 21460.28376494
0.07300000 1297394.54198106 17281.29610891
0.07400000 1288169.79239045 15941.10192790
0.07500000 1278889.10361364 17495.20375748
0.07600000 1269553.95779196 20528.68845989
0.07700000 1260169.89561952 14743.98847007
0.07800000 1250736.72409336 16303.35396312
0.07900000 1241256.87312537 16384.59149375
0.08000000 1231734.22416622 19455.24298337
0.08100000 1222169.84947002 19542.49680992
0.08200000 1212565.60595137 28683.24075475
0.08300000 1202924.82322159 18188.22418072
0.08400000 1193249.54433394 16735.32564482
0.08500000 1183541.68292619 21374.76379709
0.08600000 1173803.39110755 16849.94847048
0.08700000 1164038.62801075 16901.84167239
0.08800000 1154246.82074417 20031.95451479
0.08900000 1144433.09622765 16994.83227722
0.09000000 1134597.72462018 17035.98563545
0.09100000 1124743.01319824 26386.47232930
0.09200000 1114871.53125943 20218.19616938
0.09300000 1104987.83333349 24928.52669145
0.09400000 1095088.77623551 18726.01895370
0.09500000 1085180.33942962 18751.91714673
0.09600000 1075263.54495146 15645.08531448
0.09700000 1065343.03570289 17226.59769719
0.09800000 1055418.11986728 23509.43972540
0.09900000 1045492.46633543 23523.58159868
0.10000000 1035565.85377923 20395.47044932
0.10100000 1025641.38651492 15692.31395172
0.10200000 1015721.84530059 21970.06454724
0.10300000 1005808.45126013 29812.16389774
0.10400000 995904.67202431 23528.24898346
0.10500000 986012.56472438 17245.36056841
0.10600001 976129.56655588 17233.56830844
0.10700001 966263.40265005 17218.81464550
0.10800001 956412.67402509 15637.34795623
0.10900001 946580.90045497 17180.44415187
0.11000001 936768.22067506 17156.91076923
0.11100001 926977.69236426 18687.87115776
0.11200001 917210.62375983 20210.73704601
0.11300001 907468.74611856 20173.03117598
0.11400001 897754.19454207 17034.88664351
0.11500001 888069.22477722 16997.64576262
0.11600001 878414.17288855 16957.78640618
0.11700001 868792.13228766 26141.95649169
0.11800001 859202.43365253 15336.76416303
0.11900001 849647.94531125 21411.12923034
0.12000001 840129.56113750 19822.85792879
0.12100001 830652.16857135 16721.02894104
0.12200001 821213.55892516 19696.80813876
0.12300001 811817.14823057 16609.77963536
0.12400001 802462.31017487 18055.40282966
0.12500001 793151.51663504 16489.62080784
0.12600001 783888.02754528 23892.90820550
0.12700001 774670.71871222 19335.78205028
0.12800001 765501.27345172 19256.18544121
0.12900001 756382.17735822 19174.28909976
0.13000001 747313.98832819 20558.60878794
0.13100001 738296.86798966 17541.93441032
0.13200001 729333.74865974 20370.29256033
0.13300001 720425.16626313 21720.81978682
0.13400001 711571.31949150 17291.18387885
0.13500001 702774.74379850 21504.90817415
0.13600001 694035.56483030 14262.43152975
0.13700001 685355.59997919 17024.23390623
0.13800001 676733.38470309 15520.88091006
0.13900001 668173.56533074 15434.81008702
0.14000001 659674.02321186 18137.73812360
0.14100001 651238.17716072 16645.64859329
0.14200001 642864.84406056 15168.39671103
0.14300001 634556.59368716 13706.42307014
0.14400001 626310.15606856 14984.47119076
0.14500001 618132.09587170 17598.22159961
0.14600001 610019.48648284 16141.11637378
0.14700001 601975.30964180 25391.31975857
0.14800001 593996.18358974 15930.97839548
0.14900001 586086.64302391 18461.73012629
0.15000001 578245.29992043 15716.70799340
0.15100001 570473.51143401 15608.15600930
0.15200001 562772.93856209 19373.45932418
0.15300001 555142.18817957 17953.29921293
0.15400001 547580.76424291 15277.50404334
0.15500001 540092.27584934 15165.79182157
0.15600001 532673.65108823 12544.46507516
0.15700001 525330.02982510 13695.35452392
0.15800001 518055.49994074 16062.31153378
0.15900001 510856.02856454 15938.70884353
0.16000001 503727.04330903 19464.01387221
0.16100001 496673.71905608 12069.17194278
0.16200001 489693.12289616 11972.99742001
0.16300001 482785.78513490 15439.49013748
0.16400001 475952.77790053 14135.79817099
0.16500001 469192.82544707 16356.06266728
0.16600001 462507.70025917 12744.40028234
0.16700001 455895.51878047 18381.70818512
0.16800001 449357.74714799 14808.58525647
0.16900001 442895.43594125 18070.13463964
0.17000001 436505.63294240 11196.37001366
0.17100001 430190.78933230 11098.92288888
0.17200001 423949.48436158 12101.63860258
0.17300001 417782.45129321 16356.18374054
0.17400001 411689.97394922 11887.54855919
0.17500001 405670.00207774 11780.65741671
0.17600001 399722.63837919 12735.16386023
0.17700001 393851.59567073 11567.42191119
0.17800001 388051.79254795 13544.94845864
0.17900001 382324.61496971 16516.42414682
0.18000001 376671.78107678 13294.63114108
0.18100001 371091.55358829 16209.27982641
0.18200001 365581.68306512 17059.87004611
0.18300001 360144.29453826 10933.98129870
0.18400001 354778.50559657 11814.12479447
0.18500001 349484.35229876 13650.85944568
0.18600001 344261.38933942 9656.53242718
0.18700001 339107.85711998 10519.12622484
0.18800001 334023.33714254 14204.34308309
0.18900001 329011.98843731 10314.52632484
0.19000001 324065.72168907 10212.93170158
0.19100001 319191.04608047 11950.51332992
0.19200001 314382.87022187 9101.38452298
0.19300001 309644.69936707 9010.66117736
0.19400001 304972.03200423 12488.60530071
0.19500001 300367.04854325 15895.42496005
0.19600001 295827.17152548 9615.86266485
0.19700001 291355.04322931 12114.54326998
0.19800001 286946.82138007 8565.36302298
0.19900001 282603.84084724 9325.92718870
0.20000001 278323.38863832 12587.17584605
0.20100001 274108.32010058 9136.03074074
0.20200001 269954.83257756 9864.15004860
0.20300001 265864.23762120 9762.53526687
0.20400001 261835.78994856 10466.88619792
0.20500001 257867.59506910 7968.10906426
0.20600001 253959.71634039 8673.99452161
0.20700001 250112.13160543 8583.84876245
0.20800001 246323.07336441 13127.78881551
0.20900001 242594.92731500 9170.08868599
0.21000001 238921.82595499 9830.43899363
0.21100001 235307.43780739 8231.05456361
0.21200001 231748.56747926 15549.17087010
0.21300001 228245.50434696 8792.01724309
0.21400001 224798.17917034 10149.63826938
0.21500001 221406.28200840 7890.92026384
0.21600001 218066.61917404 8517.68254764
0.21700001 214780.87413151 9130.33539101
0.21800001 211547.58014840 8339.20600373
0.21900001 208365.34756541 6876.05679477
0.22000001 205233.64446975 8164.19476303
0.22100001 202153.77577826 8078.06526206
0.22200001 199123.19158658 7992.80528822
0.22300001 196140.97869423 7249.37091533
0.22400001 193206.55236371 7172.79359568
0.22500001 190321.87398959 7097.10301667
0.22600001 187482.11604932 7660.51962403
0.22700001 184689.56005566 10737.85152942
0.22800001 181941.79894108 7499.64130701
0.22900001 179238.43419545 8038.84415383
0.23000001 176579.83821818 10401.43586214
0.23100001 173965.58363126 7870.20337568
0.23200001 171392.33754937 5990.16248065
0.23300001 168862.38965099 6519.77717277
0.23400001 166372.60506661 5864.63460597
0.23500001 163923.62900367 6963.47608942
0.23600001 161514.90770954 6890.22628878
0.23700001 159145.68085213 8522.25161272
0.23800001 156814.83890718 7308.35591294
0.23900001 154522.19411255 8344.19887675
0.24000001 152266.26305288 8256.63850458
0.24100001 150048.23113678 5991.42615269
0.24200001 147866.16012996 5389.72179168
0.24300001 145718.99215222 6399.97843806
0.24400001 143606.66836790 6860.80890582
0.24500001 141528.16993615 6266.86766122
0.24600001 139483.36871566 5684.64496092
0.24700001 137472.20266006 6136.75941705
0.24800001 135493.03052679 6072.79791549
0.24900001 133544.44299230 6009.50021895
0.25000001 131628.35653740 5451.38864389
0.25100001 129742.05652223 5394.67496541
0.25200001 127887.56219549 5338.66653642
0.25300001 126060.80334912 6243.79188528
0.25400001 124264.11306193 5703.72305939
0.25500001 122494.04404969 5174.14866546
0.25600001 120753.36774976 5586.05105639
0.25700001 119038.92123959 5528.16776392
0.25800001 117351.31121675 5926.82825342
0.25900001 115690.84328039 4963.13741156
0.26000001 114055.16698387 4465.25999869
0.26100001 112444.41000057 4860.97207433
0.26200001 110859.75129428 7872.15131189
0.26300001 109297.74148596 4761.00984441
0.26400001 107760.50234153 4711.82818784
0.26500001 106246.51193604 5511.00683490
0.26600001 104754.96587915 5454.06755658
0.26700001 103286.14842753 7058.57571755
0.26800001 101839.57268427 4520.14964749
0.26900001 100413.79459656 6100.13831041
0.27000001 99009.69308623  4024.74421441
0.27100001 97626.06067974  4779.77215707
0.27200001 96263.40485898  6307.17858484
0.27300001 94920.44149633  6632.09156121
0.27400001 93595.67482823  5019.06830019
0.27500001 92292.18983315  4585.07620790
0.27600001 91005.23489056  4915.64799525
0.27700001 89738.75065848  3742.10607956
0.27800001 88489.07923344  4073.59495530
0.27900001 87257.81691285  5497.24272568
0.28000001 86043.38557034  4714.74753547
0.28100001 84846.35876291  5742.40183286
0.28200001 83666.72742616  3906.81802207
0.28300001 82503.25789715  4217.56674332
0.28400001 81355.39000763  4869.12032242
0.28500001 80224.05547792  4129.93457148
0.28600001 79108.07993081  3405.60300222
0.28700001 78008.19165763  4380.94025085
0.28800001 76921.70254788  3668.01155961
0.28900001 75852.03846573  3299.56382944
0.29000001 74796.00616613  3591.33040606
0.29100001 73754.94667338  3230.46681721
0.29200001 72727.59186819  3516.01559530
0.29300001 71714.58415832  4427.65863552
0.29400001 70714.42815805  4067.84767235
0.29500001 69729.14584671  4334.36391101
0.29600001 68755.78330226  6126.14058223
0.29700001 67796.13874594  4545.73131810
0.29800001 66849.51664722  3298.02105991
0.29900001 65916.06700103  4152.71241765
0.30000001 64994.03261441  2934.48071146
0.30100001 64085.66286021  3483.69679800
0.30200001 63188.41790103  3446.29647547
0.30300001 62304.13195227  3409.28226183
0.30400001 61431.38166632  3372.58301315
0.30500001 60571.10755920  4448.34234974
0.30600001 59721.01326997  3575.19862867
0.30700001 58883.55298602  3536.54635977
0.30800001 58057.16234765  3767.32944310
0.30900001 57242.26647141  3460.29517202
0.31000001 56438.43367942  2896.13836138
0.31100001 55645.23991980  3906.29602731
0.31200001 54863.83841915  3606.20027003
0.31300001 54092.45330064  2547.75467109
0.31400001 53333.14937529  2519.99142730
0.31500001 52582.94796499  2741.67503671
0.31600002 51844.83667893  3204.78873105
0.31700002 51116.25081252  2438.24527920
0.31800002 50397.94292994  2893.85002006
0.31900002 49690.54872577  2862.17574213
0.32000002 48993.74914613  2830.85895970
0.32100002 48306.40362683  2566.51934622
0.32200002 47630.20699714  2999.98872977
0.32300002 46962.51063202  2510.61593727
0.32400002 46306.06344977  2257.42070007
0.32500002 45659.02742488  2679.27185616
0.32600002 45022.11498442  3091.66878238
0.32700002 44395.09450499  2402.66262838
0.32800002 43778.79106604  2160.48344141
0.32900002 43170.21301479  2136.92564542
0.33000002 42572.73557925  2959.23099025
0.33100002 41983.84378924  2508.95462366
0.33200002 41406.07401077  2068.23349478
0.33300002 40837.01181019  2045.93438858
0.33400002 40277.99637939  2023.96941391
0.33500002 39728.40064723  3003.46723116
0.33600002 39187.53543753  2179.02301119
0.33700002 38656.24287199  1959.87160642
0.33800002 38135.25670734  2908.76684310
0.33900002 37622.59196935  2494.37796570
0.34000002 37119.44806729  1898.65985856
0.34100002 36625.74001088  2442.57071700
0.34200002 36141.90908859  2045.45144174
0.34300002 35666.47811919  2392.50746554
0.34400002 35200.99500854  2550.31220915
0.34500002 34744.24821910  2344.19453836
0.34600002 34297.28111037  2320.72563624
0.34700002 33858.16085404  1944.13568832
0.34800002 33428.95525478  2100.00706856
0.34900002 33008.44562152  2426.12086809
0.35000002 32597.19387977  1716.24233906
0.35100002 32195.45299211  1869.91199835
0.35200002 31801.17258529  1683.87216814
0.35300002 31417.06893061  1835.07108315
0.35400002 31041.06060069  1818.23021080
0.35500002 30674.28236889  1801.80743169
0.35600002 30315.94023243  2759.81174978
0.35700002 29966.11960635  1770.09876899
0.35800002 29625.47287239  1914.39814769
0.35900002 29293.85142209  2056.42846723
0.36000002 28970.40459040  2509.99597260
0.36100002 28655.13874697  1711.57151843
0.36200002 28349.68891174  1852.36876123
0.36300002 28051.35034124  1684.76418130
0.36400002 27761.99117203  2279.95363300
0.36500002 27480.29758956  1961.26893187
0.36600002 27207.69390875  2396.45379300
0.36700002 26942.82894632  1784.69307394
0.36800002 26687.02048870  1477.12665402
0.36900002 26438.98589123  1760.83654376
0.37000002 26198.46310196  1603.73899475
0.37100002 25966.10273965  1883.58118196
0.37200002 25742.24070145  1728.33412257
0.37300002 25525.94727086  2004.80799362
0.37400002 25317.35929198  1566.51168040
0.37500002 25116.75618974  1558.24362783
0.37600002 24924.03249405  1973.23574603
0.37700002 24738.60958011  2244.28676742
0.37800002 24560.80107397  1675.53792864
0.37900002 24391.25088455  1529.33150291
0.38000002 24228.31685037  1661.57804831
0.38100002 24072.08811080  1931.06299973
0.38200002 23924.30088180  1786.78649600
0.38300002 23782.95358835  1506.88801074
0.38400002 23648.92283623  2048.58803774
0.38500002 23521.42388148  2315.21386234
0.38600002 23401.80548037  1901.86482149
0.38700002 23288.04733550  1490.90086105
0.38800002 23181.05672385  1487.87619631
0.38900002 23080.81340382  2295.38700176
0.39000002 22987.65005508  2022.33860941
0.39100002 22900.06341637  1481.17617194
0.39200002 22819.55143142  1883.29766886
0.39300002 22744.64084839  1613.05000539
0.39400002 22677.13548319  1477.98237514
0.39500002 22614.31680472  1343.29048184
0.39600002 22557.73801356  1611.97603482
0.39700002 22506.41236351  1612.35945811
0.39800002 22462.02883575  1478.78773846
0.39900002 22422.11924249  1345.32721829
0.40000002 22388.28459233  1346.65538203
0.40100002 22359.34591186  2022.40293355
0.40200002 22336.21427659  1890.31390379
0.40300002 22318.00435206  2434.44803007
0.40400002 22304.81519795  1897.02462247
0.40500002 22296.13596835  1629.40169377
0.40600002 22293.29959142  1497.10660500
0.40700002 22294.45648955  1773.74704235
0.40800002 22300.08806559  1368.11046765
0.40900002 22309.88020523  1509.26346740
0.41000002 22324.86037618  1789.22601963
0.41100002 22343.63802606  1518.92058498
0.41200002 22365.61634243  1662.65999768
0.41300002 22393.13844733  1529.67535982
0.41400002 22423.55871278  2093.79989402
0.41500002 22457.71778171  1541.49782158
0.41600002 22494.56973567  1969.84956509
0.41700002 22536.33268524  1695.63375158
0.41800002 22581.88844555  1561.19893166
0.41900002 22628.78362473  1710.73612309
0.42000002 22679.45593644  1575.42848128
0.42100002 22733.79540478  1726.85918077
0.42200002 22790.55884047  1446.06102695
0.42300002 22849.68605332  2034.53614260
0.42400002 22911.39267842  1898.78175820
0.42500002 22976.18388028  2202.26732928
0.42600002 23042.03376749  1623.42656602
0.42700002 23111.36440130  1483.74966487
0.42800002 23182.02618670  1640.93980138
0.42900002 23255.54341768  2099.97567013
0.43000002 23330.79817904  1659.16979113
0.43100002 23406.26973028  1668.39898544
0.43200002 23484.72110226  1982.93252024
0.43300002 23563.87273706  2147.61146303
0.43400002 23645.02955002  2159.97355175
0.43500002 23726.69576812  1862.07117212
0.43600002 23810.38900930  1872.92528823
0.43700002 23894.40863771  2040.82153846
0.43800002 23978.78747419  2052.70419900
0.43900002 24065.12279283  1747.12799755
0.44000002 24151.28768515  1597.60775608
0.44100002 24238.40425765  2249.80878981
0.44200002 24325.86435188  2586.32602046
0.44300002 24413.74293207  1788.55089196
0.44400002 24501.67113228  2453.22993838
0.44500002 24589.21172004  1809.52017623
0.44600002 24676.74813189  1820.03364472
0.44700002 24765.21152563  1997.06675207
0.44800002 24852.27677316  2008.56110400
0.44900002 24939.73859428  2356.80540885
0.45000002 25027.08990099  1862.39098325
0.45100002 25112.92764973  2213.45354795
0.45200002 25198.70440630  1883.47725011
0.45300002 25283.38086686  2410.51764609
0.45400002 25367.54491214  2423.86903123
0.45500002 25451.17278271  1740.86030084
0.45600002 25533.15618291  2800.47670287
0.45700002 25614.54561732  2287.63517750
0.45800002 25694.42909714  2476.68613805
0.45900002 25772.93946232  1778.33290718
0.46000002 25850.73950142  1966.33659337
0.46100002 25926.22940657  2874.70045285
0.46200002 26000.92453563  1805.76429458
0.46300002 26074.00661480  2359.17623032
0.46400002 26144.84150097  2005.96305924
0.46500002 26215.14609477  3115.14595809
0.46600002 26282.58925382  2577.53365029
0.46700002 26348.22153709  2034.60976353
0.46800002 26412.77114404  2229.76624566
0.46900002 26474.45981616  2613.02930770
0.47000002 26534.44102090  2437.05585107
0.47100002 26592.45563211  2447.56973239
0.47200002 26648.52654864  2457.92696271
0.47300002 26702.27169811  2278.23792927
0.47400002 26753.05771651  2859.23317897
0.47500002 26802.16589527  2296.40968275
0.47600002 26849.56719116  2497.41261066
0.47700002 26893.38730101  2699.55834523
