# SAXS profile: number of points = 501, q_min = 0, q_max = 0.5, delta_q = 0.001
#    q    intensity    error
0.00000000 1682732.95097188 277.65093691
0.00100000 1682650.51406515 605.75419945
0.00200000 1682403.13439871 832.78957790
0.00300000 1681991.05549924 1311.95307003
0.00400000 1681414.12527876 1513.27277025
0.00500000 1680672.87051582 2722.69015800
0.00600000 1679767.18853176 3174.76011558
0.00700000 1678697.64993643 2618.76844274
0.00800000 1677464.10661538 3170.40729536
0.00900000 1676067.71549089 3519.74235299
0.01000000 1674507.95434593 4144.40736596
0.01100000 1672786.03244987 3312.11648846
0.01200000 1670901.87669375 4235.73644313
0.01300000 1668856.72148232 5256.89890452
0.01400000 1666650.59683300 4499.95681094
0.01500000 1664284.76918121 7589.13888540
0.01600000 1661758.84184508 5932.47933059
0.01700000 1659074.98774957 5375.40320144
0.01800000 1656233.17431666 4720.26475920
0.01900000 1653234.08241233 6447.61321234
0.02000000 1650078.87690064 7276.84817630
0.02100000 1646769.64353677 7608.07609808
0.02200000 1643304.77130463 9637.98292158
0.02300000 1639687.73428465 5902.87611211
0.02400000 1635917.89499603 7975.10010175
0.02500000 1631997.94250231 7001.27149309
0.02600000 1627927.76444196 7911.72929706
0.02700000 1623709.56482437 8183.49658153
0.02800000 1619343.15468168 7748.55735050
0.02900000 1614831.17826955 8720.08876303
0.03000000 1610174.93174113 9733.50790978
0.03100000 1605374.72507003 9246.95884189
0.03200000 1600432.14488959 10298.78132671
0.03300000 1595350.87828858 11390.80579610
0.03400000 1590129.04983971 10852.63126590
0.03500000 1584769.91145045 9413.53370871
0.03600000 1579275.05567137 9641.47466044
0.03700000 1573645.95882721 11660.71709419
0.03800000 1567884.13306633 9172.12260292
0.03900000 1561991.96774076 10309.14746451
0.04000000 1555968.84480786 11483.05060679
0.04100000 1549819.37042804 16598.56622690
0.04200000 1543543.91230495 10951.44456587
0.04300000 1537143.62424296 12174.17806910
0.04400000 1530621.93504726 11364.86839553
0.04500000 1523980.28824967 12618.55737303
0.04600000 1517218.78627234 11766.03223451
0.04700000 1510341.42029601 16311.68809782
0.04800000 1503348.98109090 13259.53863016
0.04900000 1496245.02390997 17954.94112268
0.05000000 1489029.14983411 13669.28823200
0.05100000 1481706.27063071 16180.23322903
0.05200000 1474274.32560204 15236.62586514
0.05300000 1466739.55867578 11880.59097912
0.05400000 1459101.67327627 16852.62511224
0.05500000 1451363.76536331 15848.89305711
0.05600000 1443526.32157195 14810.58075045
0.05700000 1435595.06879061 12489.67768148
0.05800000 1427568.51980717 12633.98199020
0.05900000 1419449.39529140 14052.54966972
0.06000000 1411241.80849608 18078.00841142
0.06100000 1402946.61350752 19571.10617301
0.06200000 1394566.39853794 19767.97962330
0.06300000 1386104.24572085 17298.58179540
0.06400000 1377558.82830551 14774.31912452
0.06500000 1368936.55084065 16262.96698473
0.06600000 1360238.13750856 13670.39392158
0.06700000 1351465.28646512 15163.44122377
0.06800000 1342621.28009681 20844.19634920
0.06900000 1333708.48412085 22406.30358227
0.07000000 1324727.98215534 19751.69513888
0.07100000 1315682.37819659 15630.30738506
0.07200000 1306574.65326353 17168.39174817
0.07300000 1297407.31911889 24482.07725890
0.07400000 1288182.81867511 17390.46886710
0.07500000 1278902.40051474 14579.48804924
0.07600000 1269567.43166329 17596.20542777
0.07700000 1260183.67756073 23590.63955007
0.07800000 1250750.77372868 19267.81657288
0.07900000 1241271.13426772 16384.77974084
0.08000000 1231748.75640158 20952.04732927
0.08100000 1222184.54552294 16536.15767677
0.08200000 1212580.61143912 16606.29225291
0.08300000 1202940.10050130 19704.15977097
0.08400000 1193264.97043956 25864.01944830
0.08500000 1183557.33019290 19848.25735911
0.08600000 1173819.39179392 15318.34378213
0.08700000 1164054.77565783 21511.73326430
0.08800000 1154263.16989115 15409.41404173
0.08900000 1144449.75364712 15450.07239992
0.09000000 1134614.50888034 17036.23765112
0.09100000 1124760.00228232 23282.53314108
0.09200000 1114888.85272323 21773.78031676
0.09300000 1105005.29100922 24928.92053663
0.09400000 1095106.46725016 18726.32147007
0.09500000 1085198.20931483 17189.54044350
0.09600000 1075281.61140554 17209.88299954
0.09700000 1065361.35433877 18792.97517405
0.09800000 1055436.69219544 17240.55917762
0.09900000 1045511.04726321 23523.99966958
0.10000000 1035584.61812599 17258.01847267
0.10100000 1025660.23046226 17261.86249054
0.10200000 1015741.00928346 18831.83919790
0.10300000 1005827.84519233 18829.09814774
0.10400000 995924.18018550 20391.54854862
0.10500000 986032.09432194 17245.70214109
0.10600001 976149.33294140 17233.91728400
0.10700001 966283.30676361 28176.82255116
0.10800001 956432.72841422 17201.44343006
0.10900001 946601.10482848 17180.81086126
0.11000001 936788.61195347 20276.79046015
0.11100001 926998.12790067 24917.71085093
0.11200001 917231.17097342 17101.77598790
0.11300001 907489.30817529 21725.29506056
0.11400001 897774.93757842 15486.61840241
0.11500001 888090.02742968 20088.59736639
0.11600001 878435.05799335 16958.18959315
0.11700001 868813.14349912 21529.19070982
0.11800001 859223.54327931 18404.56916387
0.11900001 849669.10434995 22941.06689801
0.12000001 840150.76975591 25922.85322191
0.12100001 830673.40386391 18241.58880818
0.12200001 821234.92465731 16666.96358112
0.12300001 811838.48482408 16610.21618208
0.12400001 802483.67746237 16551.22662751
0.12500001 793173.00371911 19488.26161967
0.12600001 783909.44720601 17920.17080759
0.12700001 774692.27380356 23798.54777278
0.12800001 765522.80162300 17775.44029143
0.12900001 756403.61566670 20649.81968097
0.13000001 747335.42504881 20559.19851215
0.13100001 738318.37716163 19004.31592396
0.13200001 729355.27222657 18915.82987689
0.13300001 720446.55192946 24617.65983998
0.13400001 711592.82796978 18732.68207947
0.13500001 702796.13279769 18638.15432055
0.13600001 694056.98912609 14262.87179905
0.13700001 685376.97844842 14187.30412286
0.13800001 676754.74578640 16932.40453804
0.13900001 668194.82569271 22451.34720204
0.14000001 659695.13138228 18138.31849277
0.14100001 651259.27469269 18033.37016675
0.14200001 642885.82244524 16547.88185023
0.14300001 634577.51510085 17818.93746451
0.14400001 626330.94051353 17709.50817838
0.14500001 618152.86620034 13537.54840838
0.14600001 610040.09103810 14796.52310615
0.14700001 601995.77641464 18710.02961364
0.14800001 594016.56443022 15931.52500965
0.14900001 586106.90514945 15824.88718567
0.15000001 578265.36993843 14407.48237180
0.15100001 570493.57968962 16909.43049987
0.15200001 562792.68000352 18082.52966177
0.15300001 555161.90210679 14106.66459821
0.15400001 547600.17893625 19097.55714163
0.15500001 540111.69407211 16430.19850906
0.15600001 532692.89918783 20071.86938869
0.15700001 525349.06906300 16186.00558176
0.15800001 518074.34442764 16062.89580713
0.15900001 510874.60876423 12260.99118907
0.16000001 503745.52718955 15815.09157263
0.16100001 496691.94225241 13276.57624312
0.16200001 489711.23910403 11973.44036131
0.16300001 482803.72875641 15440.06397452
0.16400001 475970.46734569 12958.29658524
0.16500001 469210.23861370 18693.33678891
0.16600001 462524.93349760 11586.25013114
0.16700001 455912.46766036 14935.69314574
0.16800001 449374.47985231 12530.80796234
0.16900001 442911.97530466 14682.53267463
0.17000001 436521.94895249 16795.18277901
0.17100001 430206.78816064 12209.26922454
0.17200001 423965.30849971 15402.66038515
0.17300001 417797.94534196 15266.33764374
0.17400001 411705.15743315 12968.71307161
0.17500001 405684.94563348 11781.09137759
0.17600001 399737.35297465 10613.02722272
0.17700001 393866.06233506 13671.09166934
0.17800001 388066.00181124 14587.40169708
0.17900001 382338.57263512 10323.14194875
0.18000001 376685.38823774 13295.11140585
0.18100001 371104.89341418 12157.39688252
0.18200001 365594.73108958 13046.24859521
0.18300001 360157.08208628 12922.43671570
0.18400001 354790.91321100 13783.62762940
0.18500001 349496.52301227 13651.33483378
0.18600001 344273.19393703 10622.54990077
0.18700001 339119.44569048 11475.80258434
0.18800001 334034.59491176 11363.85745580
0.18900001 329023.00641382 13128.01857618
0.19000001 324076.32713113 10213.26593210
0.19100001 319201.36366659 12870.19959115
0.19200001 314392.92029164 10011.84301976
0.19300001 309654.44832676 9912.03935931
0.19400001 304981.40930975 9812.77730823
0.19500001 300376.06917720 11480.37390646
0.19600001 295835.91852560 13112.92770832
0.19700001 291363.37004861 9518.84174933
0.19800001 286954.89875421 9422.16454587
0.19900001 282611.64119766 11021.85452760
0.20000001 278330.88961040 10909.17973386
0.20100001 274115.39944868 9966.83639501
0.20200001 269961.62118254 14796.59715635
0.20300001 265870.70545464 8949.20836858
0.20400001 261841.90802606 9661.96686284
0.20500001 257873.38811784 10358.77449032
0.20600001 253965.28849600 9462.74709665
0.20700001 250117.26618533 7803.65907385
0.20800001 246327.94324207 10039.09580138
0.20900001 242599.51058370 9934.45042802
0.21000001 238926.11353928 10586.81659139
0.21100001 235311.29176447 7482.89943185
0.21200001 231752.25968876 8144.93355181
0.21300001 228248.80965013 7326.78713615
0.21400001 224801.19147304 7974.82264453
0.21500001 221408.91667749 10043.10893530
0.21600001 218068.96766596 8517.77427974
0.21700001 214782.97013880 9130.42449228
0.21800001 211549.37554317 8339.27677820
0.21900001 208366.73598229 9626.54365754
0.22000001 205234.73228064 6803.53169679
0.22100001 202154.62811776 9424.44920847
0.22200001 199123.75685057 7992.82797792
0.22300001 196141.30818066 6590.34826650
0.22400001 193206.60934332 7172.79571105
0.22500001 190321.57954089 7097.09203668
0.22600001 187481.55797816 7022.12208614
0.22700001 184688.70296273 8842.89551603
0.22800001 181940.60316727 8749.52402008
0.22900001 179237.07653675 8657.15120613
0.23000001 176578.14501282 7342.11961686
0.23100001 173963.66890633 8475.51034995
0.23200001 171390.09473203 5990.08409418
0.23300001 168859.91055817 8297.77639727
0.23400001 166369.96043942 8796.81207428
0.23500001 163920.64949310 6383.07039316
0.23600001 161511.66502221 6315.91395942
0.23700001 159142.18000839 6817.65131402
0.23800001 156811.13800422 6183.84751968
0.23900001 154518.27957971 7231.45582637
0.24000001 152262.11074030 6605.13067634
0.24100001 150043.88648381 7625.23067179
0.24200001 147861.66296866 5928.51365716
0.24300001 145714.29065375 5333.14329020
0.24400001 143601.68282225 6332.83451203
0.24500001 141523.03943116 5744.42044225
0.24600001 139478.00822405 5684.42649407
0.24700001 137466.70141907 7159.26614858
0.24800001 135487.26309578 7590.67427403
0.24900001 133538.60339676 7010.77700999
0.25000001 131622.26030998 5946.69400213
0.25100001 129735.91540870 6865.62496823
0.25200001 127881.19689874 5823.70998229
0.25300001 126054.31555439 5763.20357981
0.25400001 124257.46273358 6178.70262675
0.25500001 122487.25514732 5644.21298423
0.25600001 120746.42540506 5120.25241155
0.25700001 119031.88584218 5527.84104005
0.25800001 117344.08147913 5014.69955928
0.25900001 115683.64758112 5865.16120987
0.26000001 114047.85005860 5357.96824927
0.26100001 112436.99083025 5302.52873845
0.26200001 110852.13059730 5247.74011078
0.26300001 109290.10124720 4760.67703559
0.26400001 107752.77517959 5139.80761927
0.26500001 106238.68646324 6782.27806474
0.26600001 104747.14411876 4614.63565251
0.26700001 103278.20505570 7473.21127146
0.26800001 101831.55538831 5341.57449066
0.26900001 100405.72413014 4879.71842364
0.27000001 99001.62339702  4426.85779969
0.27100001 97617.94164753  5177.65587001
0.27200001 96255.27619346  4335.81912132
0.27300001 94912.25605314  5461.25147175
0.27400001 93587.55578173  7334.92503152
0.27500001 92283.97408189  4584.66804936
0.27600001 90997.03748404  4537.11250368
0.27700001 89730.61012782  5238.47326718
0.27800001 88480.98712076  4443.51538350
0.27900001 87249.63713670  5130.27890644
0.28000001 86035.27964039  6164.85825441
0.28100001 84838.35869144  3947.52901675
0.28200001 83658.74011942  3551.31368615
0.28300001 82495.30595887  4217.16024022
0.28400001 81347.48065416  4173.12595508
0.28500001 80216.18422788  4473.65680613
0.28600001 79100.26287569  5107.89971696
0.28700001 78000.44649983  3706.58139311
0.28800001 76914.09827729  5001.33947721
0.28900001 75844.51745668  3959.08399864
0.29000001 74788.58240698  4896.78266488
0.29100001 73747.59432023  3553.15926254
0.29200001 72720.38419931  3515.66714053
0.29300001 71707.44063579  3478.52810990
0.29400001 70707.37784816  3128.80161789
0.29500001 69722.25397915  3405.23504554
0.29600001 68749.02631265  3981.60004738
0.29700001 67789.43437438  3939.24421797
0.29800001 66843.03913218  3297.70149169
0.29900001 65909.69678431  4745.49839312
0.30000001 64987.85113387  3814.46210288
0.30100001 64079.61631234  2902.80675637
0.30200001 63182.56461328  3445.97723714
0.30300001 62298.35897023  4261.20795529
0.30400001 61425.87113259  3372.28048483
0.30500001 60565.75102685  2779.96810374
0.30600001 59715.86865164  3024.90746976
0.30700001 58878.55709051  2992.20841300
0.30800001 58052.37458949  3228.87322753
0.30900001 57237.61813287  3193.85924302
0.31000001 56434.04791186  3948.97268960
0.31100001 55641.01883423  3385.19974615
0.31200001 54859.78299445  3090.80032024
0.31300001 54088.66375433  3057.09142014
0.31400001 53329.51773941  3023.78379899
0.31500001 52579.59936654  3738.40969196
0.31600002 51841.65166739  3451.09891490
0.31700002 51113.37768834  2681.91905429
0.31800002 50395.24347773  2893.69501750
0.31900002 49688.09738734  2385.02878752
0.32000002 48991.47690394  3066.62164201
0.32100002 48304.40369409  2333.10280890
0.32200002 47628.44875834  3461.39767741
0.32300002 46961.02682329  2966.99781519
0.32400002 46304.86675080  2483.09859709
0.32500002 45658.02391726  2679.21297033
0.32600002 45021.32281764  2208.29598877
0.32700002 44394.57606738  2839.47721973
0.32800002 43778.52839782  2376.51752661
0.32900002 43170.25485641  3205.39157488
0.33000002 42573.06316351  2747.87849201
0.33100002 41984.34696560  2299.90263569
0.33200002 41406.84971612  3102.40836189
0.33300002 40838.06891577  2455.18481948
0.33400002 40279.36620084  3845.67267014
0.33500002 39730.02857086  2402.87224176
0.33600002 39189.41353420  2377.22993756
0.33700002 38658.37901007  3331.96584467
0.33800002 38137.68100955  2908.95175676
0.33900002 37625.26696506  2110.77757670
0.34000002 37122.37839050  2278.57169352
0.34100002 36628.98131084  2066.97351326
0.34200002 36145.41035563  2603.55403122
0.34300002 35670.24755738  2208.70183336
0.34400002 35205.00360781  1821.85902299
0.34500002 34748.52450969  2164.13820896
0.34600002 34301.87314521  3035.20138900
0.34700002 33863.01517681  2121.17937114
0.34800002 33434.11147032  2275.35856388
0.34900002 33013.78971501  1906.54644634
0.35000002 32602.75878377  2231.49593064
0.35100002 32201.38135048  2890.39612692
0.35200002 31807.31097080  1852.61691524
0.35300002 31423.51284547  2002.30633335
0.35400002 31047.69700033  2314.60592100
0.35500002 30681.24459450  1802.21639284
0.35600002 30323.13281868  1948.56460722
0.35700002 29973.62824018  2092.45908656
0.35800002 29633.16702175  1755.32073167
0.35900002 29301.78194723  1740.52593011
0.36000002 28978.61687433  2353.78826711
0.36100002 28663.56246385  1867.71781861
0.36200002 28358.36375851  1698.52427777
0.36300002 28060.25234169  2298.13477564
0.36400002 27771.14885254  1976.61161321
0.36500002 27489.65033303  1660.10006225
0.36600002 27217.29928870  1797.97487618
0.36700002 26952.67637705  2082.90292908
0.36800002 26697.11229320  2216.52785314
0.36900002 26449.30942850  1908.31776566
0.37000002 26208.98984551  2479.50160179
0.37100002 25976.77614298  1739.40501293
0.37200002 25753.07021052  1584.97278119
0.37300002 25537.01645024  1575.88935979
0.37400002 25328.70410102  2137.10950976
0.37500002 25128.25888771  1984.12741576
0.37600002 24935.70018113  1410.11391204
0.37700002 24750.50463223  1964.69515078
0.37800002 24572.84259017  1955.75263440
0.37900002 24403.42740040  2503.79176989
0.38000002 24240.70826712  1662.42785171
0.38100002 24084.60998216  1518.05303909
0.38200002 23936.99736132  1512.69861991
0.38300002 23795.80567972  2330.08540254
0.38400002 23661.92390216  2186.36187214
0.38500002 23534.56953557  1498.91680473
0.38600002 23415.03921093  1631.09170871
0.38700002 23301.47767862  1627.37527817
0.38800002 23194.61188754  1353.40566776
0.38900002 23094.51535733  1621.23505489
0.39000002 23001.40169826  2023.54841027
0.39100002 22913.99528814  1616.81158413
0.39200002 22833.58242053  1615.24769695
0.39300002 22758.73221690  1883.05759284
0.39400002 22691.27809074  1747.79577775
0.39500002 22628.61559010  1612.96779568
0.39600002 22572.10232543  1613.00250860
0.39700002 22520.87429963  1478.94588533
0.39800002 22476.55346493  1748.78832519
0.39900002 22436.67649845  1750.06084980
0.40000002 22402.88320201  2021.30023267
0.40100002 22374.01762524  1484.06865940
0.40200002 22350.91681946  2432.00337435
0.40300002 22332.74162224  1624.03704772
0.40400002 22319.62486416  1627.10072969
0.40500002 22310.94898638  1902.23160071
0.40600002 22308.11205184  2315.24751900
0.40700002 22309.31889987  1365.33038136
0.40800002 22314.91538271  1369.02012360
0.40900002 22324.74411279  1784.86337639
0.41000002 22339.71383422  1514.96776545
0.41100002 22358.45724438  1934.45381244
0.41200002 22380.43360476  1663.76151301
0.41300002 22407.89148614  1530.68313995
0.41400002 22438.29158316  1676.14046068
0.41500002 22472.39503778  1682.73302016
0.41600002 22509.29233349  1407.95630217
0.41700002 22550.94301245  2120.91629082
0.41800002 22596.47785310  1562.20757040
0.41900002 22643.24319963  2139.78658376
0.42000002 22693.86077399  1576.42911336
0.42100002 22748.16237329  1583.95462111
0.42200002 22804.81282798  1881.05507525
0.42300002 22863.83849441  1744.96823658
0.42400002 22925.48569189  2192.24967317
0.42500002 22990.20362548  1615.98148941
0.42600002 23055.91444810  1624.40452942
0.42700002 23125.15110773  1781.56172576
0.42800002 23195.67170387  1641.90569936
0.42900002 23269.06403509  1500.85470138
0.43000002 23344.20854927  1961.96410050
0.43100002 23419.53364128  1669.34443706
0.43200002 23497.83962784  1831.42170738
0.43300002 23576.86312801  1688.33924860
0.43400002 23657.86684792  1852.41106197
0.43500002 23739.40792690  1552.55735199
0.43600002 23822.92735192  2186.23014669
0.43700002 23906.74805066  1884.80810563
0.43800002 23990.97206180  2211.72781919
0.43900002 24077.07977138  1747.99607424
0.44000002 24163.08514834  1758.22697414
0.44100002 24250.03840287  1929.33314676
0.44200002 24337.30670416  2102.37833927
0.44300002 24424.98665458  1789.37460711
0.44400002 24512.69890323  2127.08954813
0.44500002 24600.03169548  1810.31641826
0.44600002 24687.37747293  1820.81761181
0.44700002 24775.58417007  1997.90320216
0.44800002 24862.45374214  1674.48633889
0.44900002 24949.73328596  2020.92849194
0.45000002 25036.85785606  2032.49221708
0.45100002 25122.43440265  1873.63124655
0.45200002 25207.98840211  2740.61262896
0.45300002 25292.40191547  1894.65391728
0.45400002 25376.30523377  1731.93291429
0.45500002 25459.68854199  2438.01989033
0.45600002 25541.46601558  2451.21460969
0.45700002 25622.60340557  2288.35481861
0.45800002 25702.20863305  2477.43600755
0.45900002 25780.46007794  2312.50737859
0.46000002 25857.99232142  2145.69630453
0.46100002 25933.25408709  2875.47934946
0.46200002 26007.67072477  2709.34922616
0.46300002 26080.47874276  1815.20140653
0.46400002 26151.05333939  2553.65047962
0.46500002 26221.04521298  2382.70649143
0.46600002 26288.22280145  2209.78811342
0.46700002 26353.58309083  1850.02162066
0.46800002 26417.84589451  2787.74332015
0.46900002 26479.21251729  2613.49839933
0.47000002 26538.95959454  2999.96413475
0.47100002 26596.72105333  2447.96232177
0.47200002 26652.48478622  2458.29205077
0.47300002 26705.91804709  2278.54903577
0.47400002 26756.43743345  2859.59438624
0.47500002 26805.25121502  1913.89502747
0.47600002 26852.33829450  2113.41338564
0.47700002 26895.86072444  3278.33661909
