# SAXS profile: number of points = 501, q_min = 0, q_max = 0.5, delta_q = 0.001
#    q    intensity    error
0.00000000 1700912.83420644 280.65061764
0.00100000 1700829.94016776 612.29879300
0.00200000 1700581.19105249 841.78771623
0.00300000 1700166.83330575 1224.12016359
0.00400000 1699586.70072622 1529.62808878
0.00500000 1698841.34613838 1681.85299925
0.00600000 1697930.64731454 2139.39270272
0.00700000 1696855.18616805 2647.09420044
0.00800000 1695614.78912674 2517.98806816
0.00900000 1694210.65906466 2795.44770696
0.01000000 1692642.23387999 4747.86167104
0.01100000 1690910.76748019 3043.63951398
0.01200000 1689016.13950483 3293.58161644
0.01300000 1686959.61362422 4605.39994831
0.01400000 1684741.20775524 4169.73467404
0.01500000 1682362.20325855 4845.20336114
0.01600000 1679822.19796309 4711.90147592
0.01700000 1677123.37989200 4528.23332884
0.01800000 1674265.71726484 6680.32051248
0.01900000 1671249.86721092 9526.12467295
0.02000000 1668077.01290650 5779.88711118
0.02100000 1664749.23834462 5493.67273561
0.02200000 1661264.97039880 6304.50084909
0.02300000 1657627.58940695 7757.69747154
0.02400000 1653836.57019016 7442.26490520
0.02500000 1649894.60213149 7078.04816640
0.02600000 1645801.50308610 9331.69494931
0.02700000 1641559.43386308 8273.45992560
0.02800000 1637168.35842016 7833.85095430
0.02900000 1632630.90997932 9550.89126190
0.03000000 1627948.25358635 8326.95569984
0.03100000 1623120.77950492 10128.27413014
0.03200000 1618150.13878210 10412.79662266
0.03300000 1613039.93931678 10694.45529069
0.03400000 1607788.22911971 9284.97745158
0.03500000 1602398.43556686 11248.83753713
0.03600000 1596872.12323359 13293.96104028
0.03700000 1591210.72089114 10883.88183425
0.03800000 1585415.74393027 10202.15078434
0.03900000 1579489.66121098 10424.63224676
0.04000000 1573431.70785398 10644.26599688
0.04100000 1567246.66631840 11848.38534674
0.04200000 1560934.79360912 11074.83287445
0.04300000 1554497.34028948 13337.58779879
0.04400000 1547937.64813227 13583.15349319
0.04500000 1541257.17054736 18078.94745056
0.04600000 1534456.05515118 12981.49883005
0.04700000 1527538.37798774 14297.75988292
0.04800000 1520504.69388971 16763.56503011
0.04900000 1513358.89832601 18160.30762523
0.05000000 1506100.29404496 11521.66778596
0.05100000 1498734.03948435 12859.13865781
0.05200000 1491257.79722642 13041.05004447
0.05300000 1483678.13719077 13219.57281864
0.05400000 1475994.53130859 17047.73763162
0.05500000 1468210.07664975 14799.55826302
0.05600000 1460325.60836260 14982.94144097
0.05700000 1452346.51273704 13898.95677568
0.05800000 1444271.17656746 14059.98056038
0.05900000 1436102.84864026 15509.91148972
0.06000000 1427845.23834308 15677.74144945
0.06100000 1419499.34809215 14521.47900959
0.06200000 1411067.67670437 18668.42623543
0.06300000 1402553.37144765 14810.96429498
0.06400000 1393955.24824296 17668.38359777
0.06500000 1385279.55969660 13714.26828252
0.06600000 1376526.92147297 24901.37317454
0.06700000 1367699.48873241 15345.58898174
0.06800000 1358799.97949795 14063.58044611
0.06900000 1349831.09477299 15590.54987456
0.07000000 1340793.85110230 15707.40070122
0.07100000 1331690.96577263 20135.16834557
0.07200000 1322525.30572052 15929.81805366
0.07300000 1313299.35842895 16035.38591777
0.07400000 1304015.74866058 20538.24900391
0.07500000 1294675.59702923 19187.09324732
0.07600000 1285280.24624873 19298.48380215
0.07700000 1275835.70071587 17912.73407795
0.07800000 1266341.16717570 21008.60094867
0.07900000 1256799.49271604 21114.23246797
0.08000000 1247214.43571776 16669.02171533
0.08100000 1237587.21539723 16744.55580995
0.08200000 1227919.58570826 16816.35951539
0.08300000 1218214.74083833 16884.45710044
0.08400000 1208475.04459517 20030.47480437
0.08500000 1198701.91157354 18555.90646227
0.08600000 1188898.18984542 24824.19536951
0.08700000 1179067.52608785 20232.79969775
0.08800000 1169209.06995124 17169.83599859
0.08900000 1159328.26391069 17216.02552771
0.09000000 1149425.38447161 20396.55440559
0.09100000 1139502.67380226 22015.19269216
0.09200000 1129562.91080281 20484.62434991
0.09300000 1119610.20396485 22101.10646484
0.09400000 1109641.80109295 15812.39640872
0.09500000 1099663.57163642 20585.70302862
0.09600000 1089676.61565263 17440.27505335
0.09700000 1079685.64112045 22219.93153888
0.09800000 1069689.77829446 17473.38335000
0.09900000 1059692.52421993 19074.46633289
0.10000000 1049694.20311029 27034.87547248
0.10100000 1039697.43360317 20679.58292696
0.10200000 1029705.35198535 17499.84328012
0.10300000 1019719.09513444 23861.42794861
0.10400000 1009742.01797011 17493.78128433
0.10500000 999776.16916035 23844.66275635
0.10600001 989819.15228828 22241.23739845
0.10700001 979878.92176976 17461.44320763
0.10800001 969953.40382784 19030.48667871
0.10900001 960046.64016385 15840.77030826
0.11000001 950158.96373070 17402.16223984
0.11100001 940292.88125293 22115.68960813
0.11200001 930450.00694795 18925.35403227
0.11300001 920632.04601209 18891.37047359
0.11400001 910841.22110949 17283.21298432
0.11500001 901079.66814430 21950.30174959
0.11600001 891347.58605042 15643.15087184
0.11700001 881648.65551686 17165.70013133
0.11800001 871981.54073455 18677.84548223
0.11900001 862349.45437684 21731.20727387
0.12000001 852753.29518456 20120.71494766
0.12100001 843198.01865406 21602.73425558
0.12200001 833681.07883174 16919.55829199
0.12300001 824206.65055719 18396.29330717
0.12400001 814773.19475777 21387.79737013
0.12500001 805383.69240016 16743.92775398
0.12600001 796041.36569191 18197.50647725
0.12700001 786745.23453798 19637.16197950
0.12800001 777496.47211298 16549.01318887
0.12900001 768298.17597462 19476.35967892
0.13000001 759150.55984116 14917.30920400
0.13100001 750053.78835793 16336.17228048
0.13200001 741011.30519344 19218.12910614
0.13300001 732022.88734035 19127.75894794
0.13400001 723089.27902462 19035.32616776
0.13500001 714212.83141615 18940.92518219
0.13600001 705393.85287277 15945.42879603
0.13700001 696633.81071607 17304.38467415
0.13800001 687931.36051000 17212.04345161
0.13900001 679291.55816879 17118.14807311
0.14000001 670711.89122269 19859.78003570
0.14100001 662195.89654609 18336.20524015
0.14200001 653742.27418714 14022.77244270
0.14300001 645354.01235933 18121.54152180
0.14400001 637027.15430350 16626.40951159
0.14500001 628769.14739342 13770.04497748
0.14600001 620576.22882711 16420.44778939
0.14700001 612451.86335545 13596.43200792
0.14800001 604392.90659012 13508.18209959
0.14900001 596403.07996140 16102.88391870
0.15000001 588481.55335890 19993.66171873
0.15100001 580630.08404074 14562.20319486
0.15200001 572849.50488066 19720.34513606
0.15300001 565139.08303761 16971.12746447
0.15400001 557497.63092951 14258.00258387
0.15500001 549929.66395730 15442.02569268
0.15600001 542431.35328293 12774.25897269
0.15700001 535008.39407305 13947.66949177
0.15800001 527654.44245164 17618.38266503
0.15900001 520375.56451825 13737.91555172
0.16000001 513167.61658914 16110.89808329
0.16100001 506035.18929137 19674.64908838
0.16200001 498975.77966952 15859.94590548
0.16300001 491989.68842766 12102.94690667
0.16400001 485078.14203504 13206.25304037
0.16500001 478239.81422716 13098.98913010
0.16600001 471476.74008242 14172.59147601
0.16700001 464786.27615033 15226.39912560
0.16800001 458170.57028188 13937.54940606
0.16900001 451630.84755872 12668.24587219
0.17000001 445163.60129523 12560.29160364
0.17100001 438771.59834716 13584.36932630
0.17200001 432453.12073468 12344.37491431
0.17300001 426209.37409466 17798.50430272
0.17400001 420040.11020470 13231.26409631
0.17500001 413943.83007562 14206.55291914
0.17600001 407920.43492263 11913.31686457
0.17700001 401973.60992873 11805.96548121
0.17800001 396098.14190213 10635.23561240
0.17900001 390295.53891445 10537.98004844
0.18000001 384567.72794105 11485.11573746
0.18100001 378912.74112780 10344.31832142
0.18200001 373328.11098222 11272.64284360
0.18300001 367816.67354098 12182.08880315
0.18400001 362376.67828440 15083.92994616
0.18500001 357008.92244664 12948.71422886
0.18600001 351712.52670546 13811.75157624
0.18700001 346485.86358561 10747.99199621
0.18800001 341328.47856448 14514.99423673
0.18900001 336244.84784136 10541.27647788
0.19000001 331226.40708502 14234.45551704
0.19100001 326279.90176927 11276.23393795
0.19200001 321400.27550925 13956.80762347
0.19300001 316590.91889656 11055.35541026
0.19400001 311847.44872396 10945.84596744
0.19500001 307172.10611705 10837.03241591
0.19600001 302561.98087784 10728.84834893
0.19700001 298020.10048354 10621.43688318
0.19800001 293542.59638802 9638.47160790
0.19900001 289130.55173718 11276.09205066
0.20000001 284781.49572769 13737.86000317
0.20100001 280498.12789472 9349.00304459
0.20200001 276276.75167346 9253.89023467
0.20300001 272118.69700742 14155.61528739
0.20400001 268022.85592566 9065.87353019
0.20500001 263988.01860103 13051.56825654
0.20600001 260013.89525090 9688.11819499
0.20700001 256100.21830241 11186.45806422
0.20800001 252245.67559600 8698.69253412
0.20900001 248452.32164794 8608.87335205
0.21000001 244714.51693532 9294.25779256
0.21100001 241035.76821182 9964.41912893
0.21200001 237412.96600677 7585.34462251
0.21300001 233846.47450905 7506.47218661
0.21400001 230336.07282796 9656.84030985
0.21500001 226881.43284011 8821.15052587
0.21600001 223479.73561722 8001.69231208
0.21700001 220132.14436661 7918.15360723
0.21800001 216837.50389772 7835.42357381
0.21900001 213594.08258414 7753.46556440
0.22000001 210401.97926499 10462.23891363
0.22100001 207262.06949288 7592.00996450
0.22200001 204171.95371803 8195.46260976
0.22300001 201130.65429725 7433.78933434
0.22400001 198137.34451886 9361.98997121
0.22500001 195194.45150398 7940.51066267
0.22600001 192296.86019809 9166.79175912
0.22700001 189447.02690064 8422.81521431
0.22800001 186642.17936845 7052.27508094
0.22900001 183882.53184632 6978.34241358
0.23000001 181167.82255748 9416.19802273
0.23100001 178498.15724112 7454.08339891
0.23200001 175869.75378621 7990.64264118
0.23300001 173285.28109510 7298.77638492
0.23400001 170741.26654056 7222.35591625
0.23500001 168238.60193147 8933.47018508
0.23600001 165776.78062894 6482.70131311
0.23700001 163354.58208183 5831.75885615
0.23800001 160971.55833110 6347.91370304
0.23900001 158627.07464016 6281.63245287
0.24000001 156319.77154995 7346.24801147
0.24100001 154050.95320510 6151.25485244
0.24200001 151818.42103177 5533.78170837
0.24300001 149621.41484460 5476.14404235
0.24400001 147459.47454390 7044.87672958
0.24500001 145331.99456198 6435.30102362
0.24600001 143238.53366891 6899.08430053
0.24700001 141179.48976031 10503.75453506
0.24800001 139152.68209058 5717.08821415
0.24900001 137156.91781721 7200.73852605
0.25000001 135194.13348732 6617.07717658
0.25100001 133261.72939007 6548.48169203
0.25200001 131361.59077933 5982.20712711
0.25300001 129489.48010718 6413.61425314
0.25400001 127648.02676258 5859.04470560
0.25500001 125833.55757633 5315.20972350
0.25600001 124049.03917874 5738.50882391
0.25700001 122291.33030700 7099.01206020
0.25800001 120560.63070367 6088.91494178
0.25900001 118857.87660587 5099.00314765
0.26000001 117180.09742104 5963.88134043
0.26100001 115528.06029942 5448.30358151
0.26200001 113902.08401482 9436.21859670
0.26300001 112299.57804431 5336.47620117
0.26400001 110722.12060988 4401.20450250
0.26500001 109168.45933904 4791.40390711
0.26600001 107637.69734861 8190.69096732
0.26700001 106130.13007423 5119.71771705
0.26800001 104645.19346499 4644.67713173
0.26900001 103181.50942672 5014.62159544
0.27000001 101739.94207978 4962.87460951
0.27100001 100319.37235022 4502.33364414
0.27200001 98920.07110807  4455.85481393
0.27300001 97541.14907754  4008.94141681
0.27400001 96180.66602831  4760.94319371
0.27500001 94841.92129312  5104.39244556
0.27600001 93520.29187829  5051.49880487
0.27700001 92219.53379910  4230.11021556
0.27800001 90935.94538206  4186.23644379
0.27900001 89671.11564495  4519.42444240
0.28000001 88423.58216842  4099.75958127
0.28100001 87193.99974605  4057.13700020
0.28200001 85982.18850050  4379.93288952
0.28300001 84786.94751978  4695.50137588
0.28400001 83607.65389178  4289.07284765
0.28500001 82445.43132672  5305.36375698
0.28600001 81298.89514865  4549.89288235
0.28700001 80168.87698886  4848.61390978
0.28800001 79052.64978394  4797.70554248
0.28900001 77953.74495728  3730.08687276
0.29000001 76868.80194983  4361.92037311
0.29100001 75799.14778649  3984.00339624
0.29200001 74743.71005866  4598.98069760
0.29300001 73703.00171960  3900.36303563
0.29400001 72675.49980236  4180.65832403
0.29500001 71663.11713384  5727.31659245
0.29600001 70663.32110966  3462.85621490
0.29700001 69677.38940336  3737.49534452
0.29800001 68705.06113336  4005.84877901
0.29900001 67746.12611704  4877.72131133
0.30000001 66799.04898296  3015.97720436
0.30100001 65865.96545513  3878.84688928
0.30200001 64944.38300728  4132.41128638
0.30300001 64036.11643485  4380.07057150
0.30400001 63139.76000601  2888.64415703
0.30500001 62256.16676191  3429.06982759
0.30600001 61383.20917937  3957.37568315
0.30700001 60523.08026104  3635.01637257
0.30800001 59674.42395318  3042.50064930
0.30900001 58837.69668288  3283.14363034
0.31000001 58012.47791921  2976.91044537
0.31100001 57197.90353613  2944.54821345
0.31200001 56395.62024750  3706.88429437
0.31300001 55603.62967938  2880.82419008
0.31400001 54823.98629558  3367.56351765
0.31500001 54053.85467465  4099.44453262
0.31600002 53296.07978977  3547.92019959
0.31700002 52548.27778744  3007.86356297
0.31800002 51810.89736288  3222.89702306
0.31900002 51084.80233429  3432.89887941
0.32000002 50369.58183103  3637.94322000
0.32100002 49664.12109827  2638.65487889
0.32200002 48970.10137869  2609.86167656
0.32300002 48284.98763917  2581.31556142
0.32400002 47611.35934420  2553.15926573
0.32500002 46947.19102251  2525.28952468
0.32600002 46293.52838858  2724.83720998
0.32700002 45650.15868866  2470.58670522
0.32800002 45017.66868731  3776.75749336
0.32900002 44393.27948784  2636.96092645
0.33000002 43780.06420022  2608.41634857
0.33100002 43175.75001930  2150.15245278
0.33200002 42582.88218739  2127.01506598
0.33300002 41998.99399947  3156.22454852
0.33400002 41425.28072088  2914.26863672
0.33500002 40861.27030765  3089.11218155
0.33600002 40306.31045294  3463.72295280
0.33700002 39761.03335173  3023.82672960
0.33800002 39226.34558788  1994.65976761
0.33900002 38700.23030841  2565.82539096
0.34000002 38183.83255547  3320.27531710
0.34100002 37677.18384923  1932.83962300
0.34200002 37180.48485640  2678.11045104
0.34300002 36692.36596532  2461.32402552
0.34400002 36214.45765547  2061.50809967
0.34500002 35745.54006740  2226.23234083
0.34600002 35286.69898672  2020.34004617
0.34700002 34835.65723710  2000.26353329
0.34800002 34394.90218279  2700.85982182
0.34900002 33962.93266550  1961.35945433
0.35000002 33540.45655196  2295.67665743
0.35100002 33127.69050190  2273.88478375
0.35200002 32722.48088319  2079.18653379
0.35300002 32327.72846189  1716.60246263
0.35400002 31941.04233841  2381.20481911
0.35500002 31563.87284084  2191.16415639
0.35600002 31195.40940647  2171.66852869
0.35700002 30835.53627940  1821.45521430
0.35800002 30485.00369899  1969.94103234
0.35900002 30143.61953139  2604.40885087
0.36000002 29810.63328604  1937.09504268
0.36100002 29485.85689261  1761.19031562
0.36200002 29171.20623026  1747.20947992
0.36300002 28863.66913562  1575.95640945
0.36400002 28565.26861730  1876.73823705
0.36500002 28274.69313909  2483.64916298
0.36600002 27993.37228064  1695.13873875
0.36700002 27719.83165549  1989.17521382
0.36800002 27455.58370308  1671.63329295
0.36900002 27199.16728617  1660.50924148
0.37000002 26950.28983136  1649.76207018
0.37100002 26709.69844125  1490.40124362
0.37200002 26477.85684146  2074.01062464
0.37300002 26253.61002285  1914.67586967
0.37400002 26037.23391291  1611.05392468
0.37500002 25828.84840003  1456.74711877
0.37600002 25628.48168547  1594.21977876
0.37700002 25435.58979043  1442.19800944
0.37800002 25250.20149289  1435.47402287
0.37900002 25073.30950067  1572.09658017
0.38000002 24903.11670281  1707.85582438
0.38100002 24739.69293938  1984.61826161
0.38200002 24584.78606957  1977.35443725
0.38300002 24436.47910687  1407.54126324
0.38400002 24295.49073384  2244.90345016
0.38500002 24161.11552709  1678.71438635
0.38600002 24034.69752461  1674.25710888
0.38700002 23914.25715248  1809.35278187
0.38800002 23800.53182758  2360.89386648
0.38900002 23693.69507818  1663.29747329
0.39000002 23593.98932669  1660.54504748
0.39100002 23499.94217256  1934.51533130
0.39200002 23413.10720277  1794.26355549
0.39300002 23331.78023484  1930.47158809
0.39400002 23257.95381389  1929.24736026
0.39500002 23188.79505765  1515.15594085
0.39600002 23126.07998022  1652.58975368
0.39700002 23068.56496267  1790.35141158
0.39800002 23018.12091010  2066.45190261
0.39900002 22972.13300408  1791.82645921
0.40000002 22932.22836267  1793.18568178
0.40100002 22897.27205766  1380.70557049
0.40200002 22868.18667663  1658.85834012
0.40300002 22844.06233498  1522.78526740
0.40400002 22824.96323096  2495.90984756
0.40500002 22810.51274093  1666.99235009
0.40600002 22801.76574503  1809.66222410
0.40700002 22797.20943211  1534.70821169
0.40800002 22796.96801567  1678.31286483
0.40900002 22801.07875703  1822.94633300
0.41000002 22810.39729676  1968.76548397
0.41100002 22823.47476670  1551.53988816
0.41200002 22839.79411036  1980.89543705
0.41300002 22861.64240574  1845.62047887
0.41400002 22886.45366359  1994.55453129
0.41500002 22914.89194774  1429.88932529
0.41600002 22946.19290297  1865.86976432
0.41700002 22982.36781088  1729.19343603
0.41800002 23022.42872459  2025.74359947
0.41900002 23063.65372706  1598.31127902
0.42000002 23108.77062134  2043.04650744
0.42100002 23157.72022560  2345.41401559
0.42200002 23208.82110405  1472.59976883
0.42300002 23262.52363943  1775.39588829
0.42400002 23318.71516236  1932.53861066
0.42500002 23378.03881269  1792.62810110
0.42600002 23438.40604407  1951.59897174
0.42700002 23502.14833479  1659.72179405
0.42800002 23567.32074755  1819.86859436
0.42900002 23635.40286679  1981.82862429
0.43000002 23705.25348117  2145.56259425
0.43100002 23775.22167398  1848.76132498
0.43200002 23848.19052304  1703.83405266
0.43300002 23921.94340574  1868.78230741
0.43400002 23997.57301552  1565.84171347
0.43500002 24073.88953722  2361.64867552
0.43600002 24152.08230086  1741.48597683
0.43700002 24230.61539212  1910.34180804
0.43800002 24309.58930999  2081.02249150
0.43900002 24390.41243511  1931.72075640
0.44000002 24471.11390768  2104.39354022
0.44100002 24552.78821322  1627.84993568
0.44200002 24634.79563820  1800.68047251
0.44300002 24717.19246803  2140.01462530
0.44400002 24799.64040504  2151.98889813
0.44500002 24881.75350417  2496.88408247
0.44600002 24963.78918969  1841.20435894
0.44700002 25046.82087150  2356.40501926
0.44800002 25128.37454336  2538.59415855
0.44900002 25210.44228806  2382.38690913
0.45000002 25292.34007453  2224.33495327
0.45100002 25372.72269956  3096.48722500
0.45200002 25453.05060893  1729.53487084
0.45300002 25532.22936030  2086.49388221
0.45400002 25610.94694607  2097.53665429
0.45500002 25689.10048838  2459.98837935
0.45600002 25765.68248246  1942.86137967
0.45700002 25841.57934471  1952.84824363
0.45800002 25915.99835119  2854.90651367
0.45900002 25989.03295066  1793.24335859
0.46000002 26061.36932136  2883.43003837
0.46100002 26131.39522040  1991.99635206
0.46200002 26200.64193346  2183.56160222
0.46300002 26268.28417287  2011.09993159
0.46400002 26333.69922110  2204.13072927
0.46500002 26398.56762124  1845.25996418
0.46600002 26460.55908827  3151.05582837
0.46700002 26520.72485776  1861.75497325
0.46800002 26579.91639560  2617.85608988
0.46900002 26636.10240130  2441.19890078
0.47000002 26690.70886631  2074.26853786
0.47100002 26743.35913143  2272.11589950
0.47200002 26794.01477663  2091.13898236
0.47300002 26842.41161904  2481.04422354
0.47400002 26887.84609938  2490.48686300
0.47500002 26931.54615298  1922.91248646
0.47600002 26973.52167568  3087.92890779
0.47700002 27012.08546860  2324.11994388
