# SAXS profile: number of points = 501, q_min = 0, q_max = 0.5, delta_q = 0.001
#    q    intensity    error
0.00000000 1664650.74656090 324.60689558
0.00100000 1664568.83036036 599.24479316
0.00200000 1664323.01052150 1048.52352983
0.00300000 1663913.52989219 998.34815350
0.00400000 1663340.25234489 1621.75680766
0.00500000 1662603.65704767 1645.97768563
0.00600000 1661703.70535997 2093.74675399
0.00700000 1660640.92544640 2989.15379003
0.00800000 1659415.17419320 2240.21057974
0.00900000 1658027.58719782 3233.15393325
0.01000000 1656477.71296639 3006.50717885
0.01100000 1654766.66200580 3574.29614555
0.01200000 1652894.44652795 3867.77317445
0.01300000 1650862.24193641 4160.17303316
0.01400000 1648670.07079434 3709.50782373
0.01500000 1646319.24028050 3951.16635261
0.01600000 1643809.34179036 6287.57101342
0.01700000 1641142.50200406 4431.08495418
0.01800000 1638318.79361918 6536.89228068
0.01900000 1635338.69243414 6868.42281814
0.02000000 1632203.62057752 7198.01829235
0.02100000 1628915.45100043 6450.50547842
0.02200000 1625472.61549627 7290.24501171
0.02300000 1621878.73761103 7006.51646540
0.02400000 1618132.92906690 10315.59789317
0.02500000 1614237.99623542 7554.63416741
0.02600000 1610193.90870399 7173.41419138
0.02700000 1606002.71624646 12141.38109091
0.02800000 1601664.34365862 6967.24021443
0.02900000 1597181.35254771 7906.04805811
0.03000000 1592555.08564147 7405.38148862
0.03100000 1587785.68349427 9145.64595775
0.03200000 1582874.94866782 10185.80076382
0.03300000 1577826.53344699 8851.60726070
0.03400000 1572638.62648340 9907.62380399
0.03500000 1567314.25755733 11002.54659613
0.03600000 1561854.95452967 11268.78401770
0.03700000 1556262.37378632 11531.90472308
0.03800000 1550538.07213310 10884.77777012
0.03900000 1544684.27106307 13902.15908338
0.04000000 1538700.50291977 9463.00853146
0.04100000 1532591.29770678 14482.98843486
0.04200000 1526356.88704485 10829.50261599
0.04300000 1519998.65183696 13041.58903813
0.04400000 1513519.89089688 11237.88571182
0.04500000 1506921.98378450 12477.31460549
0.04600000 1500205.10487460 11634.09112913
0.04700000 1493373.26649040 16128.43202820
0.04800000 1486427.34665753 13110.28980752
0.04900000 1479370.56874142 14423.86371662
0.05000000 1472202.63169686 11262.35065693
0.05100000 1464928.60242104 17139.66544676
0.05200000 1457546.32988454 16222.49140760
0.05300000 1450062.22686401 15269.15596069
0.05400000 1442475.67225346 11900.42485105
0.05500000 1434789.78145286 14462.68167172
0.05600000 1427005.27170336 12200.89564241
0.05700000 1419127.68013693 12346.41139350
0.05800000 1411155.66088603 17484.21945476
0.05900000 1403091.71982905 12627.82606825
0.06000000 1394940.15703567 17869.18424645
0.06100000 1386701.75679758 15475.59232906
0.06200000 1378378.89161637 19538.52170196
0.06300000 1369975.12997351 21042.81898026
0.06400000 1361488.77001728 17256.87096702
0.06500000 1352925.86398496 17412.15668399
0.06600000 1344287.87328575 18914.13126209
0.06700000 1335575.97452497 17709.73825100
0.06800000 1326793.61124747 15105.54597113
0.06900000 1317943.28979976 15222.24570988
0.07000000 1309025.63482988 18123.46076291
0.07100000 1300043.87346196 18252.61683832
0.07200000 1291000.50031360 24031.97543916
0.07300000 1281897.92554160 18497.78793229
0.07400000 1272739.08087479 20045.64146320
0.07500000 1263524.75085157 15844.60111835
0.07600000 1254256.83914691 14486.66717129
0.07700000 1244940.31105524 17478.96278678
0.07800000 1235575.45727781 20498.19779753
0.07900000 1226164.27259061 16185.36915735
0.08000000 1216710.99787154 16261.34324939
0.08100000 1207216.36918689 14848.76203768
0.08200000 1197682.39784772 16402.26120820
0.08300000 1188112.76427834 19461.28799224
0.08400000 1178508.74932282 16528.58598508
0.08500000 1168872.94215684 19602.00016019
0.08600000 1159206.95075672 18153.18170117
0.08700000 1149515.00293203 15173.59875122
0.08800000 1139796.62840530 16737.91427421
0.08900000 1130056.70252829 22883.64930104
0.09000000 1120295.70189852 15292.03704927
0.09100000 1110515.67320238 24520.18721630
0.09200000 1100719.11809997 23032.54862847
0.09300000 1090910.95120976 18458.21416186
0.09400000 1081087.89334011 18486.60384494
0.09500000 1071255.73355434 18511.29994590
0.09600000 1061415.60757711 15443.59781622
0.09700000 1051572.01098433 26278.78578994
0.09800000 1041724.36355409 17016.56827874
0.09900000 1031876.61676158 18573.77997509
0.10000000 1022027.89941997 20128.84042568
0.10100000 1012182.03471768 20132.30161739
0.10200000 1002341.22429288 18583.40717248
0.10300000 992506.67449478 18579.72582055
0.10400000 982682.13452332 15477.24434687
0.10500000 972869.67911947 18562.35435095
0.10600001 963066.37223058 20094.38080210
0.10700001 953280.20779479 30886.28018599
0.10800001 943509.75698163 18511.66230317
0.10900001 933758.50061790 16947.71758387
0.11000001 924026.47473951 15385.04152858
0.11100001 914316.75733564 16896.57447094
0.11200001 904630.84711808 19933.54165466
0.11300001 894970.12281655 15303.98982069
0.11400001 885337.15083075 16799.27322800
0.11500001 875733.59528774 22856.64791328
0.11600001 866160.34468255 18241.33771803
0.11700001 856620.26374042 18194.61525872
0.11800001 847112.49497988 15120.95874756
0.11900001 837640.22672592 18093.02974949
0.12000001 828203.99688529 19541.47422701
0.12100001 818808.77799159 16482.62147744
0.12200001 809452.73379329 16427.84400627
0.12300001 800138.49677494 14882.57674120
0.12400001 790866.30412214 17794.49268118
0.12500001 781637.88683510 16250.25243302
0.12600001 772457.08668328 20601.43147265
0.12700001 763322.27844846 17586.94612426
0.12800001 754235.38644685 18972.79204024
0.12900001 745198.93161575 20343.93179196
0.13000001 736213.45049526 14466.59498411
0.13100001 727278.95082275 14400.12390508
0.13200001 718398.18253859 17198.45330071
0.13300001 709572.03080899 15688.63834080
0.13400001 700800.74989114 25544.18853783
0.13500001 692086.54061478 19765.99253189
0.13600001 683429.64760070 18257.82389652
0.13700001 674831.94971709 16762.82642139
0.13800001 666291.85732992 19449.06023260
0.13900001 657814.00499508 17958.32318325
0.14000001 649396.31659888 19228.62584133
0.14100001 641042.32264381 17750.46275117
0.14200001 632750.63799801 21716.00292033
0.14300001 624523.95050164 16187.66156054
0.14400001 616358.93097595 13405.80738108
0.14500001 608262.06818127 18649.31589017
0.14600001 600230.63332956 15882.10330713
0.14700001 592267.03315923 15777.99450771
0.14800001 584368.52588413 14366.70088666
0.14900001 576539.43176045 14269.35160931
0.15000001 568778.53445874 19324.25162001
0.15100001 561086.60434340 14072.05270092
0.15200001 553465.73829701 13972.24322262
0.15300001 545914.61328131 16393.81661045
0.15400001 538432.52875643 13770.41257279
0.15500001 531023.07975052 17396.31691361
0.15600001 523683.37538687 17265.84170137
0.15700001 516418.15544884 12239.11086178
0.15800001 509222.12658211 13359.44312143
0.15900001 502100.68420132 16870.58378547
0.16000001 495049.27447065 14346.52865135
0.16100001 488073.41168553 13046.20291019
0.16200001 481170.01798623 11764.60749512
0.16300001 474339.39356905 12835.62459592
0.16400001 467582.77560531 16201.74393960
0.16500001 460899.07016732 13771.66486678
0.16600001 454289.55185846 12517.94919247
0.16700001 447752.99426496 16925.06398233
0.16800001 441290.35438414 11186.71101183
0.16900001 434902.76550529 11090.02104403
0.17000001 428587.19427831 13191.91446280
0.17100001 422346.36380080 15255.15138085
0.17200001 416178.89611586 14039.79572347
0.17300001 410084.85775898 11773.53682226
0.17400001 404065.31978995 12728.05817448
0.17500001 398117.87214784 12612.37478530
0.17600001 392242.54313720 10414.04001214
0.17700001 386443.17860628 12381.64002734
0.17800001 380714.53387157 14311.06000417
0.17900001 375058.38787689 13164.55003629
0.18000001 369475.81601297 15046.90331787
0.18100001 363965.59998596 10929.88748387
0.18200001 358525.31716094 14762.28063144
0.18300001 353156.97353032 12671.27280885
0.18400001 347859.99075767 11583.73823945
0.18500001 342634.06333250 9559.49081859
0.18600001 337478.77292446 10412.90803053
0.18700001 332392.77256524 9373.47662919
0.18800001 327375.14246326 11137.30287279
0.18900001 322430.22302234 11027.11414837
0.19000001 317549.78260590 9097.80170152
0.19100001 312740.57858030 10808.31490643
0.19200001 307997.64555715 9808.18548622
0.19300001 303323.84525430 10592.06917678
0.19400001 298715.12606372 11358.64320531
0.19500001 294173.71048999 12973.06124565
0.19600001 289697.01357236 10272.65658672
0.19700001 285287.47406247 9320.34221808
0.19800001 280941.30977902 9224.70834254
0.19900001 276659.81129853 9959.75367744
0.20000001 272440.52635500 9035.49048359
0.20100001 268286.07944943 9754.88230982
0.20200001 264192.62453568 14480.39843519
0.20300001 260161.67885131 8757.04252403
0.20400001 256192.48400832 7877.91925561
0.20500001 252282.86514216 10134.20317177
0.20600001 248432.92470581 9256.61121208
0.20700001 244642.98480318 12212.57837865
0.20800001 240910.86450352 8307.81155512
0.20900001 237239.41652053 8220.34617102
0.21000001 233622.35577836 8133.56270092
0.21100001 230063.44096780 8047.61954549
0.21200001 226559.59087005 8686.29512460
0.21300001 223111.08231130 8594.23929693
0.21400001 219717.72981048 9211.66625780
0.21500001 216379.21161127 9814.96150271
0.21600001 213092.52345968 8323.39435985
0.21700001 209859.01361101 10979.82411125
0.21800001 206677.69342777 6789.36255011
0.21900001 203546.97001720 9403.87045942
0.22000001 200466.09546523 8639.08679255
0.22100001 197436.71789771 6574.64301687
0.22200001 194455.78224077 9106.36471292
0.22300001 191522.94109279 9009.23957501
0.22400001 188637.45464392 7003.16583481
0.22500001 185800.97776808 10707.71085511
0.22600001 183009.05180829 7477.75021050
0.22700001 180263.67906501 8014.52355023
0.22800001 177562.85202092 7319.14110642
0.22900001 174905.60795033 7844.51688755
0.23000001 172292.68577034 7163.93021313
0.23100001 169723.80387960 6497.02751977
0.23200001 167195.25350072 6427.82182483
0.23300001 164709.44310806 8671.95258977
0.23400001 162263.51163295 6291.76796114
0.23500001 159857.71780559 6790.75617356
0.23600001 157491.70760045 8398.24570501
0.23700001 155164.86635459 5539.38599086
0.23800001 152875.64088995 8768.94717621
0.23900001 150624.18263557 6506.96499763
0.24000001 148409.09316744 5364.98897177
0.24100001 146231.36509041 6369.83856464
0.24200001 144089.12999501 6302.45884410
0.24300001 141981.17167009 6755.46446762
0.24400001 139907.73096806 5655.77029192
0.24500001 137867.64323869 5087.31627616
0.24600001 135860.79779741 7047.09991512
0.24700001 133887.07102959 5976.71913350
0.24800001 131944.77844397 9363.46164523
0.24900001 130032.88596034 6826.72683587
0.25000001 128152.89485761 5307.45239161
0.25100001 126302.00746623 5729.05932970
0.25200001 124482.74982818 4724.12057948
0.25300001 122690.77820865 6544.32641926
0.25400001 120928.46690526 6013.16830135
0.25500001 119192.17475505 5034.67769985
0.25600001 117484.80544335 5887.75130336
0.25700001 115803.32251958 4481.58879355
0.25800001 114148.30651088 4878.12810955
0.25900001 112519.90212358 5704.75930758
0.26000001 110916.02243135 6079.30747711
0.26100001 109336.45072972 5156.30726039
0.26200001 107782.71977965 5102.43419580
0.26300001 106251.06934744 5469.80530882
0.26400001 104743.99912934 4163.57416240
0.26500001 103259.72529850 4944.07588124
0.26600001 101797.44297677 6523.18045463
0.26700001 100357.47528922 4034.37069753
0.26800001 98939.42158979  4790.64702008
0.26900001 97541.80854441  4740.53211959
0.27000001 96165.49226956  4300.04019032
0.27100001 94809.18348056  4641.85784287
0.27200001 93473.47991879  4593.28702058
0.27300001 92157.26509601  5302.72928457
0.27400001 90858.77066914  5247.09425446
0.27500001 89581.33645622  4079.53425528
0.27600001 88320.01143113  6605.45396754
0.27700001 87078.67270930  3631.18082383
0.27800001 85854.00734892  5030.18652864
0.27900001 84647.29787221  3555.18667889
0.28000001 83457.22108849  3869.49423890
0.28100001 82284.13134295  3828.68081260
0.28200001 81128.16841635  3788.28000350
0.28300001 79987.92175602  3748.23419089
0.28400001 78863.06797429  5057.09447321
0.28500001 77754.49632330  3669.23485517
0.28600001 76660.89739583  4290.32732583
0.28700001 75583.19529176  4244.75244850
0.28800001 74518.66259157  3553.42259387
0.28900001 73470.36395509  4793.94147498
0.29000001 72435.75104478  4426.54895587
0.29100001 71415.66110424  4066.40793576
0.29200001 70409.09008181  4641.71948336
0.29300001 69416.49148288  3979.64764509
0.29400001 68436.68535134  3028.32347015
0.29500001 67471.33655111  2995.72748468
0.29600001 66517.63747591  5037.71351271
0.29700001 65577.68075062  4103.85145564
0.29800001 64650.29057854  3189.52223668
0.29900001 63735.80558539  3441.73366454
0.30000001 62832.72304370  3120.58733769
0.30100001 61942.87921851  3647.81632987
0.30200001 61063.96756348  3330.42894858
0.30300001 60197.87706798  3019.52565668
0.30400001 59343.10378035  2714.94712648
0.30500001 58500.58671542  2953.69476310
0.30600001 57668.08950844  4514.54660090
0.30700001 56847.99367176  3151.65291837
0.30800001 56038.71577783  3896.09189891
0.30900001 55240.83582531  3339.30868374
0.31000001 54453.78465844  3302.34992696
0.31100001 53677.27018088  3516.93490876
0.31200001 52912.41036995  2981.08534138
0.31300001 52157.32309557  3684.91505117
0.31400001 51414.19570272  2429.32086197
0.31500001 50680.17486564  4804.48080474
0.31600002 49957.84447054  2613.04517875
0.31700002 49244.99008930  2583.88475233
0.31800002 48542.20244136  3251.84229552
0.31900002 47850.33560941  2756.17946160
0.32000002 47168.75975035  2952.52865637
0.32100002 46496.70727455  3593.26570832
0.32200002 45835.54354093  2886.95184662
0.32300002 45182.80606090  2854.64982210
0.32400002 44541.04441757  2605.65122181
0.32500002 43908.82284273  2361.85569255
0.32600002 43286.60021817  2547.84940949
0.32700002 42674.04588381  2729.43210397
0.32800002 42072.14038539  2906.76431687
0.32900002 41477.85005099  3079.73051212
0.33000002 40894.63761063  2639.54450957
0.33100002 40319.89591906  2208.72400304
0.33200002 39756.21449841  2978.73451235
0.33300002 39201.13216351  3338.76058447
0.33400002 38656.16684265  2719.46146616
0.33500002 38120.20265652  2113.38413536
0.33600002 37593.12284383  2470.43218467
0.33700002 37075.59351157  2819.59902008
0.33800002 36568.19415175  2045.44203674
0.33900002 36069.18736437  2207.43437124
0.34000002 35579.52081412  1819.89257583
0.34100002 35099.18485368  1800.58826827
0.34200002 34628.81677428  1959.81797816
0.34300002 34166.88216593  2115.61344391
0.34400002 33714.72926964  2093.68478680
0.34500002 33271.26818495  2417.49046081
0.34600002 32837.42704349  2221.94460613
0.34700002 32411.52411035  2537.82245803
0.34800002 31995.59953027  2009.96365769
0.34900002 31588.18496987  1824.21776841
0.35000002 31190.03745561  2299.01776974
0.35100002 30801.45628818  2114.21205975
0.35200002 30420.16049134  1610.74757431
0.35300002 30049.07646762  2393.40905401
0.35400002 29686.23538101  1896.95053069
0.35500002 29332.54851128  1566.35816469
0.35600002 28987.08490106  2017.93601097
0.35700002 28650.28850132  1846.22467847
0.35800002 28322.54370479  1677.68595582
0.35900002 28003.95700854  1512.21375009
0.36000002 27693.52645034  1499.60452832
0.36100002 27391.11186958  1933.53867846
0.36200002 27098.60669574  1623.07112492
0.36300002 26813.27846087  1610.40558064
0.36400002 26536.90058908  1598.18491368
0.36500002 26268.09358078  1586.33024648
0.36600002 26008.47023006  2147.64953098
0.36700002 25756.51210815  1848.28739643
0.36800002 25513.65283606  1553.39882651
0.36900002 25278.62420531  2104.44556478
0.37000002 25051.10250833  1533.50331269
0.37100002 24831.64998173  1385.60613462
0.37200002 24620.81432433  2204.05540272
0.37300002 24417.49937847  1643.78613603
0.37400002 24221.91347421  1771.22750671
0.37500002 24034.37015873  1762.20010352
0.37600002 23854.65902989  1618.77723845
0.37700002 23682.20611092  1745.61549513
0.37800002 23517.45516764  1604.36086754
0.37900002 23361.01870453  1597.89375509
0.38000002 23211.13355386  1591.81961453
0.38100002 23067.98043595  1586.15440992
0.38200002 22933.29999002  1844.52540558
0.38300002 22804.97372147  1707.63651316
0.38400002 22684.12565018  1441.00915019
0.38500002 22569.81945390  1698.83039078
0.38600002 22463.29976156  1825.59245811
0.38700002 22362.75522515  1822.11738207
0.38800002 22268.94070955  1299.39275196
0.38900002 22181.89054802  1816.69692195
0.39000002 22101.91733591  1944.41626975
0.39100002 22027.60565944  2072.35723862
0.39200002 21960.21123040  1553.46541604
0.39300002 21898.57605011  1941.30885882
0.39400002 21844.24568617  2329.68891280
0.39500002 21794.72458902  1941.91005288
0.39600002 21751.48014688  1942.95105617
0.39700002 21713.36325141  2074.06055604
0.39800002 21682.25029263  1557.21928980
0.39900002 21655.70104504  1689.14476154
0.40000002 21635.12153430  1301.35262194
0.40100002 21619.54886284  1825.12240147
0.40200002 21609.76043734  1959.46512049
0.40300002 21604.76551876  1571.09862296
0.40400002 21604.88656450  1443.74661308
0.40500002 21609.56245456  2368.84034851
0.40600002 21620.05883993  1319.90465472
0.40700002 21634.59305913  2118.45945273
0.40800002 21653.48850168  1461.28574077
0.40900002 21676.54268424  1599.72892589
0.41000002 21704.86022769  1605.72563573
0.41100002 21736.84922754  1477.67108050
0.41200002 21772.25479246  1483.67037313
0.41300002 21812.94097793  1760.95880859
0.41400002 21856.65747459  2040.86548839
0.41500002 21904.03832274  1913.53687854
0.41600002 21954.20524931  1510.55916375
0.41700002 22009.28636483  2207.97171274
0.41800002 22067.94745285  2635.24406995
0.41900002 22128.00089912  1812.28335951
0.42000002 22191.82545191  1961.97938117
0.42100002 22259.30530475  1409.01409256
0.42200002 22329.25430926  1416.79125306
0.42300002 22401.50136010  1994.62977562
0.42400002 22476.36775062  1862.72906560
0.42500002 22554.09988084  1729.44846081
0.42600002 22632.98556752  2174.46419144
0.42700002 22715.29421109  1895.81854469
0.42800002 22798.89796701  1613.82006907
0.42900002 22885.43784081  1623.72189175
0.43000002 22973.52962347  1930.81038870
0.43100002 23061.84234898  1643.84820053
0.43200002 23153.08879001  1654.17250699
0.43300002 23245.07043984  1815.90498881
0.43400002 23338.82968059  1979.71632147
0.43500002 23433.23291326  2298.80025773
0.43600002 23529.51662633  2005.06785433
0.43700002 23626.05094810  2017.90110710
0.43800002 23723.02111557  2187.02542029
0.43900002 23821.75771334  2515.57773374
0.44000002 23920.37974135  2689.96643129
0.44100002 24019.81544025  2070.26799090
0.44200002 24119.57150741  2083.56928341
0.44300002 24219.71723293  2742.15651506
0.44400002 24319.74495940  2110.34596886
0.44500002 24419.41849557  2123.75692721
0.44600002 24518.95634841  1972.79532129
0.44700002 24619.33546836  1985.30330625
0.44800002 24718.32972202  1831.25754424
0.44900002 24817.60466333  2345.26375183
0.45000002 24916.66284909  2359.85725028
0.45100002 25014.14352602  2204.74671487
0.45200002 25111.50029642  2047.59183121
0.45300002 25207.75867842  1888.31329209
0.45400002 25303.25002299  1726.94689591
0.45500002 25398.13187183  2084.67876284
0.45600002 25491.43784647  1747.43814719
0.45700002 25583.97381143  2636.42862622
0.45800002 25674.86987525  2121.25784963
0.45900002 25764.42267270  1955.51977354
0.46000002 25853.05951911  2145.28698057
0.46100002 25939.36067041  2157.11733559
0.46200002 26024.77535443  1807.42073403
0.46300002 26108.37203769  2180.57133594
0.46400002 26189.70498168  2009.40520996
0.46500002 26270.36386957  1836.29852152
0.46600002 26348.00842236  2399.38150070
0.46700002 26423.86072670  2782.43266640
0.46800002 26498.41135512  2609.82865806
0.46900002 26570.17342088  1873.19731495
0.47000002 26639.94298251  2634.95688529
0.47100002 26707.72223398  2458.17887093
0.47200002 26773.33950553  2089.52538075
0.47300002 26836.54629991  2098.88638560
0.47400002 26896.82499401  2299.67864599
0.47500002 26955.16689485  3271.81831277
0.47600002 27011.63663526  2125.95096214
0.47700002 27064.55757879  2134.58175741
