# SAXS profile: number of points = 501, q_min = 0, q_max = 0.5, delta_q = 0.001
#    q    intensity    error
0.00000000 1682732.95097188 252.40994265
0.00100000 1682650.58611684 757.19278173
0.00200000 1682403.42897445 984.20603711
0.00300000 1681991.71342973 1009.19506401
0.00400000 1681415.30917743 1261.06152980
0.00500000 1680674.69509241 2268.91092818
0.00600000 1679769.84173234 1940.13424619
0.00700000 1678701.25544634 2417.32990831
0.00800000 1677468.80628373 2491.04128250
0.00900000 1676073.64737039 2765.52163638
0.01000000 1674515.29332335 2762.95035329
0.01100000 1672794.86978515 4215.44325540
0.01200000 1670912.41777783 5539.07490779
0.01300000 1668869.10412095 5256.93790984
0.01400000 1666664.91595519 3749.99622714
0.01500000 1664301.19924223 5192.61997286
0.01600000 1661777.47575786 4661.28602788
0.01700000 1659095.99774769 5375.47127384
0.01800000 1656256.78403129 5192.36525158
0.01900000 1653260.28152461 5455.75917521
0.02000000 1650107.90127399 7796.76018621
0.02100000 1646801.59787939 5434.44551939
0.02200000 1643339.80472526 6803.42710066
0.02300000 1639725.98468639 5903.01381357
0.02400000 1635959.45403714 8588.78752532
0.02500000 1632042.93672793 7001.46451832
0.02600000 1627976.40324399 6593.30473470
0.02700000 1623761.86419148 9547.72019874
0.02800000 1619399.29435096 9157.70342952
0.02900000 1614891.35826817 9447.11487963
0.03000000 1610239.25192619 8236.37415219
0.03100000 1605443.15809715 11559.19127017
0.03200000 1600504.96204266 8714.74991971
0.03300000 1595428.17940290 9764.02090807
0.03400000 1590210.96296406 10853.19032300
0.03500000 1584856.62622944 11125.69402989
0.03600000 1579366.48626070 11395.12972498
0.03700000 1573742.30224313 8970.33153764
0.03800000 1567985.50934885 11007.25878504
0.03900000 1562098.43570178 14058.88657238
0.04000000 1556080.57389525 12440.86476479
0.04100000 1549936.50362929 9764.60042562
0.04200000 1543666.47767539 12943.64401580
0.04300000 1537271.80219070 11160.59380196
0.04400000 1530755.77294947 11365.86214200
0.04500000 1524119.84633975 11568.07017123
0.04600000 1517364.10069176 11767.15914788
0.04700000 1510492.71539357 14138.21247362
0.04800000 1503506.38785986 13260.92695793
0.04900000 1496408.62196628 14589.98474330
0.05000000 1489198.85261465 11392.37175300
0.05100000 1481882.18306184 12714.54972297
0.05200000 1474456.54881507 16410.70215307
0.05300000 1466928.38539022 13070.33252314
0.05400000 1459296.98207305 14447.04079624
0.05500000 1451565.48550466 13412.46571174
0.05600000 1443734.85680304 14812.72032202
0.05700000 1435810.28882538 16239.01512463
0.05800000 1427790.42778196 15163.13505105
0.05900000 1419678.20475939 15332.52532752
0.06000000 1411477.55389996 21955.53437665
0.06100000 1403189.40484160 16964.56069731
0.06200000 1394816.21937884 13181.01388926
0.06300000 1386361.12265045 18632.69435960
0.06400000 1377822.89181281 14777.15120577
0.06500000 1369207.69925702 16266.18822807
0.06600000 1360516.50182307 13673.19148307
0.06700000 1351751.04592028 15166.64744501
0.06800000 1342914.24601944 19458.82833567
0.06900000 1334008.77794413 18209.22067147
0.07000000 1325035.52048906 14111.62895403
0.07100000 1315997.37793930 15634.04958218
0.07200000 1306897.09997852 15741.57630668
0.07300000 1297737.01804973 15845.36973283
0.07400000 1288520.12694303 18844.60773968
0.07500000 1279247.09349664 16041.75930436
0.07600000 1269919.77487890 17601.08890497
0.07700000 1260543.42051179 19172.86632497
0.07800000 1251118.10685661 16308.32528767
0.07900000 1241645.99311036 16389.72787780
0.08000000 1232131.08608972 17964.47207792
0.08100000 1222574.38755832 18045.19880701
0.08200000 1212977.85576362 19632.04751677
0.08300000 1203344.99654844 18194.57720172
0.08400000 1193677.35682544 19785.20311807
0.08500000 1183977.15498721 16800.63661798
0.08600000 1174246.60030145 18388.70262410
0.08700000 1164489.48020159 18445.51423255
0.08800000 1154705.41554998 23122.97703233
0.08900000 1144899.21719214 18547.36818968
0.09000000 1135071.63802903 17043.10144561
0.09100000 1125224.38724019 24844.95563751
0.09200000 1115360.42616660 17115.20654371
0.09300000 1105484.08808144 21822.25692420
0.09400000 1095592.59953144 17173.41480476
0.09500000 1085691.39815848 17197.35255515
0.09600000 1075782.05743216 23478.94450715
0.09700000 1065868.82701001 18801.92699239
0.09800000 1055951.02629537 17248.96082554
0.09900000 1046032.61761439 18828.58800243
0.10000000 1036112.98097650 15697.11239998
0.10100000 1026195.66894520 15700.79447330
0.10200000 1016283.28207981 15701.57744668
0.10300000 1006376.73489464 20409.32114373
0.10400000 996479.70689000 23541.83418280
0.10500000 986594.45716504 17255.53786768
0.10600001 976717.95132568 23514.48578461
0.10700001 966858.46087376 18795.72936387
0.10800001 957014.12034690 18776.61792487
0.10900001 947188.72580761 20317.19912482
0.11000001 937382.59986667 24971.87363586
0.11100001 927598.16586315 15583.64992008
0.11200001 917837.27348741 17113.07676981
0.11300001 908101.30709380 21739.94631536
0.11400001 898392.79055515 17047.00400343
0.11500001 888713.65199655 15463.61827289
0.11600001 879064.17758744 18513.09245180
0.11700001 869447.91369739 15389.22879720
0.11800001 859863.60927553 18418.27937815
0.11900001 850314.61146961 18366.79647285
0.12000001 840801.37088662 18312.65472053
0.12100001 831329.00614407 22819.98229366
0.12200001 821895.48471347 18196.76688883
0.12300001 812503.88494291 19646.34486355
0.12400001 803153.89166898 21082.79064968
0.12500001 793847.54713256 22505.57902168
0.12600001 784588.72190736 16441.05744233
0.12700001 775375.72570937 16375.93609872
0.12800001 766210.40647243 17791.40647679
0.12900001 757095.51491957 16239.69956044
0.13000001 748031.28074997 17638.57843148
0.13100001 739017.78925333 19022.31879205
0.13200001 730058.46381017 17477.60044752
0.13300001 721153.21737628 14495.18035261
0.13400001 712302.79231182 14424.13222435
0.13500001 703509.43297239 18657.07104208
0.13600001 694773.31647291 14277.59232672
0.13700001 686096.23058358 18462.85043559
0.13800001 677476.65362346 15537.92778356
0.13900001 668919.48656986 19666.23383258
0.14000001 660422.28574927 15364.72520257
0.14100001 651988.79708964 13887.36203298
0.14200001 643617.41419307 19327.83185982
0.14300001 635311.19481491 15094.99470080
0.14400001 627066.42208626 15002.56485608
0.14500001 618890.12309149 14909.06376857
0.14600001 610778.92497446 16161.21111722
0.14700001 602735.73949911 16056.88085776
0.14800001 594757.87690029 15951.40701103
0.14900001 586849.12983579 13204.10604429
0.15000001 579008.68047920 18360.36612429
0.15100001 571237.45950514 16931.47909864
0.15200001 563537.06159618 15519.81140869
0.15300001 555906.76138179 16693.88083206
0.15400001 548345.19674200 19123.53963884
0.15500001 540856.64864168 13921.65079304
0.15600001 533437.74327821 18843.68917063
0.15700001 526093.48894040 14962.09953163
0.15800001 518818.36229544 14848.58222973
0.15900001 511618.08651976 13506.71812165
0.16000001 504488.00455541 13401.72447361
0.16100001 497433.39663836 15713.92174157
0.16200001 490451.50777348 13190.69392425
0.16300001 483542.49829988 15463.68982564
0.16400001 476707.70387233 14158.21947341
0.16500001 469945.84781594 15212.14781199
0.16600001 463258.60853621 19727.86877593
0.16700001 456644.05393641 12658.17377277
0.16800001 450103.75724590 12551.14386342
0.16900001 443638.95365759 14706.63200817
0.17000001 437246.15822767 12336.90093694
0.17100001 430928.26605012 11117.94978910
0.17200001 424683.75718203 14326.70722508
0.17300001 418513.28500911 13107.83670550
0.17400001 412417.02344977 10825.94737682
0.17500001 406393.43416878 12874.54460250
0.17600001 400442.15200107 14884.43549286
0.17700001 394567.07185849 12641.92957943
0.17800001 388762.82586824 15657.42355138
0.17900001 383031.29947012 12410.21468901
0.18000001 377373.78143116 11270.26851479
0.18100001 371788.65156194 10149.83066708
0.18200001 366273.83527681 15081.32587993
0.18300001 360831.22594040 13942.51922897
0.18400001 355460.07538982 11836.82106966
0.18500001 350160.43884283 12700.31971682
0.18600001 344931.70894795 14513.00233963
0.18700001 339772.32953078 15330.52823272
0.18800001 334681.78649066 10437.05200482
0.18900001 329664.32979305 15032.69414882
0.19000001 324711.61137015 13024.18334743
0.19100001 319830.39612223 9211.11584355
0.19200001 315015.66072102 10031.67418967
0.19300001 310270.67866077 9931.76489323
0.19400001 305590.82810256 10726.23857326
0.19500001 300978.71339487 12388.28442874
0.19600001 296431.50885397 10511.46180069
0.19700001 291951.93180724 12139.36189822
0.19800001 287536.10606250 10299.54380590
0.19900001 283185.24610939 12743.33667717
0.20000001 278896.91946567 9249.61677123
0.20100001 274673.80340196 11651.66329100
0.20200001 270512.04985641 9884.51076893
0.20300001 266413.20692280 11413.14232401
0.20400001 262376.24682428 10488.49096255
0.20500001 258399.44765298 12775.26929581
0.20600001 254482.80712322 7901.69153467
0.20700001 250626.20967648 8601.49192268
0.20800001 246828.04195836 13928.50706611
0.20900001 243090.83051790 8423.09767562
0.21000001 239408.45440785 8335.00573422
0.21100001 235784.66594491 8247.74800465
0.21200001 232216.36443056 10387.03847202
0.21300001 228703.64655213 13214.49732250
0.21400001 225246.54521909 8717.04171209
0.21500001 221844.73617309 10781.65468774
0.21600001 218495.16474009 8534.42153824
0.21700001 215199.10327438 7740.71211076
0.21800001 211955.79293155 7659.02293970
0.21900001 208763.18650657 6889.18548045
0.22000001 205621.06992188 10906.14206433
0.22100001 202530.79415367 9441.98606989
0.22200001 199489.56037759 8007.51133219
0.22300001 196496.79621196 9243.20973088
0.22400001 193551.68046309 8492.08038188
0.22500001 190656.10120503 7109.56635013
0.22600001 187805.45919948 7034.25380695
0.22700001 185001.89276407 8225.18454125
0.22800001 182243.13586543 7512.06241562
0.22900001 179528.62545673 8051.85923251
0.23000001 176858.82419709 7353.79025789
0.23100001 174233.25731587 6063.31764134
0.23200001 171648.72764370 7798.86030933
0.23300001 169107.39225761 7716.37067366
0.23400001 166606.16200262 6460.15423719
0.23500001 164145.70259122 6391.83396121
0.23600001 161725.54082609 6324.27757312
0.23700001 159344.75032739 6257.46864132
0.23800001 157002.14505204 9005.64346614
0.23900001 154697.83703819 6682.94687615
0.24000001 152430.15808866 8265.52571332
0.24100001 150200.60092005 8178.42310695
0.24200001 148006.81217599 8631.75769440
0.24300001 145847.77693906 5871.83177732
0.24400001 143723.65533603 6338.21350014
0.24500001 141633.40587431 5748.90021639
0.24600001 139576.75183007 7756.97834990
0.24700001 137553.85935719 6140.40457218
0.24800001 135562.78055015 7088.57813030
0.24900001 133602.47578085 7515.13961820
0.25000001 131674.58101309 9419.34159838
0.25100001 129776.34509521 7358.31911501
0.25200001 127910.13768374 5339.60895022
0.25300001 126071.55070373 6244.32420178
0.25400001 124263.20799286 6178.98830978
0.25500001 122481.21959534 5173.60696048
0.25600001 120728.83237760 6050.32572086
0.25700001 119002.64880616 5065.94299936
0.25800001 117303.31941667 5012.95759245
0.25900001 115631.30608390 4960.58326571
0.26000001 113984.03119016 4908.72253546
0.26100001 112361.72493200 7065.30559803
0.26200001 110765.40853382 5680.60424545
0.26300001 109192.00730502 6053.60517143
0.26400001 107643.30052971 5990.34995793
0.26500001 106118.01046445 5927.75234504
0.26600001 104615.12159784 5865.77014556
0.26700001 103135.02810953 4560.63115881
0.26800001 101677.34691776 5333.48548496
0.26900001 100240.41386649 5683.63173519
0.27000001 98825.20110860  4017.24461517
0.27100001 97430.59160938  6360.26932125
0.27200001 96056.94060992  4326.88509454
0.27300001 94703.31599167  5449.22906004
0.27400001 93367.74624679  4621.70365794
0.27500001 92053.66054701  4192.12389970
0.27600001 90756.26453052  4148.01526668
0.27700001 89479.21622915  4104.41184268
0.27800001 88219.23586014  4061.17271503
0.27900001 86977.65341665  4018.36777803
0.28000001 85753.09902531  5421.73994248
0.28100001 84546.05220503  4291.55781304
0.28200001 83356.43615714  6015.41749999
0.28300001 82183.06062859  4551.29811302
0.28400001 81025.49864520  4502.99230034
0.28500001 79884.65442876  4455.16738836
0.28600001 78759.09046528  4068.69480602
0.28700001 77649.93891300  4025.37302378
0.28800001 76554.30651923  4977.94401703
0.28900001 75475.41957343  3611.49899753
0.29000001 74410.48264077  4222.42303732
0.29100001 73360.53809988  3534.51089296
0.29200001 72324.49385131  4450.12631732
0.29300001 71302.86466677  4087.79342485
0.29400001 70294.43352376  3421.58171373
0.29500001 69300.77129121  4000.04070828
0.29600001 68319.28581507  3956.71162528
0.29700001 67351.75849403  4214.87324608
0.29800001 66397.30979431  4466.87922787
0.29900001 65456.12380545  3240.07828175
0.30000001 64526.68704527  4661.40809282
0.30100001 63610.89842145  3169.73121840
0.30200001 62706.44573664  3135.00890302
0.30300001 61815.10853653  3382.52289925
0.30400001 60935.54131830  3624.14149148
0.30500001 60068.54476516  3032.86096878
0.30600001 59211.93554298  3817.39366518
0.30700001 58368.09447849  2966.26670183
0.30800001 57535.44268382  3733.47505251
0.30900001 56714.55021108  3428.39472257
0.31000001 55904.86394401  2868.75822911
0.31100001 55106.01959546  2836.85802309
0.31200001 54319.09183847  3315.36592733
0.31300001 53542.39472341  3530.58567522
0.31400001 52777.94097374  2743.13361199
0.31500001 52022.80722117  2712.46929694
0.31600002 51279.87533625  3169.86564400
0.31700002 50546.72234984  2893.29452430
0.31800002 49823.92824649  2860.89009537
0.31900002 49112.43906377  2593.13690535
0.32000002 48411.55692627  2331.01657637
0.32100002 47720.38728686  2535.38429660
0.32200002 47040.55857539  2279.11517089
0.32300002 46369.45742943  2478.91131156
0.32400002 45709.68361324  2674.01661799
0.32500002 45059.53065962  2864.43449967
0.32600002 44419.75114772  3050.30445575
0.32700002 43790.03965626  2154.47005311
0.32800002 43171.16466062  2556.59649226
0.32900002 42560.32883326  2528.08365241
0.33000002 41960.73642606  2291.68572843
0.33100002 41369.88856748  3090.33082233
0.33200002 40790.41749209  2852.47403030
0.33300002 40219.79792133  2216.51316841
0.33400002 39659.51553066  2790.04704971
0.33500002 39108.63215672  2562.39770025
0.33600002 38566.87297729  2534.42217772
0.33700002 38034.84795171  2121.20357072
0.33800002 37513.26098804  2479.81423505
0.33900002 37000.29232344  2641.82099700
0.34000002 36496.87307241  2240.17817528
0.34100002 36003.17467944  2770.44442279
0.34200002 35519.58773848  2192.97945083
0.34300002 35044.52601099  2169.95715337
0.34400002 34579.66072760  1789.49752740
0.34500002 34123.69315124  1948.12173427
0.34600002 33677.66343879  1928.21471151
0.34700002 33239.65765462  2082.13225410
0.34800002 32811.93469467  1717.70486262
0.34900002 32392.79018787  1870.68372195
0.35000002 31983.31884281  2189.09836188
0.35100002 31583.54045711  2001.13321814
0.35200002 31191.26220736  1816.73515331
0.35300002 30809.43905685  1799.57942054
0.35400002 30435.85062612  1620.70912260
0.35500002 30071.83949308  1605.83630499
0.35600002 29716.22361829  1591.30385013
0.35700002 29369.42151316  2681.13461693
0.35800002 29031.87828274  2188.71340740
0.35900002 28703.60190944  2324.99186479
0.36000002 28383.78086550  1844.37816800
0.36100002 28072.12215958  1676.74793601
0.36200002 27770.56592612  1814.52886356
0.36300002 27476.21146728  2250.30182576
0.36400002 27191.08288712  1786.45423030
0.36500002 26913.69764172  2068.58689873
0.36600002 26645.65881329  1466.84358715
0.36700002 26385.43117739  1602.12345698
0.36800002 26134.46881363  1591.19720909
0.36900002 25891.45362651  1724.37089321
0.37000002 25656.06939603  1427.76032952
0.37100002 25428.96049138  1418.93606263
0.37200002 25210.55484453  1410.53061037
0.37300002 24999.87549370  1823.24100612
0.37400002 24797.06931798  2092.25282282
0.37500002 24602.36275583  1942.60265522
0.37600002 24415.64763637  1380.70493924
0.37700002 24236.43109259  1649.04684966
0.37800002 24064.81042158  1778.50989846
0.37900002 23901.80167544  1498.64303604
0.38000002 23745.41784172  1628.46083273
0.38100002 23595.84961542  1757.65492112
0.38200002 23454.86714559  2290.71970829
0.38300002 23320.51917120  1343.26196790
0.38400002 23193.53770215  1607.31223890
0.38500002 23073.24849083  1469.53526600
0.38600002 22960.90114482  1599.45644952
0.38700002 22854.61760180  1596.16656893
0.38800002 22755.13333501  1858.86693020
0.38900002 22662.54727821  1856.06271002
0.39000002 22577.03860922  2251.04374118
0.39100002 22497.34293245  1851.98135794
0.39200002 22424.78470057  1718.52345695
0.39300002 22357.85935227  1453.48450535
0.39400002 22298.44336734  1717.53768174
0.39500002 22243.86753923  1321.28579443
0.39600002 22195.60700322  1718.27299756
0.39700002 22152.62093621  1322.51153255
0.39800002 22116.72106713  1588.42298230
0.39900002 22085.36023105  1855.17034730
0.40000002 22060.08673260  2123.06284773
0.40100002 22039.89036896  1461.90599744
0.40200002 22025.52381192  1464.58727527
0.40300002 22016.08513056  1601.00978655
0.40400002 22011.77000282  1470.93660013
0.40500002 22012.05284231  1742.69430610
0.40600002 22018.23916908  1881.89899095
0.40700002 22028.44588321  2157.02552309
0.40800002 22043.07735395  1622.81143169
0.40900002 22062.06406239  1356.81700413
0.41000002 22086.23609314  1497.77817162
0.41100002 22114.19048798  1913.31985168
0.41200002 22145.51509996  1509.10619799
0.41300002 22182.20037585  1790.76912119
0.41400002 22221.98574210  2074.97801699
0.41500002 22265.45970650  1806.17417697
0.41600002 22311.68580117  2093.39401949
0.41700002 22362.83325660  1542.36468279
0.41800002 22417.79157329  1549.85409386
0.41900002 22474.00317482  1699.03472052
0.42000002 22534.09575290  1423.02821423
0.42100002 22597.89241143  1859.58065465
0.42200002 22664.10516469  1581.84129493
0.42300002 22732.66250477  2024.11636534
0.42400002 22803.83478591  1889.86789744
0.42500002 22878.06824761  1461.90863030
0.42600002 22953.30435261  2205.23882018
0.42700002 23032.00637461  1922.25134311
0.42800002 23112.02965272  1635.98509649
0.42900002 23194.96415620  1645.68278487
0.43000002 23279.57337568  2107.03428608
0.43100002 23364.36244925  2119.61506184
0.43200002 23452.06928827  1675.53316970
0.43300002 23540.57835290  1992.23924041
0.43400002 23630.89964907  1850.29953021
0.43500002 23721.80127265  1706.54646442
0.43600002 23814.65205399  2341.57577417
0.43700002 23907.70223677  1727.80972253
0.43800002 24001.25127945  2686.82020180
0.43900002 24096.53606710  1749.40860137
0.44000002 24191.74014759  2720.48226722
0.44100002 24287.75159995  2093.36140960
0.44200002 24384.05069888  1620.32024573
0.44300002 24480.77833697  1630.41991451
0.44400002 24577.37312354  2624.86357399
0.44500002 24673.63938798  1980.79986394
0.44600002 24769.76437338  1992.97533593
0.44700002 24866.73039764  3509.19316002
0.44800002 24962.27159286  2185.57179289
0.44900002 25058.17748520  2198.85517853
0.45000002 25153.83514449  1871.82273099
0.45100002 25247.91761264  2054.17067432
0.45200002 25341.88794433  2927.36832463
0.45300002 25434.63645881  2424.93835491
0.45400002 25526.72078760  2613.29816448
0.45500002 25618.20283114  1752.28515670
0.45600002 25708.08278016  2467.20482134
0.45700002 25797.24120436  1949.49761021
0.45800002 25884.68877167  2138.59308767
0.45900002 25970.73736656  2150.37715587
0.46000002 26055.92648387  2342.29762228
0.46100002 26138.74508026  2717.12267987
0.46200002 26220.70454652  2185.23362048
0.46300002 26300.89481019  2196.65083866
0.46400002 26378.76947774  2023.91118410
0.46500002 26455.93548683  2773.90496726
0.46600002 26530.13039695  2601.81001134
0.46700002 26602.44559910  1867.49176957
0.46800002 26673.52903520  2064.13114222
0.46900002 26741.74951416  2639.41080215
0.47000002 26807.99694664  2651.57910367
0.47100002 26872.31255589  2283.07178296
0.47200002 26934.42754422  2866.49658726
0.47300002 26994.13723240  2111.21157301
0.47400002 27050.83567551  2312.84655988
0.47500002 27105.65120541  1935.34358780
0.47600002 27158.60815434  2914.79775832
0.47700002 27207.95313969  2926.21549887
