# SAXS profile: number of points = 501, q_min = 0, q_max = 0.5, delta_q = 0.001
#    q    intensity    error
0.00000000 1682732.95097188 328.13292544
0.00100000 1682650.39643382 555.27464401
0.00200000 1682402.66892229 1059.91371498
0.00300000 1681990.00633038 1211.03284770
0.00400000 1681412.26558805 2648.22441893
0.00500000 1680669.95466927 1815.12362289
0.00600000 1679763.00939715 2469.25172434
0.00700000 1678691.96183412 3021.64565688
0.00800000 1677456.68795890 2943.93661166
0.00900000 1676058.31559085 2514.08758086
0.01000000 1674496.36693817 2762.91912475
0.01100000 1672772.00582118 3010.98974157
0.01200000 1670885.22931615 3584.04897402
0.01300000 1668837.19088441 4555.92573205
0.01400000 1666627.92952663 6749.84341381
0.01500000 1664258.83645936 4793.06566243
0.01600000 1661729.33900234 5508.63300505
0.01700000 1659041.72300217 5375.29542366
0.01800000 1656195.97564487 6136.20636588
0.01900000 1653192.62668593 9423.19839731
0.02000000 1650033.03875976 5717.36473793
0.02100000 1646719.22914315 6521.00844306
0.02200000 1643249.55900012 7936.89573056
0.02300000 1639627.45018069 9444.25454293
0.02400000 1635852.40116218 9201.67017611
0.02500000 1631927.01176765 8273.87032753
0.02600000 1627851.25593497 7911.35746570
0.02700000 1623627.20453139 8183.08148563
0.02800000 1619254.74571891 8452.51016028
0.02900000 1614736.66616131 8719.57839762
0.03000000 1610073.96742361 8984.21315119
0.03100000 1605267.13501554 8475.81086288
0.03200000 1600317.77954955 8713.73071099
0.03300000 1595229.65679099 8135.67162469
0.03400000 1590000.72042793 11686.50583437
0.03500000 1584634.41730060 12835.53937286
0.03600000 1579131.96597097 9640.60109778
0.03700000 1573495.30655574 9865.81602837
0.03800000 1567725.84052273 11005.43590980
0.03900000 1561825.55886219 10308.04916586
0.04000000 1555794.45533797 14352.20451556
0.04100000 1549636.73017264 10738.98303803
0.04200000 1543352.85557064 16922.86484643
0.04300000 1536944.09825044 14201.36412703
0.04400000 1530413.80572325 15495.44050259
0.04500000 1523763.42415618 10513.96811521
0.04600000 1516992.90972079 12833.76061284
0.04700000 1510106.52846149 11960.04426165
0.04800000 1503105.04530359 17676.51615523
0.04900000 1495991.85460134 12341.93337495
0.05000000 1488766.59283524 11389.06496553
0.05100000 1481434.11948334 16177.26133836
0.05200000 1473992.56292210 14061.88970558
0.05300000 1466448.36121019 13066.05550749
0.05400000 1458800.62564574 12035.10572282
0.05500000 1451052.85325567 14626.61344314
0.05600000 1443205.39457409 12339.40669942
0.05700000 1435264.26947155 14984.15967272
0.05800000 1427227.57243964 16420.25398762
0.05900000 1419098.28315414 15326.26217389
0.06000000 1410880.43895832 16782.42360546
0.06100000 1402575.13165505 16957.13413414
0.06200000 1394184.64567176 15810.05462094
0.06300000 1385712.09309075 23945.10608817
0.06400000 1377156.40919673 16112.73074114
0.06500000 1368523.46907760 17612.89787092
0.06600000 1359814.71431761 17765.98007380
0.06700000 1351031.41466842 15158.57318199
0.06800000 1342176.75293884 23615.60107338
0.06900000 1333253.47875755 16798.99461886
0.07000000 1324262.38256402 21155.09255212
0.07100000 1315206.32026912 15624.65181662
0.07200000 1306088.06396045 17161.99796442
0.07300000 1296910.01925154 17274.84226585
0.07400000 1287675.00996258 20280.88235736
0.07500000 1278384.15398105 18945.65405003
0.07600000 1269038.55362416 21986.09397226
0.07700000 1259644.35206646 26528.11129838
0.07800000 1250201.15625042 16296.37283596
0.07900000 1240711.01398827 19355.09272604
0.08000000 1231178.30145252 28421.75242233
0.08100000 1221603.72344856 16528.29915374
0.08200000 1211989.44092391 19616.05002184
0.08300000 1202338.80447642 18179.36357688
0.08400000 1192653.37780308 22809.49692113
0.08500000 1182935.60201459 16785.85698060
0.08600000 1173187.72449619 27558.18094231
0.08700000 1163413.15497135 18428.46524010
0.08800000 1153611.72863729 18480.86076070
0.08900000 1143788.44924461 21617.60270610
0.09000000 1133943.60226936 17026.16398789
0.09100000 1124079.45956816 20165.98645207
0.09200000 1114198.75515217 18651.68803763
0.09300000 1104305.67726419 26470.20832791
0.09400000 1094397.64106059 21833.23396527
0.09500000 1084479.99874766 20301.46653078
0.09600000 1074554.43927347 18761.72139166
0.09700000 1064625.07108473 18779.98713683
0.09800000 1054691.50313147 21927.03738106
0.09900000 1044757.38382840 20372.76994263
0.10000000 1034822.14229566 25084.08990888
0.10100000 1024889.51328301 21953.13440702
0.10200000 1014961.93782022 20385.51147998
0.10300000 1005040.64966224 26653.67928285
0.10400000 995128.99389440 18807.93886943
0.10500000 985229.06523277 17231.65716166
0.10600001 975338.57717111 21915.85886025
0.10700001 965465.08563457 20332.69566027
0.10800001 955606.96782296 23436.26198881
0.10900001 945768.15191772 20286.72781344
0.11000001 935948.65685912 18700.25504426
0.11100001 926151.26935427 17115.27626334
0.11200001 916377.74460967 18639.12420284
0.11300001 906629.27886405 23255.04209773
0.11400001 896908.59569346 24754.67840670
0.11500001 887217.48408375 15437.58494998
0.11600001 877556.74000364 15401.12151233
0.11700001 867929.04145237 21507.28266007
0.11800001 858333.76938264 19917.63605661
0.11900001 848774.01514543 15277.93299223
0.12000001 839250.47792385 16755.63658102
0.12100001 829768.13763993 16703.23339755
0.12200001 820325.20394073 21189.00101603
0.12300001 810923.99472380 16591.50571375
0.12400001 801564.85587930 19538.14428265
0.12500001 792250.16236557 22460.29316140
0.12600001 782982.65922376 20882.14850554
0.12700001 773761.72870358 17827.47106947
0.12800001 764588.70606010 17753.75059144
0.12900001 755466.43505756 16204.75579575
0.13000001 746395.27347529 16133.33459661
0.13100001 737375.27716791 16060.03429375
0.13200001 728409.56889047 17438.12590128
0.13300001 719498.46552561 20246.68777438
0.13400001 710642.79567227 17268.62074898
0.13500001 701844.29559399 20044.67402723
0.13600001 693103.31244077 19940.58323913
0.13700001 684421.92411862 17001.04139676
0.13800001 675798.38159187 14090.39692063
0.13900001 667237.51211980 22419.18146447
0.14000001 658736.95469792 16718.74469870
0.14100001 650300.74675231 19391.96918274
0.14200001 641926.99497104 15146.26816072
0.14300001 633618.73102727 27372.33047147
0.14400001 625372.38877699 14962.03510725
0.14500001 617194.65584043 16219.87632061
0.14600001 609082.53295727 16116.32458233
0.14700001 601039.03193834 17345.98728006
0.14800001 593060.98716227 14580.40505727
0.14900001 585152.53697325 15799.11924369
0.15000001 577312.79784029 20921.81678088
0.15100001 569542.71247565 16881.24679432
0.15200001 561843.91235822 15473.18207648
0.15300001 554215.38118379 15362.85109137
0.15400001 546656.18935547 12709.75700230
0.15500001 539170.24222490 15139.90111617
0.15600001 531754.55528795 17531.94851526
0.15700001 524413.92397013 14914.33270162
0.15800001 517142.70394431 12333.85407121
0.15900001 509946.68801510 14686.46530804
0.16000001 502821.36410089 15786.07747109
0.16100001 495771.77205569 13251.98009260
0.16200001 488795.43161860 13146.15375396
0.16300001 481892.36347299 15410.91851138
0.16400001 475063.82161447 12933.61315404
0.16500001 468308.71172717 13993.06496704
0.16600001 461628.41901685 17345.68866350
0.16700001 455021.38475386 16053.15521206
0.16800001 448488.89986526 17053.79122260
0.16900001 442032.30412231 16907.73643103
0.17000001 435648.04093947 11174.37277775
0.17100001 429339.05917062 13292.33789960
0.17200001 423104.00945393 12077.50452020
0.17300001 416943.24776962 14146.88506490
0.17400001 410857.13813229 10785.00038531
0.17500001 404843.93629126 13894.24454971
0.17600001 398903.38234645 13768.15089195
0.17700001 393039.42306013 12592.98370962
0.17800001 387246.87570061 11437.33701403
0.17900001 381527.22318052 11331.35906368
0.18000001 375881.71573942 12246.22687724
0.18100001 370309.31150147 17186.05595859
0.18200001 364807.33265929 14019.54645635
0.18300001 359377.94592784 10910.71495378
0.18400001 354020.26089700 20630.53167837
0.18500001 348734.66603222 16540.48599132
0.18600001 343520.03364194 13490.03235843
0.18700001 338375.29061845 12404.83874014
0.18800001 333299.66900152 15118.47370020
0.18900001 328297.24081672 12163.41334695
0.19000001 323359.93498095 12969.96760490
0.19100001 318494.49067597 11924.43429434
0.19200001 313695.67005924 12714.08610826
0.19300001 308966.93201202 11688.21959031
0.19400001 304303.74836470 8900.88506027
0.19500001 299708.55082960 9692.57499185
0.19600001 295178.53964187 11339.28413620
0.19700001 290716.34780302 11224.55871912
0.19800001 286318.17960084 9401.25787149
0.19900001 281985.24881168 10151.46943698
0.20000001 277715.06204820 8373.10951648
0.20100001 273510.35321855 10773.57332246
0.20200001 269367.20859197 12303.34783394
0.20300001 265287.23311195 8929.56868860
0.20400001 261269.37398366 11247.64708163
0.20500001 257311.76207745 8746.02720641
0.20600001 253414.59643224 7868.52359115
0.20700001 249577.75723249 11680.23959059
0.20800001 245799.64151984 8476.40103849
0.20900001 242082.50211881 9913.27893038
0.21000001 238420.43337108 9809.80919479
0.21100001 234816.98358579 8213.89847413
0.21200001 231269.29930510 10344.67624696
0.21300001 227777.37115765 8042.81935580
0.21400001 224341.21557586 10129.00636211
0.21500001 220960.43997905 7159.11859379
0.21600001 217632.08309239 7792.31710353
0.21700001 214357.59236441 9112.34168224
0.21800001 211135.56068293 9016.54454527
0.21900001 207964.66477582 10294.25139313
0.22000001 204844.29969523 9506.82439836
0.22100001 201775.82142061 10078.70275652
0.22200001 198756.56628776 10637.45193071
0.22300001 195785.65554884 7236.23817125
0.22400001 192862.67568022 6509.11561200
0.22500001 189989.26488921 6440.63638430
0.22600001 187160.95089154 7010.11374714
0.22700001 184379.63275224 9458.67560748
0.22800001 181643.12856469 8735.21846576
0.22900001 178951.10916334 12347.62711620
0.23000001 176303.61487634 7330.70465324
0.23100001 173700.85066960 7253.74786701
0.23200001 171138.68758093 7775.68663798
0.23300001 168619.87476204 7694.12524928
0.23400001 166141.12743121 7027.77002272
0.23500001 163703.27893289 6374.60598314
0.23600001 161305.52703218 6307.85293294
0.23700001 158947.37565754 7376.74805317
0.23800001 156627.43598973 6176.60323040
0.23900001 154345.57139650 5556.44083309
0.24000001 152100.49078997 8247.64950320
0.24100001 149893.13737411 5985.23325846
0.24200001 147721.86162059 6999.80074400
0.24300001 145585.23725670 5861.26192921
0.24400001 143483.32546499 8436.81993643
0.24500001 141415.28137170 7305.51378124
0.24600001 139380.76051867 6196.86890580
0.24700001 137379.97052624 6132.64217440
0.24800001 135410.83674855 6574.87348936
0.24900001 133472.47290073 6006.26156467
0.25000001 131566.28554040 7430.20632740
0.25100001 129689.81905571 7353.41308834
0.25200001 127845.17998976 5336.89729116
0.25300001 126028.11447525 4801.67138868
0.25400001 124241.09161868 4752.22197925
0.25500001 122480.45196433 5643.89949354
0.25600001 120749.11189178 6051.34202876
0.25700001 119043.85261139 4606.99731403
0.25800001 117365.35098452 6383.50174208
0.25900001 115713.97250259 7671.83673991
0.26000001 114087.18004245 7146.42129600
0.26100001 112485.19566075 5746.86891823
0.26200001 110908.99555992 6125.50411461
0.26300001 109355.52093300 4763.52671724
0.26400001 107826.70362656 5571.94517356
0.26500001 106320.95074344 5939.08858956
0.26600001 104837.49862943 4618.61622067
0.26700001 103376.59979349 5818.03531169
0.26800001 101937.92904238 4524.51519465
0.26900001 100519.86642705 6513.68765271
0.27000001 99123.27904026  4835.23378040
0.27100001 97747.04457807  4785.69552902
0.27200001 96391.57030496  4736.68198894
0.27300001 95055.86581325  5860.19440472
0.27400001 93737.96509183  5413.36774024
0.27500001 92441.37248319  3827.07300192
0.27600001 91161.22404754  6060.39846149
0.27700001 89901.18931863  5248.43168081
0.27800001 88657.92498247  4823.43463695
0.27900001 87432.78229352  5508.26554519
0.28000001 86224.53379592  5451.54640726
0.28100001 85033.46350140  4316.29881162
0.28200001 83859.60383831  4271.80842171
0.28300001 82701.72141561  4227.71219886
0.28400001 81559.32669598  4881.32593379
0.28500001 80433.30628294  5175.88350429
0.28600001 79322.44049845  4097.79747011
0.28700001 78227.57289614  4393.26070179
0.28800001 77145.98440572  5016.41787342
0.28900001 76080.90722644  3640.47158310
0.29000001 75029.45190465  4585.05002292
0.29100001 73992.80147802  3564.97334396
0.29200001 72969.65389081  3848.41972837
0.29300001 71960.66175400  3173.46533357
0.29400001 70964.53172693  3768.21681307
0.29500001 69982.98268073  4039.41795155
0.29600001 69013.15511101  3996.89706746
0.29700001 68057.04455178  3650.58004257
0.29800001 67113.74155521  5719.09775736
0.29900001 66183.40139461  3276.07852412
0.30000001 65264.38288044  4714.69924248
0.30100001 64358.91517084  3207.00489478
0.30200001 63464.27732993  3749.78700356
0.30300001 62582.66134576  3424.52339096
0.30400001 61712.33429288  3105.67337032
0.30500001 60854.33699263  3351.85704024
0.30600001 60006.32375121  4144.93700935
0.30700001 59170.78732699  3280.42860471
0.30800001 58346.21131964  2974.78172497
0.30900001 57532.97579929  2675.28350133
0.31000001 56730.80144326  3969.73801894
0.31100001 55938.95564914  2879.73757316
0.31200001 55158.89565620  3366.62335577
0.31300001 54388.55963635  3074.04153619
0.31400001 53630.21349876  2787.43047857
0.31500001 52881.00416772  2757.21568785
0.31600002 52143.58529452  2479.42759815
0.31700002 51415.70027533  2697.78192118
0.31800002 50697.74079456  4124.00792020
0.31900002 49990.75626265  2879.46769707
0.32000002 49294.18528816  2848.21816081
0.32100002 48607.01754079  3286.80668174
0.32200002 47930.80813360  2322.24776403
0.32300002 47263.15828493  2986.08648184
0.32400002 46606.35973668  3180.88420265
0.32500002 45958.96865136  3595.82987755
0.32600002 45321.66154511  2889.93588527
0.32700002 44694.07624444  3078.52811749
0.32800002 44077.10460596  3045.28730143
0.32900002 43467.78096455  2366.82078560
0.33000002 42869.43314456  2128.46745642
0.33100002 42279.47219261  2105.51781490
0.33200002 41700.79410852  2499.54571723
0.33300002 41130.56457024  2060.64138255
0.33400002 40570.43803858  2650.26399038
0.33500002 40019.27204021  3428.85139078
0.33600002 39477.06477474  2594.23543453
0.33700002 38944.26442455  2566.81658978
0.33800002 38421.70135905  1953.74360663
0.33900002 37907.44580927  2513.26377618
0.34000002 37402.50476604  2869.70731408
0.34100002 36907.03673690  2650.66350398
0.34200002 36421.26327573  2248.64890114
0.34300002 35943.97931044  2411.12224633
0.34400002 35476.43223924  3304.62981959
0.34500002 35017.70249871  2544.38638406
0.34600002 34568.55897863  2159.15229606
0.34700002 34127.21934119  2315.87321417
0.34800002 33695.82546873  1763.97654683
0.34900002 33272.95136996  2794.92804745
0.35000002 32859.37485405  1730.04616800
0.35100002 32455.30585911  2227.73229968
0.35200002 32058.55202027  2037.00049185
0.35300002 31671.94496540  1849.95839305
0.35400002 31293.41837309  2166.28698948
0.35500002 30924.18421591  1651.35151534
0.35600002 30563.25659893  2291.32745575
0.35700002 30210.89953468  2109.02299641
0.35800002 29867.48981566  1608.36440275
0.35900002 29533.22578863  2073.23254856
0.36000002 29207.18916775  2056.04017885
0.36100002 28889.16384018  1725.54983791
0.36200002 28580.93219766  1711.85501506
0.36300002 28279.97627742  1852.90413346
0.36400002 27987.87464373  1685.56983026
0.36500002 27703.43358974  1520.91857612
0.36600002 27428.06053864  1660.90628459
0.36700002 27160.49088692  1949.03691837
0.36800002 26901.92255206  2084.63007731
0.36900002 26651.08527411  1479.13530278
0.37000002 26407.84686039  1763.51609687
0.37100002 26172.67399873  1606.47880614
0.37200002 25946.03751137  2032.35321454
0.37300002 25727.03962031  2020.60178750
0.37400002 25515.79002930  2009.36855999
0.37500002 25312.47123610  1570.38578988
0.37600002 25117.06518089  1988.51814457
0.37700002 24928.99739096  1413.47421903
0.37800002 24748.47411217  1829.03606591
0.37900002 24576.33413452  1821.10644564
0.38000002 24410.78637234  2092.61476090
0.38100002 24251.99028766  2084.45866397
0.38200002 24101.66641543  1384.64080116
0.38300002 23957.75388714  1655.96002713
0.38400002 23821.31523874  2476.22583638
0.38500002 23691.41997742  1646.07993801
0.38600002 23569.30628225  1778.65778285
0.38700002 23453.34882041  1501.48346262
0.38800002 23343.92983809  1498.33020764
0.38900002 23241.47039397  1631.55129895
0.39000002 23146.06162171  1764.77155196
0.39100002 23056.35066431  1491.28483162
0.39200002 22973.64819569  1354.29662530
0.39300002 22896.65425512  1759.15002976
0.39400002 22827.04182764  1893.50320931
0.39500002 22762.23296677  2433.73806411
0.39600002 22703.81089367  1352.01200277
0.39700002 22650.61033960  1487.46565147
0.39800002 22604.37073709  1894.02031380
0.39900002 22562.68890813  1759.88981822
0.40000002 22527.19350966  1897.01505533
0.40100002 22496.60677015  1627.85454301
0.40200002 22471.88361604  1494.26797185
0.40300002 22452.12736371  1904.83857579
0.40400002 22437.46548165  1635.69131111
0.40500002 22427.45662240  1502.41539032
0.40600002 22423.24632665  1916.51495434
0.40700002 22423.27579514  2195.68726989
0.40800002 22427.57860699  1513.52521401
0.40900002 22436.27650821  1517.81417770
0.41000002 22450.20996378  1660.86661182
0.41100002 22467.90387149  2221.62644008
0.41200002 22489.08915616  1671.83896708
0.41300002 22515.67871562  1398.22371449
0.41400002 22545.27996244  2105.16561624
0.41500002 22578.69688330  1831.58397796
0.41600002 22614.97045349  1980.39305645
0.41700002 22656.13335238  1704.64755421
0.41800002 22701.13599620  1569.44311146
0.41900002 22747.54306910  1433.09528126
0.42000002 22797.83596769  2447.46179628
0.42100002 22851.94639697  1591.18110302
0.42200002 22908.39984412  1598.89184288
0.42300002 22967.40819683  1606.79995359
0.42400002 23029.07011439  2055.34460510
0.42500002 23093.81724641  1770.83399037
0.42600002 23159.67648014  1631.71508373
0.42700002 23229.09864873  1938.70066509
0.42800002 23299.90467155  1649.28383033
0.42900002 23373.76374496  1658.36861629
0.43000002 23449.35666529  1970.80127433
0.43100002 23525.19376545  1676.87589106
0.43200002 23604.07522540  1686.39323439
0.43300002 23683.80380551  1850.17884096
0.43400002 23765.43190497  2481.11120845
0.43500002 23847.89064230  2183.51297068
0.43600002 23932.21401334  2039.38371379
0.43700002 24017.01003552  1893.50116093
0.43800002 24102.31717352  1745.85142720
0.43900002 24189.43489701  1915.80333463
0.44000002 24276.60735977  2569.43624472
0.44100002 24364.74030683  1615.38235890
0.44200002 24453.22885940  2112.39227513
0.44300002 24542.26564423  1797.96646630
0.44400002 24631.36881652  1972.97273570
0.44500002 24720.21572557  2480.67376562
0.44600002 24808.98599847  1996.13110804
0.44700002 24898.82964512  2342.48200403
0.44800002 24987.27475385  2692.62885508
0.44900002 25076.27803151  2031.17861681
0.45000002 25165.10175346  2383.38690002
0.45100002 25252.50681639  2054.54405195
0.45200002 25339.89143974  1894.03027543
0.45300002 25426.24461712  1904.68007454
0.45400002 25512.01792310  2089.43436693
0.45500002 25597.36736147  2101.03201260
0.45600002 25681.19537508  2464.62443695
0.45700002 25764.38349861  1947.01455327
0.45800002 25846.11324890  2847.20797044
0.45900002 25926.52518928  2325.60941970
0.46000002 26006.22833565  1978.16385211
0.46100002 26083.72992572  1988.36282648
0.46200002 26160.36973961  1816.83776452
0.46300002 26235.46463439  2191.18611012
0.46400002 26308.37244368  2018.50997141
0.46500002 26380.68075633  2028.41063949
0.46600002 26450.21801427  1852.83785972
0.46700002 26517.92783008  1861.55862190
0.46800002 26584.64351479  2431.29868788
0.46900002 26648.48394776  3005.94913178
0.47000002 26710.68654305  2830.66514056
0.47100002 26770.91226096  2274.45681349
0.47200002 26829.13051953  2284.23228070
0.47300002 26885.08587915  2102.68266627
0.47400002 26938.20202369  2303.21638219
0.47500002 26989.45966926  2119.75226290
0.47600002 27039.03452115  2901.96451753
0.47700002 27085.19405366  2136.20935626
