# SAXS profile: number of points = 501, q_min = 0, q_max = 0.5, delta_q = 0.001
#    q    intensity    error
0.00000000 1682732.95097188 252.40994265
0.00100000 1682650.39314464 706.71318190
0.00200000 1682402.65732798 908.49746372
0.00300000 1681989.97723086 1211.03282675
0.00400000 1681412.21659367 1261.05921036
0.00500000 1680669.87749214 1663.86324457
0.00600000 1679762.89768951 2116.50133726
0.00700000 1678691.81335560 2820.20236365
0.00800000 1677456.48934232 2717.47962747
0.00900000 1676058.05323434 3268.31334352
0.01000000 1674496.05762228 3591.79419869
0.01100000 1672771.63776030 3312.08798697
0.01200000 1670884.79625009 3258.22549554
0.01300000 1668836.67321591 3855.01288515
0.01400000 1666627.31746597 4499.89395664
0.01500000 1664258.14158682 6790.17352003
0.01600000 1661728.55880496 5084.88961726
0.01700000 1659040.83435295 5823.23358980
0.01800000 1656194.98780575 8024.26507699
0.01900000 1653191.51923500 4959.57478149
0.02000000 1650031.83955743 6756.88068864
0.02100000 1646717.89933311 6521.00317701
0.02200000 1643248.05926686 7936.88848685
0.02300000 1639625.87256940 7083.18409191
0.02400000 1635850.65081079 7361.32826431
0.02500000 1631925.12858048 9546.76243820
0.02600000 1627849.20192602 8570.62644015
0.02700000 1623625.01667501 8183.07045884
0.02800000 1619252.41526296 9861.24766118
0.02900000 1614734.15633465 7992.93444085
0.03000000 1610071.29418095 7486.83186208
0.03100000 1605264.27006590 7705.26885086
0.03200000 1600314.72342922 7921.55824583
0.03300000 1595226.44476299 8949.22076768
0.03400000 1589997.32748913 10851.73226082
0.03500000 1584630.85667236 11124.10912753
0.03600000 1579128.21896499 10516.99442434
0.03700000 1573491.32037383 10762.68112910
0.03800000 1567721.65128227 12839.64091821
0.03900000 1561821.19582735 14056.39141340
0.04000000 1555789.83679897 12438.54032160
0.04100000 1549631.93380216 13667.75428986
0.04200000 1543347.78410740 12940.97177011
0.04300000 1536938.82484310 11158.17638630
0.04400000 1530408.33685377 10330.25675352
0.04500000 1523757.67261958 12616.71411552
0.04600000 1516986.90876103 17111.61312629
0.04700000 1510100.37196259 10872.72318380
0.04800000 1503098.69805783 14362.10872818
0.04900000 1495985.25400179 15707.84589818
0.05000000 1488759.67498946 12527.91324841
0.05100000 1481427.00489546 13866.15741176
0.05200000 1473985.19649949 12890.00114408
0.05300000 1466440.70238141 13065.98726733
0.05400000 1458792.80341624 19256.06590308
0.05500000 1451044.73911219 14626.53165257
0.05600000 1443196.99443844 14807.20185390
0.05700000 1435255.62805115 18730.08682036
0.05800000 1427218.70366842 15157.06334068
0.05900000 1419089.14078595 15326.16343631
0.06000000 1410871.10040323 18073.25964053
0.06100000 1402565.54099591 18261.40419715
0.06200000 1394174.73965026 13174.95190554
0.06300000 1385701.92829273 15963.28696030
0.06400000 1377146.07598524 17455.32732944
0.06500000 1368512.83480364 17612.76100781
0.06600000 1359803.74351190 19132.43956639
0.06700000 1351020.24365848 24804.73283441
0.06800000 1342165.27700339 18058.83464740
0.06900000 1333241.79097385 25198.27102916
0.07000000 1324250.39188824 15513.59406745
0.07100000 1315194.14090337 21306.14608057
0.07200000 1306075.62436329 15731.68163243
0.07300000 1296897.29183470 21593.34092082
0.07400000 1287662.04335037 24626.53773318
0.07500000 1278370.94695963 17488.11537412
0.07600000 1269025.16817145 17588.68965542
0.07700000 1259630.67209444 25054.05524271
0.07800000 1250187.19651085 19259.13466543
0.07900000 1240696.77284248 16377.19816967
0.08000000 1231163.82286496 25429.68995421
0.08100000 1221589.04680815 19533.20977493
0.08200000 1211974.56157124 16597.99239958
0.08300000 1202323.59522891 15149.27801087
0.08400000 1192638.03707233 16726.74925507
0.08500000 1182920.05117367 18311.60325181
0.08600000 1173171.82883266 19902.86101062
0.08700000 1163397.06882917 26106.63145043
0.08800000 1153595.46207647 21560.70019878
0.08900000 1143771.91083410 21617.29013012
0.09000000 1133926.88698084 17025.91300782
0.09100000 1124062.62599482 23268.09745126
0.09200000 1114181.55270363 17097.11672957
0.09300000 1104288.30188954 15570.46578833
0.09400000 1094380.12234248 17154.40922393
0.09500000 1084462.27321453 17177.88321512
0.09600000 1074536.48187054 17197.95720078
0.09700000 1064606.92918441 21909.61163265
0.09800000 1054673.19028260 17228.08737329
0.09900000 1044738.88687103 20372.40925195
0.10000000 1034803.47331908 18812.72802965
0.10100000 1024870.81620048 20384.68149296
0.10200000 1014943.01618253 17248.95737135
0.10300000 1005021.45834746 17246.16903652
0.10400000 995109.68879727 20374.87183666
0.10500000 985209.76866980 20364.28687653
0.10600001 975319.01406770 17219.25800359
0.10700001 965445.38058327 20332.28067187
0.10800001 955587.17497283 15623.85104609
0.10900001 945748.21538113 20286.30017471
0.11000001 935928.50559077 28049.77863285
0.11100001 926131.04605617 18670.80276739
0.11200001 916357.41132290 15532.25885314
0.11300001 906608.90008586 21704.21808991
0.11400001 896888.13220065 17018.45310981
0.11500001 887196.89738029 20068.39476372
0.11600001 877536.04530309 23101.13748047
0.11700001 867908.34417799 18434.37409851
0.11800001 858312.95915749 21449.24185957
0.11900001 848753.20639357 18333.07012162
0.12000001 839229.55420749 16755.21883901
0.12100001 829747.11538504 19739.68480491
0.12200001 820304.14667463 19674.99588491
0.12300001 810902.97099320 18099.35516531
0.12400001 801543.81435645 16531.84195004
0.12500001 792228.99581576 22459.69308969
0.12600001 782961.55573570 22373.12750945
0.12700001 773740.52127705 16341.40057948
0.12800001 764567.53795233 19232.69732361
0.12900001 755445.26774553 14731.18341535
0.13000001 746374.17038056 17599.50376712
0.13100001 737354.20355035 18979.49809403
0.13200001 728388.49783066 20343.89170343
0.13300001 719477.48570228 15907.64795881
0.13400001 710621.73354896 15829.09986108
0.13500001 701823.26402086 15748.91478716
0.13600001 693082.38871973 18515.69688768
0.13700001 684401.04717347 19833.94328232
0.13800001 675777.48788880 14089.96128690
0.13900001 667216.78518123 25220.79566922
0.14000001 658716.35187626 15325.03664914
0.14100001 650280.13033933 23546.64463012
0.14200001 641906.52828778 17899.56438554
0.14300001 633598.41262647 16422.87162991
0.14400001 625352.04732053 14961.54843788
0.14500001 617174.43886288 16219.34501842
0.14600001 609062.52604388 13429.82933281
0.14700001 601019.12151898 17345.41266533
0.14800001 593041.15984083 14579.91760255
0.14900001 585132.88648885 15798.58868059
0.15000001 577293.29753591 19613.54070921
0.15100001 569523.32136126 14283.64557371
0.15200001 561824.71640319 18051.42898983
0.15300001 554196.34110183 19202.90412534
0.15400001 546637.34044368 13980.25064159
0.15500001 539151.57538252 13877.76220528
0.15600001 531736.04910335 17531.33836633
0.15700001 524395.55721068 12428.17529246
0.15800001 517124.60356859 12333.42237723
0.15900001 509928.80363535 15909.77942437
0.16000001 502803.60464726 15785.51991302
0.16100001 495754.23618185 14456.19420946
0.16200001 488778.16284921 14340.75197497
0.16300001 481875.24412165 14224.95787800
0.16400001 475046.92304011 12933.15309034
0.16500001 468292.11997002 12826.52177154
0.16600001 461612.10097929 15032.39877812
0.16700001 455005.32514830 14905.97515564
0.16800001 448472.99695770 12505.67011064
0.16900001 442016.60110915 12398.56624655
0.17000001 435632.60844034 11173.97693413
0.17100001 429323.97522875 11076.55908395
0.17200001 423089.16811979 10979.16443118
0.17300001 416928.67910914 13058.20684637
0.17400001 410842.87803513 11863.08866351
0.17500001 404829.88639096 11756.26045601
0.17600001 398889.69482428 12708.62627732
0.17700001 393025.99474742 12592.55346646
0.17800001 387233.71475327 15595.83859831
0.17900001 381514.31221073 13391.15299111
0.18000001 375869.16346392 15307.27240511
0.18100001 370297.13609043 16174.57966846
0.18200001 364795.34403019 13017.72246665
0.18300001 359366.27722247 13885.91360784
0.18400001 354008.99796308 16700.37526785
0.18500001 348723.62885696 9729.38970475
0.18600001 343509.34290123 10598.98127595
0.18700001 338364.97530945 10496.08202998
0.18800001 333289.57121518 12283.38772748
0.18900001 328287.46743777 9356.19326403
0.19000001 323350.46749658 10190.39046464
0.19100001 318485.41029751 11006.85629996
0.19200001 313687.02621107 9081.23983791
0.19300001 308958.55929540 12586.97230046
0.19400001 304295.67498542 15131.10315365
0.19500001 299700.78853695 12335.68503910
0.19600001 295171.12382836 10466.76854557
0.19700001 290709.29850575 8634.06657365
0.19800001 286311.47573668 12819.59693195
0.19900001 281978.80532052 10151.23747129
0.20000001 277709.02996815 10884.80594403
0.20100001 273504.63823824 13259.50548846
0.20200001 269361.85020451 9842.48247166
0.20300001 265282.19915733 12176.45351684
0.20400001 261264.65488397 11247.44392437
0.20500001 257307.40047776 10336.03876574
0.20600001 253410.55152954 8655.23779661
0.20700001 249574.10196429 13237.41099391
0.20800001 245796.31625517 9246.85785462
0.20900001 242079.52388533 7625.50536286
0.21000001 238417.81228102 7545.92411541
0.21100001 234814.73212582 9707.24148498
0.21200001 231267.23464249 9605.68504498
0.21300001 227775.73857286 7311.60155385
0.21400001 224339.90656588 9405.45102743
0.21500001 220959.50418012 7159.08827390
0.21600001 217631.39972387 8500.68287511
0.21700001 214357.28802596 8411.38037983
0.21800001 211135.57760797 8322.96486282
0.21900001 207965.01812086 7549.13051472
0.22000001 204844.91675970 7469.67024283
0.22100001 201776.76649864 9406.83329895
0.22200001 198757.82966843 9307.82960349
0.22300001 195787.22584066 7236.29620924
0.22400001 192864.56036394 9763.76883012
0.22500001 189991.42475697 7084.78056421
0.22600001 187163.39512347 10833.95363904
0.22700001 184382.40677296 6936.46647082
0.22800001 181646.28677428 9359.32536865
0.22900001 178954.46568643 11113.07284468
0.23000001 176307.24215363 7941.76009839
0.23100001 173704.71352723 9671.87890661
0.23200001 171142.89362813 7177.73329822
0.23300001 168624.35948109 8286.20141679
0.23400001 166145.94965762 6442.30950267
0.23500001 163708.35538003 6374.80366000
0.23600001 161310.85690613 5734.60123424
0.23700001 158952.90014861 7377.00444481
0.23800001 156633.18764593 6176.83004697
0.23900001 154351.61921687 6667.99026556
0.24000001 152106.73480562 7698.12221264
0.24100001 149899.66688339 8162.03724787
0.24200001 147728.61397816 5384.70823421
0.24300001 145592.18140579 8525.87854642
0.24400001 143490.51840054 5800.60448073
0.24500001 141422.69007431 6262.19701272
0.24600001 139388.44635369 7746.51327256
0.24700001 137387.83748707 8688.40725370
0.24800001 135418.86351121 6575.26322884
0.24900001 133480.58835614 6006.62676018
0.25000001 131574.72764587 5944.54647627
0.25100001 129698.37952042 5392.85887559
0.25200001 127853.94157211 5337.26304343
0.25300001 126037.02363335 8163.41840695
0.25400001 124250.22611114 7128.85706040
0.25500001 122489.66777033 5173.96381141
0.25600001 120758.43408988 5120.76163986
0.25700001 119053.35871468 6911.04780037
0.25800001 117374.97247861 5016.01968620
0.25900001 115723.74143812 6318.51658148
0.26000001 114097.03942718 6253.65902690
0.26100001 112495.17751149 4863.16675393
0.26200001 110919.11013786 6126.06274278
0.26300001 109365.72398434 4763.97116218
0.26400001 107837.01213190 5143.82572209
0.26500001 106331.40023695 5091.14768425
0.26600001 104847.93744166 5038.99211189
0.26700001 103387.14057739 6234.24487182
0.26800001 101948.52557771 4936.34784207
0.26900001 100530.50263599 4071.48554943
0.27000001 99134.05468192  4835.75941622
0.27100001 97757.83035440  5185.07556737
0.27200001 96402.39129531  3947.67811036
0.27300001 95066.65858696  4688.68782340
0.27400001 93748.88585186  4253.85589684
0.27500001 92452.21859574  4593.02643720
0.27600001 91172.13052953  4545.84264334
0.27700001 89912.09584352  4124.26803153
0.27800001 88668.87689344  4824.03047570
0.27900001 87443.69041016  3672.63517104
0.28000001 86235.39492781  3998.30427506
0.28100001 85044.34347673  6115.53902885
0.28200001 83870.45239464  4628.39113446
0.28300001 82712.55038301  5990.04318225
0.28400001 81570.06275023  4184.54441714
0.28500001 80443.95009438  3796.15018463
0.28600001 79333.04698035  4439.87418440
0.28700001 78238.20630636  3379.89067241
0.28800001 77156.51067941  4348.15536515
0.28900001 76091.40674685  4302.96925521
0.29000001 75039.85163350  5568.33245404
0.29100001 74003.06340017  3565.46776339
0.29200001 72979.83001824  3207.46368113
0.29300001 71970.75090553  4126.08334473
0.29400001 70974.53242584  4082.81017106
0.29500001 69992.78356102  4661.51960583
0.29600001 69022.92114652  3997.46266743
0.29700001 68066.61411434  3651.09335393
0.29800001 67123.26028591  3311.52620297
0.29900001 66192.73366225  3872.27510255
0.30000001 65273.63659289  3241.81531485
0.30100001 64367.95724104  3207.45546116
0.30200001 63473.21097402  4327.28636301
0.30300001 62591.39081555  3995.83457883
0.30400001 61720.91309830  3670.85148031
0.30500001 60862.70384911  3631.67771061
0.30600001 60014.56304195  3869.13906249
0.30700001 59178.87648839  3554.28349016
0.30800001 58354.09223608  3245.65476383
0.30900001 57540.70712137  3478.33591017
0.31000001 56738.28371723  2646.84106072
0.31100001 55946.23306140  2880.11221436
0.31200001 55165.96470371  2590.04216547
0.31300001 54395.41912567  3330.63167076
0.31400001 53636.91199576  2787.77863297
0.31500001 52887.44115665  2506.86482952
0.31600002 52149.82778133  2727.69687125
0.31700002 51421.70445435  2698.09696047
0.31800002 50703.59127038  4124.48382718
0.31900002 49996.37280090  2399.82600807
0.32000002 49299.47746510  2848.52394281
0.32100002 48612.09899643  3991.53963760
0.32200002 47935.67779452  2322.48369912
0.32300002 47267.70214072  3445.81564922
0.32400002 46610.74175030  2726.72852151
0.32500002 45963.12084614  3146.63540213
0.32600002 45325.53364688  2445.53928372
0.32700002 44697.67007130  2638.95056597
0.32800002 44080.48173971  2610.44625224
0.32900002 43470.87410163  2797.35088090
0.33000002 42872.24036565  2128.60683495
0.33100002 42282.04144426  2526.77491636
0.33200002 41703.07224344  3332.90969153
0.33300002 41132.60484899  3297.18976083
0.33400002 40572.19946868  2446.50374382
0.33500002 40020.78142394  2622.16172307
0.33600002 39478.27231786  2195.18943619
0.33700002 38945.29068245  3159.24212977
0.33800002 38422.36288273  2344.53269414
0.33900002 37907.82266061  2319.95885670
0.34000002 37402.68421789  2869.72108252
0.34100002 36906.89861839  3029.31838206
0.34200002 36420.87378136  2623.39566271
0.34300002 35943.29256168  2967.47837443
0.34400002 35475.47115813  2019.44129132
0.34500002 35016.46177178  1817.35445203
0.34600002 34567.02976303  1979.13538282
0.34700002 34125.43247339  2493.88672327
0.34800002 33693.77841773  2469.41713719
0.34900002 33270.65730277  1746.70959112
0.35000002 32856.78387104  1902.90072802
0.35100002 32452.45584138  3084.28154924
0.35200002 32055.42430225  2376.26871607
0.35300002 31668.57310867  3026.88236109
0.35400002 31289.77924098  1832.79890585
0.35500002 30920.26331558  1651.14213926
0.35600002 30558.99778978  2454.65161373
0.35700002 30206.39277066  2433.12505292
0.35800002 29862.73234572  2251.35149818
0.35900002 29528.26298930  1913.43153234
0.36000002 29201.99561753  1739.41695135
0.36100002 28883.64228155  1725.22003519
0.36200002 28575.23123271  1711.51355575
0.36300002 28273.98787053  2470.01569737
0.36400002 27981.66714246  1685.19598348
0.36500002 27696.92472486  1672.61736336
0.36600002 27421.39429488  2113.36695841
0.36700002 27153.52730102  1948.53721142
0.36800002 26894.71384999  1488.62248211
0.36900002 26643.66516441  1478.72348667
0.37000002 26400.18190572  1909.92125044
0.37100002 26164.83129134  1751.99718626
0.37200002 25938.02800710  1741.47928289
0.37300002 25718.77676685  1731.38813396
0.37400002 25507.27891072  1434.78450669
0.37500002 25303.76996275  1997.98577091
0.37600002 25108.18313057  1845.82817028
0.37700002 24919.88708200  1836.84496383
0.37800002 24739.17397301  1968.99094979
0.37900002 24566.87267109  1680.37417031
0.38000002 24401.11123128  1673.42828752
0.38100002 24242.14262911  1389.07483845
0.38200002 24091.64566977  1522.47162023
0.38300002 23947.54069751  1793.19193238
0.38400002 23810.99201858  1512.59333964
0.38500002 23680.87178315  1782.45930356
0.38600002 23558.68664581  1777.85637195
0.38700002 23442.52472258  1637.22600419
0.38800002 23333.02139873  1497.63004943
0.38900002 23230.37844976  1494.87492406
0.39000002 23134.86037139  1356.85962506
0.39100002 23044.97917423  1626.05380757
0.39200002 22962.17008954  1624.34398909
0.39300002 22885.06581140  1352.50745353
0.39400002 22815.35317093  1757.35266125
0.39500002 22750.43437795  1756.78862590
0.39600002 22691.88223609  1621.56198142
0.39700002 22638.61280754  1892.13534810
0.39800002 22592.32241275  1893.01078465
0.39900002 22550.54427106  1758.94253648
0.40000002 22514.95807113  1489.70227136
0.40100002 22484.31377678  2169.28669596
0.40200002 22459.51782211  1764.98129167
0.40300002 22439.68067399  1495.82918460
0.40400002 22425.00535603  1771.01488190
0.40500002 22414.96799999  2047.60742382
0.40600002 22410.72718117  1778.62744701
0.40700002 22410.68461323  1920.14754864
0.40800002 22414.99891296  2337.77242239
0.40900002 22423.64912451  1930.67628110
0.41000002 22437.56823777  2213.24183584
0.41100002 22455.26383866  1526.50890808
0.41200002 22476.44572019  1392.41587834
0.41300002 22503.03173485  1676.92600434
0.41400002 22532.68434183  1683.19160009
0.41500002 22566.11087048  1689.75046205
0.41600002 22602.36647508  2120.66713501
0.41700002 22643.60859376  1561.72975871
0.41800002 22688.61773637  1711.17563076
0.41900002 22735.06151761  1718.77073217
0.42000002 22785.38509574  1726.67656437
0.42100002 22839.55210849  1879.46683207
0.42200002 22896.09941489  1888.58484973
0.42300002 22955.16332251  1897.93299344
0.42400002 23016.89366977  1614.05974508
0.42500002 23081.73929247  1474.92321068
0.42600002 23147.70495030  2223.91585848
0.42700002 23217.17133642  1639.59671747
0.42800002 23288.08637070  1798.30611476
0.42900002 23362.05252800  2410.96393514
0.43000002 23437.75859199  1515.25116478
0.43100002 23513.68905546  1523.68712300
0.43200002 23592.68305163  1838.81380418
0.43300002 23672.54476060  1849.29928433
0.43400002 23754.31507529  1704.96604532
0.43500002 23836.87492348  1558.93169387
0.43600002 23921.39101820  1724.85198111
0.43700002 24006.26280141  1892.65384895
0.43800002 24091.75243474  1586.44197301
0.43900002 24179.03465168  2234.14290769
0.44000002 24266.38090750  1605.22117310
0.44100002 24354.66154891  1776.18555094
0.44200002 24443.34627666  1624.26043706
0.44300002 24532.57519531  1633.86958544
0.44400002 24621.83916438  2629.61254737
0.44500002 24710.87907678  1983.78946630
0.44600002 24799.81319024  2161.67581917
0.44700002 24889.87949819  2174.37997601
0.44800002 24978.48524596  1850.53116715
0.44900002 25067.67566608  1692.06818765
0.45000002 25156.70746916  2893.14727960
0.45100002 25244.36060817  2396.19482249
0.45200002 25331.95177211  2754.08992719
0.45300002 25418.52105739  1731.00136605
0.45400002 25504.54322767  1914.75367356
0.45500002 25590.06948859  3150.64950475
0.45600002 25674.14308085  2111.95510992
0.45700002 25757.56645554  2477.36285911
0.45800002 25839.51683420  1956.95590019
0.45900002 25920.18060399  2146.19105573
0.46000002 26000.08317626  2157.48700422
0.46100002 26077.81028857  1987.91157251
0.46200002 26154.75307570  2361.38199336
0.46300002 26230.07855745  2008.17490954
0.46400002 26303.26564039  2751.97929806
0.46500002 26375.80016407  1843.66851885
0.46600002 26445.60994000  3149.27560897
0.46700002 26513.56907568  1861.25263733
0.46800002 26580.54208880  1869.94122458
0.46900002 26644.68776939  2254.14069213
0.47000002 26707.11025414  2075.54317177
0.47100002 26767.59654067  3411.26266483
0.47200002 26826.09925724  2283.97419902
0.47300002 26882.29221404  2102.46417371
0.47400002 26935.66758434  1919.16640635
0.47500002 26987.22480599  3275.70950221
0.47600002 27037.08253543  3095.20535536
0.47700002 27083.48261202  2718.64011345
