# SAXS profile: number of points = 501, q_min = 0, q_max = 0.5, delta_q = 0.001
#    q    intensity    error
0.00000000 1719190.39626458 412.60569510
0.00100000 1719106.86710535 722.02490133
0.00200000 1718856.22565790 1314.92505427
0.00300000 1718438.70216408 1649.70121284
0.00400000 1717854.14046383 1417.22971973
0.00500000 1717103.09287171 2163.54998265
0.00600000 1716185.45247958 1801.99479847
0.00700000 1715101.78922272 2881.37112564
0.00800000 1713851.91357876 2776.44021722
0.00900000 1712437.04899872 3596.11795662
0.01000000 1710856.65069049 4516.66175285
0.01100000 1709111.94229496 3999.32211910
0.01200000 1707202.87768923 3661.95033320
0.01300000 1705130.60554485 3580.77442957
0.01400000 1702895.19927531 5747.27155234
0.01500000 1700498.06824309 6938.03242737
0.01600000 1697938.55312303 4329.74350402
0.01700000 1695219.08806290 5950.21926602
0.01800000 1692339.56368840 6752.43516296
0.01900000 1689300.57283792 6081.48233663
0.02000000 1686103.40615309 7966.83895446
0.02100000 1682750.15756300 8329.61365759
0.02200000 1679239.19433107 11007.41341893
0.02300000 1675573.79162381 6032.06592442
0.02400000 1671753.72296902 7522.89209639
0.02500000 1667781.53896764 7154.78312893
0.02600000 1663656.96066153 10780.49759817
0.02700000 1659382.23262440 6969.40569623
0.02800000 1654957.26976499 9358.78378971
0.02900000 1650385.07652886 9654.75314098
0.03000000 1645666.23777305 7652.34835739
0.03100000 1640801.40848049 11813.77068465
0.03200000 1635792.51430830 8097.17331877
0.03300000 1630642.89656377 9147.90707145
0.03400000 1625350.55280122 8533.09079593
0.03500000 1619919.27417812 9622.32093296
0.03600000 1614350.00247273 11647.53580612
0.03700000 1608644.80226125 10086.20337664
0.03800000 1602805.02065433 13126.97372667
0.03900000 1596832.64914343 9580.99633856
0.04000000 1590727.73865581 14674.46406910
0.04100000 1584494.66295697 12977.01189132
0.04200000 1578133.65788743 13232.65133529
0.04300000 1571646.08860587 14522.01053280
0.04400000 1565035.31384401 11620.38774497
0.04500000 1558302.70973337 10752.28919676
0.04600000 1551448.26234682 14219.02398541
0.04700000 1544476.54986355 12232.25484382
0.04800000 1537387.94884197 12429.78214472
0.04900000 1530186.18533278 11476.39692419
0.05000000 1522870.60067981 13979.95276523
0.05100000 1515446.27292594 11820.48147947
0.05200000 1507911.34843022 13186.68535654
0.05300000 1500272.20297693 18228.30811593
0.05400000 1492527.99879212 14776.02787711
0.05500000 1484682.04465163 13718.46273254
0.05600000 1476735.34020270 15151.30529750
0.05700000 1468693.07086251 12777.63031294
0.05800000 1460553.67213987 19388.85090297
0.05900000 1452320.53375074 13070.88541424
0.06000000 1443997.29994209 15855.09109410
0.06100000 1435585.34175393 14686.03873244
0.06200000 1427086.50057705 17531.75847909
0.06300000 1418504.05828330 17702.93147508
0.06400000 1409837.61040362 15120.50907872
0.06500000 1401092.34248873 18032.05929133
0.06600000 1392269.51427421 15391.54020045
0.06700000 1383371.50858407 14110.39004791
0.06800000 1374400.29821309 15647.54812760
0.06900000 1365359.32881490 15769.90098614
0.07000000 1356249.12945292 25999.29702912
0.07100000 1347072.97030975 27641.93864544
0.07200000 1337833.21939246 20508.98421407
0.07300000 1328532.37996505 20645.39415201
0.07400000 1319173.59322886 17808.84434319
0.07500000 1309757.67212570 17917.48579452
0.07600000 1300285.58462815 16520.12912717
0.07700000 1290764.08090696 21142.71663661
0.07800000 1281192.25746683 15182.12896297
0.07900000 1271572.31822040 15258.86853434
0.08000000 1261908.86997414 18398.63218732
0.08100000 1252202.49851150 18482.50974520
0.08200000 1242455.43761714 15468.57092420
0.08300000 1232670.53153019 20191.14425408
0.08400000 1222850.37412681 21827.88020273
0.08500000 1212996.29784779 18777.18357218
0.08600000 1203111.50718995 25120.96944959
0.08700000 1193199.21900672 20475.29955963
0.08800000 1183258.90109891 20535.45919299
0.08900000 1173295.60872474 22175.28804646
0.09000000 1163310.06213926 17467.10140355
0.09100000 1153304.36807892 19098.72123267
0.09200000 1143281.20406706 19138.52825534
0.09300000 1133244.60747278 23968.12457436
0.09400000 1123192.38876045 20807.13997967
0.09500000 1113129.81511121 17631.97710011
0.09600000 1103058.53630583 19259.40294924
0.09700000 1092982.98731371 22493.59093640
0.09800000 1082901.98786165 19297.31433101
0.09900000 1072819.76516537 22529.21612785
0.10000000 1062736.08819106 20930.58824123
0.10100000 1052653.90051607 30600.65032721
0.10200000 1042576.11472692 17718.58190320
0.10300000 1032504.00175430 17717.76950356
0.10400000 1022441.20808724 19324.13974195
0.10500000 1012389.27632139 20926.08732612
0.10600001 1002346.07069086 16087.65519157
0.10700001 992319.76352365 16075.58092556
0.10800001 982307.75056331 22485.02546858
0.10900001 972314.52859957 17647.50952467
0.11000001 962340.57444264 16022.97131866
0.11100001 952388.18052873 20800.15884188
0.11200001 942458.81472460 20767.08096011
0.11300001 932554.55168093 19136.02030143
0.11400001 922677.24574354 17507.80156233
0.11500001 912829.27932658 25413.16833311
0.11600001 903010.99181181 19017.41238312
0.11700001 893225.94379146 22134.13992956
0.11800001 883472.41074744 29962.96822170
0.11900001 873754.14543674 15727.57535866
0.12000001 864071.98561063 15682.90727757
0.12100001 854430.93476273 18763.30421129
0.12200001 844828.40159678 18704.50169255
0.12300001 835268.36711335 17089.59159631
0.12400001 825749.16784892 18579.35715201
0.12500001 816274.54347688 15427.58959867
0.12600001 806847.04325623 19981.56796784
0.12700001 797465.77802502 18373.61239158
0.12800001 788132.25643554 18300.43185692
0.12900001 778849.42329367 18225.07736406
0.13000001 769617.60026307 16635.28521379
0.13100001 760436.51601403 16562.30809949
0.13200001 751310.35851927 16487.50659493
0.13300001 742238.38524481 16410.89147142
0.13400001 733221.44865362 16332.50853877
0.13500001 724262.07777156 14774.94708315
0.13600001 715360.07362716 22050.97530928
0.13700001 706517.60663854 17549.89817644
0.13800001 697732.72144869 14547.72792821
0.13900001 689011.45260111 21703.86178045
0.14000001 680349.98636070 20145.16404620
0.14100001 671752.94881699 18600.84003001
0.14200001 663218.45365315 18493.84745239
0.14300001 654750.03545336 22628.16229258
0.14400001 646342.90752341 16869.55068210
0.14500001 638005.38542080 19561.24603975
0.14600001 629732.92083100 18051.29502718
0.14700001 621529.63185120 15177.75432584
0.14800001 613392.20745095 16451.17977998
0.14900001 605324.10578879 16343.75162741
0.15000001 597324.92290219 16235.29217051
0.15100001 589396.34061940 20157.35580031
0.15200001 581538.69821266 21354.10200600
0.15300001 573752.05024156 19880.50947901
0.15400001 566034.45553342 15792.36205464
0.15500001 558390.75204719 19599.51632182
0.15600001 550817.63182825 15566.10701011
0.15700001 543320.08143753 16739.69249915
0.15800001 535891.93661309 19171.53493721
0.15900001 528539.61687346 15221.94168444
0.16000001 521258.38898003 20141.42510091
0.16100001 514053.12231473 14989.78975428
0.16200001 506921.60705780 13633.65726541
0.16300001 499863.81295315 20904.30564455
0.16400001 492880.87581461 15858.44292801
0.16500001 485972.06665918 15730.91654043
0.16600001 479139.00170653 13202.67581536
0.16700001 472378.77053433 15475.12925336
0.16800001 465693.73456850 16527.47142020
0.16900001 459085.73092483 12877.35536049
0.17000001 452550.49444199 12768.71280362
0.17100001 446090.77095380 13810.97092090
0.17200001 439705.16374709 13692.41944568
0.17300001 433395.22554516 14705.10069719
0.17400001 427159.91459728 11212.94828772
0.17500001 420998.19336536 12225.78811272
0.17600001 414909.88714280 13219.02962869
0.17700001 408898.70148708 12009.35542988
0.17800001 402959.55482179 15147.25038119
0.17900001 397093.73294775 12865.83755521
0.18000001 391303.42226420 11686.27725792
0.18100001 385586.43432762 11579.16116982
0.18200001 379940.13598204 11472.29294790
0.18300001 374367.80772572 12399.06237760
0.18400001 368867.32537260 13306.88939144
0.18500001 363439.84102426 13181.96365669
0.18600001 358084.07472796 11048.68464771
0.18700001 352798.69172212 12933.60064958
0.18800001 347583.07598634 10839.37873675
0.18900001 342441.57900860 10735.54400915
0.19000001 337366.15072076 13531.75694477
0.19100001 332363.22277135 11486.47352171
0.19200001 327427.56762705 17062.25135526
0.19300001 322563.00597333 10325.24230910
0.19400001 317764.46842182 10224.07225460
0.19500001 313035.05062850 10123.55401572
0.19600001 308371.12622028 10934.84065251
0.19700001 303776.27570006 9022.15581466
0.19800001 299245.90557252 9825.73977383
0.19900001 294781.65118445 11496.48493952
0.20000001 290381.13456440 9630.49078298
0.20100001 286046.92845548 10400.66681020
0.20200001 281774.85712314 10296.05376591
0.20300001 277567.05504593 9342.90751443
0.20400001 273421.99709395 10089.27216964
0.20500001 269338.00230886 10819.30806414
0.20600001 265315.58704967 10709.46417747
0.20700001 261354.12637199 9785.09895390
0.20800001 257452.34273501 11299.58385677
0.20900001 253612.38777541 13580.94400736
0.21000001 249828.38273835 7907.06868745
0.21100001 246103.91738428 9391.32593134
0.21200001 242435.86595075 7745.82628331
0.21300001 238824.71320521 9199.52838758
0.21400001 235270.15565896 11381.19431807
0.21500001 231771.78943574 8260.34696602
0.21600001 228326.88325575 7432.04040135
0.21700001 224936.65180844 8826.51463428
0.21800001 221599.85738636 9463.42235712
0.21900001 218314.70478738 9365.70127820
0.22000001 215081.31368331 8555.93506287
0.22100001 211900.50514165 9878.80201681
0.22200001 208770.35173153 7681.70545519
0.22300001 205689.14115908 8984.50211066
0.22400001 202656.41248067 7523.61966911
0.22500001 199674.60358122 8122.76325779
0.22600001 196738.58530370 10048.42371956
0.22700001 193850.65806934 7292.66210143
0.22800001 191008.27783897 8529.47505026
0.22900001 188211.47951668 8441.28525552
0.23000001 185460.07644015 8996.66873358
0.23100001 182754.27747530 6995.83407261
0.23200001 180090.04988223 9441.22131159
0.23300001 177470.18171177 7475.04440723
0.23400001 174890.81932222 7397.88200722
0.23500001 172353.82699682 6101.32576426
0.23600001 169857.71011268 6642.28606812
0.23700001 167401.62454150 7171.48593455
0.23800001 164985.16604454 7689.13402719
0.23900001 162607.64077953 7024.65041394
0.24000001 160267.71435594 6952.41377761
0.24100001 157966.57725072 8601.28053815
0.24200001 155702.16474115 6810.41300792
0.24300001 153473.59186478 7302.27384634
0.24400001 151280.34507393 8339.32941668
0.24500001 149121.89904457 7153.37783555
0.24600001 146997.95418096 7080.15679805
0.24700001 144908.95465208 6468.73604168
0.24800001 142852.13968379 6402.63320351
0.24900001 140826.70604796 6865.30224462
0.25000001 138834.90417225 5749.84782831
0.25100001 136873.40268772 7760.72229955
0.25200001 134944.91586989 6657.50773941
0.25300001 133044.36422246 6589.68767170
0.25400001 131175.19594661 7526.17722351
0.25500001 129332.78856429 4966.37931584
0.25600001 127521.07745929 7373.90665296
0.25700001 125736.23122104 6325.79009202
0.25800001 123978.63620388 5298.22726885
0.25900001 122249.40295400 5721.27232895
0.26000001 120545.24320735 5663.21579384
0.26100001 118867.22379562 9810.11244403
0.26200001 117215.25385735 5086.55618182
0.26300001 115587.32830932 4577.25841763
0.26400001 113984.65633143 5890.15739464
0.26500001 112405.95892889 6278.99716288
0.26600001 110850.26411340 5771.41927417
0.26700001 109318.08431652 6591.88079622
0.26800001 107808.89381658 4350.08907135
0.26900001 106321.03406959 4736.60229194
0.27000001 104855.55217877 4262.37839777
0.27100001 103411.23136035 6328.76765875
0.27200001 101988.33829204 4176.42265070
0.27300001 100586.25315880 7027.96184080
0.27400001 99202.43478174  4501.31069124
0.27500001 97840.84212226  4860.73326667
0.27600001 96496.71914386  4811.32664421
0.27700001 95173.30851318  5159.34529867
0.27800001 93867.34093982  3928.34840425
0.27900001 92580.14850021  4666.03970524
0.28000001 91310.58925584  6927.73473472
0.28100001 90058.98539868  5714.24289400
0.28200001 88825.45812139  4901.83313843
0.28300001 87608.71229514  4105.34445246
0.28400001 86407.94408839  3693.93978462
0.28500001 85224.34685058  4387.34958353
0.28600001 84056.60196960  5789.81901771
0.28700001 82905.77957101  5014.14178579
0.28800001 81768.48281071  5671.46223620
0.28900001 80648.93613168  4911.52044290
0.29000001 79543.29425850  4860.89094222
0.29100001 78453.14905117  5154.37213664
0.29200001 77377.21324762  3400.72868321
0.29300001 76316.22227155  4038.65467378
0.29400001 75268.67184904  3663.70277568
0.29500001 74236.16129050  3955.30286079
0.29600001 73216.37096113  4892.68422108
0.29700001 72210.58191303  3873.37579717
0.29800001 71218.48160168  3194.14905104
0.29900001 70239.92456859  3476.87643074
0.30000001 69273.17334441  3127.68392456
0.30100001 68320.68288204  3094.92708107
0.30200001 67379.53635060  4593.60010817
0.30300001 66452.11238977  3333.23811527
0.30400001 65536.51656553  3298.12535230
0.30500001 64633.75912747  3263.35865284
0.30600001 63741.62699748  4696.48329952
0.30700001 62862.44695832  2904.24518697
0.30800001 61994.93392315  4022.85145273
0.30900001 61139.37939166  3411.57753157
0.31000001 60295.37524741  3375.33526615
0.31100001 59461.96683284  3617.66623339
0.31200001 58641.00970629  3303.83464327
0.31300001 57830.31987666  2996.18901467
0.31400001 57032.22053415  3233.72705739
0.31500001 56243.45581615  2932.53392510
0.31600002 55467.33038283  3164.96602150
0.31700002 54701.13613195  3392.01761215
0.31800002 53945.35132178  2839.41370126
0.31900002 53200.97706832  3575.10582827
0.32000002 52467.71156777  3031.58451793
0.32100002 51743.95089004  2999.07953559
0.32200002 51031.80016715  2719.73991869
0.32300002 50328.72691469  3424.36674142
0.32400002 49637.10934536  3387.73287323
0.32500002 48954.87731262  3112.06169812
0.32600002 48283.26816819  3552.44162369
0.32700002 47621.97179752  3514.50168508
0.32800002 46971.68796477  4636.10582166
0.32900002 46329.50329686  2293.31052179
0.33000002 45698.44702076  2722.71360243
0.33100002 45076.37794531  3367.20559197
0.33200002 44465.90176984  2887.39346816
0.33300002 43864.32252104  2197.60266237
0.33400002 43273.01915806  3044.25704193
0.33500002 42691.29633528  2581.96972463
0.33600002 42118.90992679  2342.02209739
0.33700002 41556.23617500  2317.59140123
0.33800002 41003.97737118  2919.07328729
0.33900002 40460.55038419  3507.92988444
0.34000002 39926.78507380  2450.70618389
0.34100002 39402.95352071  2627.78309474
0.34200002 38888.93531461  2200.91939836
0.34300002 38383.56178955  2574.76944678
0.34400002 37888.42680136  2352.87141580
0.34500002 37402.46105971  2717.66294931
0.34600002 36926.51277499  2498.63260526
0.34700002 36458.36456581  3045.00275275
0.34800002 36000.72978961  3015.42126999
0.34900002 35551.71612000  2239.75822164
0.35000002 35112.39086844  2403.26770681
0.35100002 34682.78758694  2014.37639846
0.35200002 34260.75087045  2176.92821341
0.35300002 33849.15967947  1977.12951052
0.35400002 33445.70499795  2315.27903814
0.35500002 33051.89825238  1764.97145027
0.35600002 32666.86403704  2623.96597806
0.35700002 32290.44837529  2080.79659186
0.35800002 31923.39795631  1890.98256751
0.35900002 31565.57612373  1704.54119142
0.36000002 31216.28230388  2366.50647355
0.36100002 30875.13942606  1844.17216527
0.36200002 30544.20047070  1663.13179441
0.36300002 30220.52733123  2475.06130566
0.36400002 29905.91087606  1964.81843763
0.36500002 29599.32639721  2112.50402503
0.36600002 29301.94772154  1613.07229848
0.36700002 29012.52754623  2081.93907534
0.36800002 28732.28639989  1908.39855308
0.36900002 28459.95789698  1895.43328572
0.37000002 28195.34108734  1882.88496700
0.37100002 27939.16464963  1870.80655356
0.37200002 27691.63933059  1859.21675273
0.37300002 27451.87064677  1540.05001624
0.37400002 27220.00273919  2449.80036258
0.37500002 26996.17797042  2131.61831352
0.37600002 26780.57123415  1968.77378754
0.37700002 26572.42426055  1807.98783234
0.37800002 26371.79441226  1799.08390003
0.37900002 26179.96205102  2089.16107064
0.38000002 25994.62173535  1931.27051332
0.38100002 25816.27890850  1479.27285153
0.38200002 25646.59171079  1473.39676358
0.38300002 25483.54704548  1614.63761729
0.38400002 25327.98078906  1755.22915183
0.38500002 25179.02953510  1895.22564289
0.38600002 25038.07847154  1889.49868137
0.38700002 24903.32088147  1884.18534716
0.38800002 24775.24828083  1590.19938624
0.38900002 24654.18078038  2019.17750157
0.39000002 24540.42014796  1583.22528085
0.39100002 24432.25128855  1723.93973259
0.39200002 24331.59778369  1864.65208449
0.39300002 24236.45115693  1432.37433124
0.39400002 24148.91924209  1573.90588617
0.39500002 24066.07235085  3002.00200727
0.39600002 23989.87596382  1571.45689946
0.39700002 23918.99807937  1999.14995419
0.39800002 23855.30045057  2712.70561926
0.39900002 23796.03765958  1427.76232722
0.40000002 23743.12761475  1570.96411306
0.40100002 23695.12738594  1857.46112379
0.40200002 23653.12349885  1429.83138325
0.40300002 23616.24965191  1860.48823573
0.40400002 23584.54389762  1432.76110967
0.40500002 23557.63644675  2151.99019137
0.40600002 23536.40177823  1724.27687597
0.40700002 23519.65117748  1727.28326431
0.40800002 23507.17038865  1730.59796601
0.40900002 23499.29937279  1445.20697990
0.41000002 23496.60770423  2172.84890040
0.41100002 23497.89414285  2178.25489025
0.41200002 23502.49073452  2038.37111799
0.41300002 23512.77940093  2044.20113798
0.41400002 23526.01568381  1757.39345485
0.41500002 23543.11583062  1615.99954719
0.41600002 23563.13120770  1768.64871225
0.41700002 23588.17775330  1626.87669673
0.41800002 23617.27493542  2226.51870004
0.41900002 23647.63055792  1638.78087532
0.42000002 23681.90104025  1794.61454587
0.42100002 23720.40633626  2102.10250913
0.42200002 23760.86662523  1658.38976469
0.42300002 23804.22674474  1513.94889270
0.42400002 23850.12712295  1672.49024375
0.42500002 23899.36513952  2290.75425717
0.42600002 23949.78258482  1994.17874142
0.42700002 24003.52103906  1695.12873610
0.42800002 24058.90474778  1703.00965327
0.42900002 24117.48969920  1555.57815931
0.43000002 24177.87855198  1875.71990695
0.43100002 24238.41101616  1727.71401910
0.43200002 24302.05946108  2051.94448783
0.43300002 24366.74040699  2379.41231350
0.43400002 24433.27945843  1753.69871623
0.43500002 24500.79406836  2083.05761040
0.43600002 24570.19081611  2093.74890962
0.43700002 24640.01726136  2590.15873726
0.43800002 24710.62807871  1952.63392331
0.43900002 24783.02106140  2126.38330784
0.44000002 24855.43313478  1973.02437574
0.44100002 24928.96521627  1818.06951938
0.44200002 25002.92838967  1993.73360428
0.44300002 25077.39749751  1837.17022773
0.44400002 25152.11105155  2350.46488916
0.44500002 25226.62673133  2025.19368997
0.44600002 25301.04113789  2375.00884417
0.44700002 25376.72629367  1705.31608775
0.44800002 25450.79903652  1714.11139634
0.44900002 25525.79299497  2584.48666322
0.45000002 25600.58698546  1905.06777081
0.45100002 25674.12714172  1914.77649298
0.45200002 25747.69144032  2099.46685954
0.45300002 25820.08090308  2285.85187068
0.45400002 25892.17656284  2297.28347441
0.45500002 25963.86680913  2131.11428869
0.45600002 26034.10052466  2320.02897821
0.45700002 26103.75418414  2151.99359693
0.45800002 26172.05602683  2342.52998570
0.45900002 26238.98280557  3439.93080884
0.46000002 26305.36956401  2546.62294819
0.46100002 26369.52052294  2010.14864473
0.46200002 26432.97601261  2937.23243373
0.46300002 26495.16028010  2581.68854005
0.46400002 26555.02320082  2593.09813846
0.46500002 26614.46708042  2790.52700564
0.46600002 26671.19808971  2241.98101768
0.46700002 26726.02465246  2251.40042343
0.46800002 26780.21358149  2072.38692623
0.46900002 26831.38559275  2648.25788352
0.47000002 26881.04727088  2848.71911955
0.47100002 26928.91905709  3050.50809537
0.47200002 26974.78762115  3253.56416313
0.47300002 27018.55665133  3073.63115034
0.47400002 27059.54584083  1927.99273254
0.47500002 27098.70068795  2902.27098124
0.47600002 27136.29024786  2524.08215704
0.47700002 27170.64329926  2337.76226027
