# SAXS profile: number of points = 501, q_min = 0, q_max = 0.5, delta_q = 0.001
#    q    intensity    error
0.00000000 1700912.83420644 306.16431016
0.00100000 1700829.75890786 612.29872775
0.00200000 1700580.47813078 1071.36573515
0.00300000 1700165.21571490 1326.12891550
0.00400000 1699583.83711171 1657.09430415
0.00500000 1698836.86133744 1987.63920644
0.00600000 1697924.20950718 2674.23073885
0.00700000 1696846.42403581 2443.45895216
0.00800000 1695603.35813770 3204.69048218
0.00900000 1694196.17101016 4320.20042075
0.01000000 1692624.39393309 5027.09466705
0.01100000 1690889.16664237 3956.68082221
0.01200000 1688990.49892712 3952.23794077
0.01300000 1686929.52150438 3896.80736654
0.01400000 1684706.30954207 4927.76617386
0.01500000 1682322.26847830 4037.57362414
0.01600000 1679776.76359437 4283.43093865
0.01700000 1677072.13835464 4980.90447435
0.01800000 1674208.38639497 5725.79293912
0.01900000 1671186.02110695 7520.33743432
0.02000000 1668006.39421142 5779.64241739
0.02100000 1664671.56648159 7141.44134399
0.02200000 1661179.85161173 7450.39197297
0.02300000 1657534.71889439 5967.12525963
0.02400000 1653735.66766157 6201.50903650
0.02500000 1649785.34585325 6434.16314268
0.02600000 1645683.55571240 6665.01870548
0.02700000 1641432.52306237 8962.22198640
0.02800000 1637032.09473695 8545.30792641
0.02900000 1632485.20008414 9550.03885897
0.03000000 1627792.60694929 9840.00676131
0.03100000 1622954.89304055 7790.18384505
0.03200000 1617973.82720760 8809.86789491
0.03300000 1612853.04828949 9870.66111057
0.03400000 1607590.38266350 10971.80486792
0.03500000 1602189.57200878 12112.55372372
0.03600000 1596651.56828782 8861.41661352
0.03700000 1590978.42902486 10882.29295781
0.03800000 1585171.59628739 9273.25426744
0.03900000 1579233.00427628 9475.39846446
0.04000000 1573162.70880437 13544.93155046
0.04100000 1566964.98806282 13820.63183553
0.04200000 1560640.12645390 12079.35513915
0.04300000 1554189.53867467 14360.71200395
0.04400000 1547616.56940148 11491.05356147
0.04500000 1540922.55196890 11695.60271288
0.04600000 1534107.47948280 14060.09570307
0.04700000 1527175.90824566 15393.93387106
0.04800000 1520128.34412308 15642.12138882
0.04900000 1512968.19323155 12481.98817517
0.05000000 1505695.03840846 12670.42433822
0.05100000 1498313.93073720 11686.84920417
0.05200000 1490822.94937881 11852.04299988
0.05300000 1483228.52614376 12014.15162184
0.05400000 1475529.80392982 18259.68217515
0.05500000 1467730.08870659 13561.82665230
0.05600000 1459830.14916162 13729.70319355
0.05700000 1451835.58840390 17683.35829219
0.05800000 1443744.64205837 17887.99695034
0.05900000 1435560.52932463 18088.06351431
0.06000000 1427287.07039353 15671.61276508
0.06100000 1418925.53744644 17154.81054940
0.06200000 1410477.88780555 19993.52499421
0.06300000 1401947.38150962 17496.30413929
0.06400000 1393333.38538730 17660.50148571
0.06500000 1384641.25449635 15078.74396682
0.06600000 1375872.35143891 13827.51777893
0.06700000 1367028.78397339 18126.80252380
0.06800000 1358112.75473187 19679.05473722
0.06900000 1349127.70942867 14165.84161223
0.07000000 1340073.94722481 15698.96702690
0.07100000 1330954.86508334 15811.74453778
0.07200000 1321772.80427002 18815.43675023
0.07300000 1312530.25938225 20396.72118650
0.07400000 1303230.32738659 16127.47605721
0.07500000 1293873.90377498 22125.24479162
0.07600000 1284462.06740773 16319.09133146
0.07700000 1275001.09431933 17901.01620360
0.07800000 1265490.63636758 19494.88416748
0.07900000 1255932.50355677 16578.30982453
0.08000000 1246331.47947158 19685.80664174
0.08100000 1236687.98702926 19774.64184039
0.08200000 1227004.32145417 19859.06587463
0.08300000 1217283.55295277 15337.77348704
0.08400000 1207527.79977952 15395.98016986
0.08500000 1197738.99797582 21631.16731892
0.08600000 1187919.67041879 21703.29339755
0.08700000 1178073.31653161 24880.90961350
0.08800000 1168199.63600753 18714.55904775
0.08900000 1158303.43158307 20328.22617909
0.09000000 1148385.48215882 17243.00882461
0.09100000 1138447.82878833 20423.75500799
0.09200000 1128492.96616134 25187.96418822
0.09300000 1118525.41307206 15771.20906544
0.09400000 1108542.57995647 22115.42550950
0.09500000 1098549.74735106 17401.02881594
0.09600000 1088548.60841077 17422.22129659
0.09700000 1078543.54785417 20610.96816847
0.09800000 1068533.58825724 15867.72453168
0.09900000 1058522.95252818 19053.41404145
0.10000000 1048510.88819886 17473.43477356
0.10100000 1038501.16901028 17477.97549646
0.10200000 1028495.99570932 20657.34304547
0.10300000 1018496.81643306 15888.55108376
0.10400000 1008507.23021798 19060.78754784
0.10500000 998529.12321687 22227.25932859
0.10600001 988559.84268584 17453.02484385
0.10700001 978607.78814332 25365.51506232
0.10800001 968670.51506559 15837.76366667
0.10900001 958752.30047379 25311.06192379
0.11000001 948853.45260808 15798.41072955
0.11100001 938976.62059540 15774.80796858
0.11200001 929123.20836596 20473.23086016
0.11300001 919294.90340592 18863.93230602
0.11400001 909493.98773427 21964.28083796
0.11500001 899722.68145591 21917.24555231
0.11600001 889981.38326023 20304.92621527
0.11700001 880273.33026624 21813.17415129
0.11800001 870597.21400503 17094.17710210
0.11900001 860956.60931604 20146.38560692
0.12000001 851352.22988837 18542.45244041
0.12100001 841789.01373697 16945.21364478
0.12200001 832264.93174032 18426.34645682
0.12300001 822782.94171891 22955.64515550
0.12400001 813342.45427499 16775.18890983
0.12500001 803946.49508262 22791.88420956
0.12600001 794597.87564933 27246.76243998
0.12700001 785295.59978871 19600.97909445
0.12800001 776041.31275757 18019.68013148
0.12900001 766837.82008114 25420.67493382
0.13000001 757685.45224288 17866.22380601
0.13100001 748584.06151155 19268.55465158
0.13200001 739537.30877317 14753.77000552
0.13300001 730545.22186397 20557.54351240
0.13400001 721608.07635618 18996.33350567
0.13500001 712728.56617704 14539.66343553
0.13600001 703906.57888635 21697.92131725
0.13700001 695144.24797707 20145.28125629
0.13800001 686439.53029463 15743.49136970
0.13900001 677798.30705136 14233.76511932
0.14000001 669217.07208466 14153.94174210
0.14100001 660700.25253623 23923.95727266
0.14200001 652246.03839676 23784.15291192
0.14300001 643857.81816904 20860.99429264
0.14400001 635531.03206441 22116.48095907
0.14500001 627273.56497957 16484.75006528
0.14600001 619081.43552924 15015.82092712
0.14700001 610958.30928455 13563.27510599
0.14800001 602900.89814311 16169.80285107
0.14900001 594913.07834651 13385.54489434
0.15000001 586994.11624083 14624.95909619
0.15100001 579145.29875539 13204.51343468
0.15200001 571367.79909746 15735.46992965
0.15300001 563660.86894504 15624.68002447
0.15400001 556023.35657903 14220.29801558
0.15500001 548459.37127149 14117.34488277
0.15600001 540965.86618460 21657.56947483
0.15700001 533547.70089138 17703.11355111
0.15800001 526199.12283209 16314.80457345
0.15900001 518926.14353702 18681.34204910
0.16000001 511723.97442593 14829.76147886
0.16100001 504597.89705814 15940.24832051
0.16200001 497545.39554931 14597.98259453
0.16300001 490566.27991212 14481.51726665
0.16400001 483662.03288274 15561.82664267
0.16500001 476831.76316602 21371.60063408
0.16600001 470076.69710504 14130.50618212
0.16700001 463394.80161865 14013.05946257
0.16800001 456787.72248317 13895.48317403
0.16900001 450257.19567565 12629.71493505
0.17000001 443799.34455243 12521.79909782
0.17100001 437417.02110378 16928.03951608
0.17200001 431108.67225284 12305.99763058
0.17300001 424875.46367350 17742.80020090
0.17400001 418716.89847590 10991.31910407
0.17500001 412631.69268849 14161.52036188
0.17600001 406619.59270581 16193.62604432
0.17700001 400684.41374750 12837.92922281
0.17800001 394820.89058513 12721.12969550
0.17900001 389030.62206722 15755.74093792
0.18000001 383315.25807560 13529.11267283
0.18100001 377673.24881011 11341.52819750
0.18200001 372101.68111705 11235.61079208
0.18300001 366603.57028714 14165.56262507
0.18400001 361177.27993072 14031.73798818
0.18500001 355823.56191113 9927.47784632
0.18600001 350541.26160550 14749.02427885
0.18700001 345329.16341979 16555.08087649
0.18800001 340186.46106856 10608.71528964
0.18900001 335117.53314093 11461.02017492
0.19000001 330114.30441182 9457.77526827
0.19100001 325183.27796315 10301.80673263
0.19200001 320319.25881328 14837.18876931
0.19300001 315525.89064437 11018.16462194
0.19400001 310798.26900685 9999.93477783
0.19500001 306139.32798708 10800.59600177
0.19600001 301545.72505363 13366.01489463
0.19700001 297020.63840061 14996.57274155
0.19800001 292559.84251217 13972.65873871
0.19900001 288164.66261616 8644.94028704
0.20000001 283832.94542931 11124.83282187
0.20100001 279567.05666499 11012.14688249
0.20200001 275363.13027941 10061.76925596
0.20300001 271222.87841258 12449.13070754
0.20400001 267145.04052551 9036.18142288
0.20500001 263128.08268033 11382.92139479
0.20600001 259171.97535908 9656.74825833
0.20700001 255276.76598721 8761.09902281
0.20800001 251440.54452312 8670.92758776
0.20900001 247665.89993924 10922.06670362
0.21000001 243946.73789504 9265.09754324
0.21100001 240286.71327225 12225.78854925
0.21200001 236682.69922699 7562.01259779
0.21300001 233135.23452395 7483.64138201
0.21400001 229643.75788658 8887.21385037
0.21500001 226208.27949920 8794.97832273
0.21600001 222825.69478473 7978.27437897
0.21700001 219497.31862581 11484.10025347
0.21800001 216221.95860108 8523.47001105
0.21900001 212998.13991585 7028.93894956
0.22000001 209825.25240829 9737.99042471
0.22100001 206704.74785864 9636.57580082
0.22200001 203634.09397595 6811.56076558
0.22300001 200612.17082848 6740.56925857
0.22400001 197638.43028121 7337.32707115
0.22500001 194715.00660153 8581.09074671
0.22600001 191837.02009599 9798.07626474
0.22700001 189006.57079021 7756.83003204
0.22800001 186221.31448634 9595.05368266
0.22900001 183480.97735292 6963.10341983
0.23000001 180785.73213670 8769.91628070
0.23100001 178135.58682672 6819.03058622
0.23200001 175526.57366847 7361.58484781
0.23300001 172961.37551227 7892.22793788
0.23400001 170436.49779165 9011.83024695
0.23500001 167953.24445459 5945.54513489
0.23600001 165510.39723595 5883.89490003
0.23700001 163107.46468860 7569.81779423
0.23800001 160743.39268794 6915.18108051
0.23900001 158417.76278722 7413.95164912
0.24000001 156129.34838673 6208.48383226
0.24100001 153879.23107210 6702.97962256
0.24200001 151665.42031624 7739.48676483
0.24300001 149486.85036283 9848.19416775
0.24400001 147343.31885119 5956.35394632
0.24500001 145234.12420077 5895.05338017
0.24600001 143158.87920323 6895.24774300
0.24700001 141117.95266618 6824.46451377
0.24800001 139108.87166907 6234.85992316
0.24900001 137130.87310337 6685.13038005
0.25000001 135185.83676883 5598.72169465
0.25100001 133270.72770812 5541.39712026
0.25200001 131388.03959167 7977.88214144
0.25300001 129532.99587357 6415.76958915
0.25400001 127708.67860073 4884.85718759
0.25500001 125910.86803032 6285.47082945
0.25600001 124143.07829977 5742.85907386
0.25700001 122401.76274358 6631.72781922
0.25800001 120687.35511761 5157.57436498
0.25900001 119000.62657050 5569.22958701
0.26000001 117338.71405372 5512.57304707
0.26100001 115702.27055310 6365.93922704
0.26200001 114091.72066380 4500.91859316
0.26300001 112504.47934904 5791.73087094
0.26400001 110942.15168803 5732.93595975
0.26500001 109403.32784993 4365.19298777
0.26600001 107887.01049088 4752.96247208
0.26700001 106393.83943416 5132.43905717
0.26800001 104923.16530955 4233.64992058
0.26900001 103473.35872992 4609.73834956
0.27000001 102045.55247743 5807.41266631
0.27100001 100638.32772663 6159.06594833
0.27200001 99252.13464348  4877.25012719
0.27300001 97886.33910745  6437.00596433
0.27400001 96538.42473303  5575.09429217
0.27500001 95212.20511826  3941.78547844
0.27600001 93902.93807775  3901.66726178
0.27700001 92614.03378144  3862.00539146
0.27800001 91342.14050339  6116.27001757
0.27900001 90088.72309066  4540.47185866
0.28000001 88852.41430254  5243.18121614
0.28100001 87633.70334155  4818.97757483
0.28200001 86432.52341513  4769.77903042
0.28300001 85247.70363094  5084.17328518
0.28400001 84078.53270218  4313.22893177
0.28500001 82926.06633670  4980.53977992
0.28600001 81789.04249364  3873.12029061
0.28700001 80668.48943661  4181.85469033
0.28800001 79561.17644537  4138.77259459
0.28900001 78471.05892801  5461.58595991
0.29000001 77394.53347083  5067.40731886
0.29100001 76333.16946067  4012.07157676
0.29200001 75285.52716253  3970.55889050
0.29300001 74252.43381912  4256.89223235
0.29400001 73232.43649247  3888.64256182
0.29500001 72227.11750753  3848.26100297
0.29600001 71234.06558596  3490.82554929
0.29700001 70254.69464639  4396.53899909
0.29800001 69288.60024669  3729.11264181
0.29900001 68335.66230306  3690.12593905
0.30000001 67394.22110227  3347.13414950
0.30100001 66466.60702007  3613.12492866
0.30200001 65550.08367353  3277.17658840
0.30300001 64646.88482949  4127.05732289
0.30400001 63755.03047667  4083.50989535
0.30500001 62875.76226622  4328.99643697
0.30600001 62006.84379670  3712.03987963
0.30700001 61150.45011402  3107.66602192
0.30800001 60305.31964567  3913.21237707
0.30900001 59471.88342687  3041.98698130
0.31000001 58649.59280655  3009.60399736
0.31100001 57837.61649359  2977.48063806
0.31200001 57037.90310692  2945.72264542
0.31300001 56247.95238493  2914.20655104
0.31400001 55470.31177796  3407.26406228
0.31500001 54701.86871923  2592.86870006
0.31600002 53945.51092259  2821.62008240
0.31700002 53198.80312496  3298.85793797
0.31800002 52462.30596238  2761.35360508
0.31900002 51736.84532747  2731.70556263
0.32000002 51022.07369152  2702.38426103
0.32100002 50316.75803243  2916.35943365
0.32200002 49622.68008568  3365.90654959
0.32300002 48937.26394875  2378.35114053
0.32400002 48263.03774246  2588.10552149
0.32500002 47598.06235928  3491.31803937
0.32600002 46943.46828042  2993.35039664
0.32700002 46298.81056516  2961.27206397
0.32800002 45664.87657364  2704.27411875
0.32900002 45038.74198664  2229.41783391
0.33000002 44423.64049922  2867.32401180
0.33100002 43817.19460467  2400.30603411
0.33200002 43222.05345915  2806.62417428
0.33300002 42635.57655307  3204.06372969
0.33400002 42059.25982278  2958.86906865
0.33500002 41492.12004842  2718.56383431
0.33600002 40934.06376114  2069.21702112
0.33700002 40385.53530477  2457.05608430
0.33800002 39847.27403706  3039.35097111
0.33900002 39317.46979872  2205.71016017
0.34000002 38797.25635473  2976.71963479
0.34100002 38286.57296777  2160.51141489
0.34200002 37785.62737773  2138.47768272
0.34300002 37293.15612758  2116.75964205
0.34400002 36810.67949898  1904.95275429
0.34500002 36337.13946284  2451.66691567
0.34600002 35873.33041424  2427.36901744
0.34700002 35417.27226172  2033.65986958
0.34800002 34971.46801571  2379.98336853
0.34900002 34534.15354715  1994.34746180
0.35000002 34106.24544970  1795.69390797
0.35100002 33687.90160680  2668.08193363
0.35200002 33277.04652764  2466.82757593
0.35300002 32876.35816030  2094.88164119
0.35400002 32483.79588842  1902.73843429
0.35500002 32100.59615050  1885.58910719
0.35600002 31725.93119982  1698.92369622
0.35700002 31359.89019104  2526.03927453
0.35800002 31002.81967544  2504.25287790
0.35900002 30655.02788934  1986.44590132
0.36000002 30315.58344391  1969.90670549
0.36100002 29984.10871999  1953.76461674
0.36200002 29662.61796254  3068.74628667
0.36300002 29348.45379960  1762.66821870
0.36400002 29043.09236583  1749.12032058
0.36500002 28745.56656256  1735.94484694
0.36600002 28457.23418735  2349.85622433
0.36700002 28176.63163752  2488.56022410
0.36800002 27905.17505040  1853.46181464
0.36900002 27641.51675360  2147.74595349
0.37000002 27385.44661657  2286.00026460
0.37100002 27137.66137051  2119.99420669
0.37200002 26898.46402919  2407.95061396
0.37300002 26666.82490522  2244.01342207
0.37400002 26443.07479834  1487.42302787
0.37500002 26227.27305400  2070.90557845
0.37600002 26019.50146472  2207.10431630
0.37700002 25819.06360718  1610.33507346
0.37800002 25626.25344968  2185.27886644
0.37900002 25441.93908052  1740.22871555
0.38000002 25264.16213073  1443.84693417
0.38100002 25093.30529846  1725.41575406
0.38200002 24930.96900530  2148.42635581
0.38300002 24775.03832038  1855.15495732
0.38400002 24626.70098315  1422.19204915
0.38500002 24484.86957865  1701.20881892
0.38600002 24350.95863821  1696.28785910
0.38700002 24223.18920564  2114.68451784
0.38800002 24102.08036961  1546.99210181
0.38900002 23987.87906882  1683.94919041
0.39000002 23880.90209977  1540.67647196
0.39100002 23779.49872665  1398.23459137
0.39200002 23685.38282547  1535.87872208
0.39300002 23596.89418048  1812.94946578
0.39400002 23515.92158124  1393.31841970
0.39500002 23439.58210872  1670.77349187
0.39600002 23369.86257690  1670.01045887
0.39700002 23305.38034465  1530.46439974
0.39800002 23248.00039290  1808.81075627
0.39900002 23195.11893521  1391.70720205
0.40000002 23148.46361673  1392.38015252
0.40100002 23106.76840426  1672.00584095
0.40200002 23070.99924711  1952.49875879
0.40300002 23040.24997325  1815.11097889
0.40400002 23014.64681283  1677.76783215
0.40500002 22993.82914437  1680.38911349
0.40600002 22978.70483491  1823.70499563
0.40700002 22967.97262239  1686.76798931
0.40800002 22961.53999187  1408.69054525
0.40900002 22959.57729236  1976.81969854
0.41000002 22962.89343122  1557.22869182
0.41100002 22970.03253718  2271.27692489
0.41200002 22980.65268390  1850.74695159
0.41300002 22996.77624334  1713.71984685
0.41400002 23015.98027164  1576.01932378
0.41500002 23038.90418489  1437.62768926
0.41600002 23064.83047166  1586.97573580
0.41700002 23095.69121366  1737.71988926
0.41800002 23130.56897566  1744.50759481
0.41900002 23166.73436990  1605.45476791
0.42000002 23206.88125363  1612.06608267
0.42100002 23251.01010456  1913.32571217
0.42200002 23297.33958794  2217.32440035
0.42300002 23346.48034138  1633.31984208
0.42400002 23398.15122315  1640.79543227
0.42500002 23453.06574238  1798.38116634
0.42600002 23509.21972047  1806.91871334
0.42700002 23568.74783898  1664.42505126
0.42800002 23629.92908107  1672.64460926
0.42900002 23694.15711225  1681.10052678
0.43000002 23760.23598491  2304.14899382
0.43100002 23826.45359370  1698.34969264
0.43200002 23895.90869241  1862.44721174
0.43300002 23966.22139948  1872.24130445
0.43400002 24038.50166380  1568.51230789
0.43500002 24111.69815865  2523.04821488
0.43600002 24186.86510997  2061.08380802
0.43700002 24262.37533752  2072.24957578
0.43800002 24338.66929250  1762.97159375
0.43900002 24416.77717528  2094.95958092
0.44000002 24494.91162240  1620.33848061
0.44100002 24574.14627404  2118.04576773
0.44200002 24653.81718243  1965.89547529
0.44300002 24734.01165956  1976.74230551
0.44400002 24814.43827043  1656.36383305
0.44500002 24894.62623137  1998.54068857
0.44600002 24974.75339912  2846.74740111
0.44700002 25056.16791696  2188.90693296
0.44800002 25136.01941316  2031.49318525
0.44900002 25216.69977447  1872.34004699
0.45000002 25297.19334930  2053.62625342
0.45100002 25376.39366401  2580.77935794
0.45200002 25455.63144932  2421.59433454
0.45300002 25533.78387532  2086.62091718
0.45400002 25611.60267289  2272.38955485
0.45500002 25688.94313777  1757.12379390
0.45600002 25764.90127922  2472.65769295
0.45700002 25840.23391606  1952.74656958
0.45800002 25914.26328100  2854.71537833
0.45900002 25986.92749098  2151.71769823
0.46000002 26059.00624620  2162.37644079
0.46100002 26128.91943929  1810.73420296
0.46200002 26198.10811171  2001.40456405
0.46300002 26265.89118474  1828.10611310
0.46400002 26331.46912023  2203.94406982
0.46500002 26396.59217888  2214.14625690
0.46600002 26458.98594327  2038.79725849
0.46700002 26519.53642393  2792.50731779
0.46800002 26579.34207363  1869.85680350
0.46900002 26636.23332232  2253.42544587
0.47000002 26691.55761742  2828.63795257
0.47100002 26745.02972217  2272.25783289
0.47200002 26796.57694710  2091.33894696
0.47300002 26845.89564839  2290.49192528
0.47400002 26892.55419578  2299.31349272
0.47500002 26937.35970860  3077.32411897
0.47600002 26980.53661797  3281.77772708
0.47700002 27020.47394739  2712.31530340
