# SAXS profile: number of points = 501, q_min = 0, q_max = 0.5, delta_q = 0.001
#    q    intensity    error
0.00000000 1700912.83420644 255.13692513
0.00100000 1700829.76190607 561.27383476
0.00200000 1700580.48952749 765.26124452
0.00300000 1700165.24250580 1632.15869095
0.00400000 1699583.88498218 1402.15675839
0.00500000 1698836.93479147 1528.95330183
0.00600000 1697924.31688823 2495.94884744
0.00700000 1696846.56624528 2850.70234977
0.00800000 1695603.54646176 2975.78434968
0.00900000 1694196.41968944 3557.81263344
0.01000000 1692624.68642193 4468.52936510
0.01100000 1690889.51400159 3347.96138349
0.01200000 1688990.91868438 4610.94541017
0.01300000 1686930.02431067 4251.06384876
0.01400000 1684706.89122148 4548.70880795
0.01500000 1682322.93160789 4441.33273721
0.01600000 1679777.51006934 4711.77612638
0.01700000 1677072.98574137 4980.90699109
0.01800000 1674209.33483699 6202.94586469
0.01900000 1671187.07634740 5514.91760079
0.02000000 1668007.54697334 5254.22401064
0.02100000 1664672.83345785 6042.76265942
0.02200000 1661181.28802947 6304.18327449
0.02300000 1657536.22379930 8950.69601594
0.02400000 1653737.32520546 7441.81830275
0.02500000 1649787.14642359 7077.58718140
0.02600000 1645685.50815798 9331.03725804
0.02700000 1641434.61238301 7583.42825654
0.02800000 1637034.33081084 10681.64949840
0.02900000 1632487.58853765 9550.05283143
0.03000000 1627795.16139163 10596.94698775
0.03100000 1622957.62988420 9348.23637827
0.03200000 1617976.74188671 9610.78228946
0.03300000 1612856.10348214 9870.67980835
0.03400000 1607593.60770453 9283.85351285
0.03500000 1602192.96489193 11247.39513292
0.03600000 1596655.15038065 13292.15474120
0.03700000 1590982.23352594 12696.03881070
0.03800000 1585175.59894083 9273.27768297
0.03900000 1579237.17485382 17055.76227827
0.04000000 1573167.09128128 13544.96928359
0.04100000 1566969.56115870 15795.05390884
0.04200000 1560644.95652114 11072.77648022
0.04300000 1554194.54346700 12309.22135563
0.04400000 1547621.76382881 14625.02634740
0.04500000 1540928.01942172 10632.40382804
0.04600000 1534113.18448047 14060.14798938
0.04700000 1527181.77226922 13194.85112607
0.04800000 1520134.38357676 16759.48235872
0.04900000 1512974.48394589 17020.96373667
0.05000000 1505701.62139678 14974.20332208
0.05100000 1498320.69058577 14024.28231719
0.05200000 1490829.96436994 11852.09876906
0.05300000 1483235.80160339 12014.21055306
0.05400000 1475537.24632108 13390.50113481
0.05500000 1467737.79248288 19726.39685119
0.05600000 1459838.13094209 13729.77826220
0.05700000 1451843.77711516 16420.35388565
0.05800000 1443753.08163566 17888.10151670
0.05900000 1435569.19418953 14212.13568627
0.06000000 1427295.95818458 19589.63794129
0.06100000 1418934.64648313 17154.92067765
0.06200000 1410487.28480722 15994.92655737
0.06300000 1401957.01742153 14804.66679617
0.06400000 1393343.20495441 17660.62594873
0.06500000 1384651.35706140 16449.65889137
0.06600000 1375882.75611553 15210.38458053
0.06700000 1367039.37938954 22310.08371573
0.06800000 1358123.62140009 18273.55418131
0.06900000 1349138.75623312 19832.34064516
0.07000000 1340085.32080793 17126.29120192
0.07100000 1330966.38383737 18686.76890432
0.07200000 1321784.59028806 17368.25033003
0.07300000 1312542.29065487 16026.14211981
0.07400000 1303242.60814035 16127.62803154
0.07500000 1293886.40517358 16225.33628140
0.07600000 1284474.74881356 19286.38925759
0.07700000 1275014.04090510 17901.19797367
0.07800000 1265503.83149505 20994.70954908
0.07900000 1255945.95638920 16578.48740193
0.08000000 1246345.14946050 24228.95084212
0.08100000 1236701.81344723 18253.71962291
0.08200000 1227018.38648995 18331.65555438
0.08300000 1217297.85388619 16871.74904669
0.08400000 1207542.31331682 20015.01478270
0.08500000 1197753.67882173 24721.63709144
0.08600000 1187934.63792798 17052.80252811
0.08700000 1178088.43935431 17105.84494268
0.08800000 1168214.96974552 21833.93880995
0.08900000 1158318.99057307 15637.30710722
0.09000000 1148401.20943368 17243.24496966
0.09100000 1138463.66952682 20424.03919086
0.09200000 1128509.11645697 18891.24349713
0.09300000 1118541.71963339 17348.58288676
0.09400000 1108559.02311212 23695.45023265
0.09500000 1098566.36996920 25310.97035377
0.09600000 1088565.43701235 22174.07899430
0.09700000 1078560.53997119 25367.74509273
0.09800000 1068550.78493824 28562.36382434
0.09900000 1058540.26417479 19053.72565110
0.10000000 1048528.36575666 17473.72603707
0.10100000 1038518.66467235 19067.20358015
0.10200000 1028513.69197696 19068.64474617
0.10300000 1018514.75835542 20655.48027110
0.10400000 1008525.21592288 20649.55476748
0.10500000 998547.11915773 19052.27992993
0.10600001 988578.09505254 19040.01500661
0.10700001 978626.13892735 22195.24187533
0.10800001 968688.96759928 20589.48497530
0.10900001 958770.86887950 20565.63610540
0.11000001 948872.22192464 20538.34021029
0.11100001 938995.40180539 22085.17289009
0.11200001 929142.07146860 22048.54239393
0.11300001 919313.77199479 20436.34611360
0.11400001 909512.98518855 20395.82965318
0.11500001 899741.72467372 26614.36146907
0.11600001 890000.47940827 20305.36189391
0.11700001 880292.50686123 20255.53153681
0.11800001 870616.44849240 18648.60520502
0.11900001 860975.86554530 18597.07957173
0.12000001 851371.50633196 15452.39356781
0.12100001 841808.35113621 18486.11226180
0.12200001 832284.31425618 16891.21095360
0.12300001 822802.26927757 15304.12292961
0.12400001 813361.83090919 16775.58855293
0.12500001 803965.90408230 16714.45193346
0.12600001 794617.22262521 18164.95056521
0.12700001 785315.01502434 21109.26859866
0.12800001 776060.67728487 21023.48473847
0.12900001 766857.13374311 19439.82925663
0.13000001 757704.71964461 16377.78828708
0.13100001 748603.27821360 22233.51841098
0.13200001 739556.49613726 23606.64446953
0.13300001 730564.28942503 16152.77720068
0.13400001 721627.18444713 14612.95117399
0.13500001 712747.62937223 14540.05232473
0.13600001 703925.57978736 15912.23848137
0.13700001 695163.12686948 15828.86514520
0.13800001 686458.38322555 21468.98694777
0.13900001 677817.02830105 15657.57409214
0.14000001 669235.64867842 16985.20156449
0.14100001 660718.77234095 15480.64156606
0.14200001 652264.44359444 18188.39486749
0.14300001 643876.05058749 16689.26801842
0.14400001 635549.17058436 17970.15364592
0.14500001 627291.58513438 16485.22363497
0.14600001 619099.27398095 27302.27927053
0.14700001 610976.01391820 14920.03496376
0.14800001 602918.51349522 21560.36705978
0.14900001 594930.45584672 18740.31024335
0.15000001 587011.40077248 18614.13239676
0.15100001 579162.40355577 13204.90342414
0.15200001 571384.64423722 18358.58948563
0.15300001 563677.60843906 23437.71606490
0.15400001 556039.88644838 14220.72076701
0.15500001 548475.70213818 16684.63164644
0.15600001 540981.99798407 16562.16464993
0.15700001 533563.61994254 15174.55006736
0.15800001 526214.83110147 17570.31403977
0.15900001 518941.57781366 16190.97799201
0.16000001 511739.30934060 16066.05637511
0.16100001 504612.94884606 19619.35237725
0.16200001 497560.21359860 21897.62603417
0.16300001 490580.90135272 14481.94889159
0.16400001 483676.39767812 11970.99140768
0.16500001 476845.80348665 20184.88381454
0.16600001 470090.52662575 12953.34507274
0.16700001 463408.33912945 12845.67976717
0.16800001 456800.98952308 17369.85844676
0.16900001 450270.26489533 20667.40613457
0.17000001 443812.06287767 14798.91393546
0.17100001 437429.48597544 14671.38565242
0.17200001 431120.87886394 14543.86353528
0.17300001 424887.38333995 17743.29796619
0.17400001 418728.48717652 14289.11029972
0.17500001 412643.04592989 11983.15461974
0.17600001 406630.56793881 11875.64629753
0.17700001 400695.09246894 13908.12731649
0.17800001 394831.33387099 14841.71054122
0.17900001 389040.75427762 14705.74120630
0.18000001 383325.02266149 15610.91228527
0.18100001 377682.66488841 11341.81096235
0.18200001 372110.85277126 14300.22074751
0.18300001 366612.39268396 14165.90352250
0.18400001 361185.80066978 10022.90644208
0.18500001 355831.73615646 11913.24708932
0.18600001 350549.06927758 16715.93315822
0.18700001 345336.63334639 12660.04157660
0.18800001 340193.63373579 12537.83696370
0.18900001 335124.38164485 11461.25439377
0.19000001 330120.78853435 13241.14545374
0.19100001 325189.41176784 10302.00105158
0.19200001 320325.06700677 10200.75224083
0.19300001 315531.33740000 11936.55105788
0.19400001 310803.36714200 13636.49837773
0.19500001 306144.11543437 9900.70116101
0.19600001 301550.12916139 11584.04875915
0.19700001 297024.69252620 10585.96054190
0.19800001 292563.56543807 8733.02284104
0.19900001 288168.04865407 13832.06698910
0.20000001 283835.95291005 11124.95070009
0.20100001 279569.70521932 11859.34745590
0.20200001 275365.46512682 8384.87880941
0.20300001 271224.85686271 8299.48101227
0.20400001 267146.71674750 9857.71431392
0.20500001 263129.33951705 11382.97576555
0.20600001 259172.91335511 8852.05127406
0.20700001 255277.26945808 9557.58142029
0.20800001 251440.83563502 7882.67056977
0.20900001 247665.76332894 8581.61910501
0.21000001 243946.26872889 10809.25967836
0.21100001 240285.86245426 8405.19986599
0.21200001 236681.56541190 8318.17400964
0.21300001 233133.71452506 9728.67036706
0.21400001 229641.92386931 7405.95239491
0.21500001 226206.11227711 10993.61757642
0.21600001 222823.15873956 7978.18357587
0.21700001 219494.47567324 8612.96363263
0.21800001 216218.80418379 8523.34566391
0.21900001 212994.59022055 8434.58617153
0.22000001 209821.44568839 6955.58125345
0.22100001 206700.60544257 7571.44353537
0.22200001 203629.64156193 10217.11774848
0.22300001 200607.40532689 7414.45005148
0.22400001 197633.38518311 8671.16518494
0.22500001 194709.62627189 9240.91929984
0.22600001 191831.35794685 7838.22965636
0.22700001 189000.57031578 7110.20179151
0.22800001 186214.99969216 7036.13409611
0.22900001 183474.42222577 7595.84143936
0.23000001 180778.86269874 10648.77941087
0.23100001 178128.44218533 6818.75708933
0.23200001 175519.14189395 6747.83372924
0.23300001 172953.65831312 9713.07791024
0.23400001 170428.50178374 6007.60497201
0.23500001 167944.97243622 7134.30276652
0.23600001 165501.89579740 6471.95194126
0.23700001 163098.70878263 5822.62417894
0.23800001 160734.34637656 8067.25722621
0.23900001 158408.51970084 7413.51907266
0.24000001 156119.86083755 6208.10655985
0.24100001 153869.49748560 6144.00932522
0.24200001 151655.49417152 6080.62732643
0.24300001 149476.69519476 6017.93203321
0.24400001 147332.92019756 5955.93358072
0.24500001 145223.50502108 6966.37186540
0.24600001 143148.04799014 6364.36251471
0.24700001 141106.93506193 6823.93170241
0.24800001 139097.69819500 5195.29927336
0.24900001 137119.51116512 6170.37829434
0.25000001 135174.29774494 5598.24380595
0.25100001 133259.01926437 7555.78674975
0.25200001 131376.11265650 5484.29608231
0.25300001 129520.95625542 5921.69840016
0.25400001 127696.50015348 5372.83049815
0.25500001 125898.54014462 5801.40500434
0.25600001 124130.59297639 4785.23458564
0.25700001 122389.09897860 4736.45835457
0.25800001 120674.56030175 5625.84826745
0.25900001 118987.78188362 5568.62845563
0.26000001 117325.75377331 5971.29452083
0.26100001 115689.21334534 5001.24492956
0.26200001 114078.54120323 9000.79732682
0.26300001 112491.21928550 6681.97874173
0.26400001 110928.76538659 4850.36049604
0.26500001 109389.90657377 4801.12322671
0.26600001 107873.52370335 5184.40179451
0.26700001 106380.28653360 4276.48772102
0.26800001 104909.57513995 5079.72186865
0.26900001 103459.70825163 5866.16573546
0.27000001 102031.83003405 6221.39113074
0.27100001 100624.61449564 4516.03291228
0.27200001 99238.40757143  5689.33817531
0.27300001 97872.52995188  5229.32952280
0.27400001 96524.62077802  6370.62527284
0.27500001 95198.38122471  3941.21316922
0.27600001 93889.11198723  3901.09278769
0.27700001 92600.21520276  4247.57207237
0.27800001 91328.37468298  4968.72045978
0.27900001 90074.93162959  6053.03569199
0.28000001 88838.69883452  5242.37186634
0.28100001 87620.02829262  5188.85832107
0.28200001 86418.88550476  6236.41916762
0.28300001 85234.13100064  3994.07156773
0.28400001 84065.02515663  3593.77999554
0.28500001 82912.61115144  3912.64630543
0.28600001 81775.68167961  5984.75354699
0.28700001 80655.20355303  4878.02694178
0.28800001 79548.01810469  4138.08809767
0.28900001 78457.92174323  3412.91975738
0.29000001 77381.52838039  3715.47426105
0.29100001 76320.24466143  4011.39224928
0.29200001 75272.75740984  3969.88541371
0.29300001 74239.79056208  4910.96237815
0.29400001 73219.91479681  4211.97579807
0.29500001 72214.73008639  4488.86783466
0.29600001 71221.80007881  3490.22447808
0.29700001 70242.58400078  4395.78111486
0.29800001 69276.62725376  3417.76256736
0.29900001 68323.87363468  3382.03190502
0.30000001 67382.59237130  3955.02144646
0.30100001 66455.14716909  3311.46014020
0.30200001 65538.79463837  5659.60287893
0.30300001 64635.75539231  4421.08587813
0.30400001 63744.11259497  3207.92261821
0.30500001 62865.05777840  3462.60754636
0.30600001 61996.28246114  3425.91473099
0.30700001 61140.14775317  3389.60995191
0.30800001 60295.19491761  3074.15065842
0.30900001 59461.94151482  3317.97649361
0.31000001 58639.86518781  3282.65980863
0.31100001 57828.21703478  3788.90495951
0.31200001 57028.66001349  3748.49400016
0.31300001 56238.97025392  3178.62674925
0.31400001 55461.56239486  3144.67073668
0.31500001 54693.35177913  3629.45099591
0.31600002 53937.22537092  2821.18670660
0.31700002 53190.80840060  3044.64201701
0.31800002 52454.53597834  2509.94966541
0.31900002 51729.35764399  3476.21299827
0.32000002 51014.81194897  2456.36331165
0.32100002 50309.76790869  2672.95809555
0.32200002 49615.95253276  4086.61812386
0.32300002 48930.84863040  2615.84329164
0.32400002 48256.86360825  2352.52221230
0.32500002 47592.18922847  2559.98397982
0.32600002 46937.87869236  2992.99397654
0.32700002 46293.47409469  2277.63903331
0.32800002 45659.87962089  2703.97819919
0.32900002 45034.05994911  2452.10468034
0.33000002 44419.21783567  2425.95569697
0.33100002 43813.03792787  2181.88939213
0.33200002 43218.22296851  2374.62537345
0.33300002 42632.03857597  2776.62480394
0.33400002 42056.04619148  2324.64806332
0.33500002 41489.20855527  2509.26745225
0.33600002 40931.42796971  2689.80891641
0.33700002 40383.23602260  2456.91619597
0.33800002 39845.29422057  3039.19996060
0.33900002 39315.81086630  2205.61709405
0.34000002 38795.87456588  2182.84998582
0.34100002 38285.48420228  2356.85451911
0.34200002 37784.84355194  2332.83635138
0.34300002 37292.69917713  2886.45505301
0.34400002 36810.53191486  2095.43962849
0.34500002 36337.30262814  2074.49670529
0.34600002 35873.79518804  2053.95424077
0.34700002 35418.09601702  2588.35457951
0.34800002 34972.54097781  2196.97512828
0.34900002 34535.53773269  2357.05056189
0.35000002 34107.95776125  2154.94087342
0.35100002 33689.93464307  3379.77440347
0.35200002 33279.37861565  2290.78613551
0.35300002 32879.00975414  2444.22570089
0.35400002 32486.73762258  2421.88640447
0.35500002 32103.87938151  1885.78196419
0.35600002 31729.50435338  1699.11503860
0.35700002 31363.75476303  2021.08045266
0.35800002 31007.00596213  2003.67282018
0.35900002 30659.52310786  2152.29862412
0.36000002 30320.33305895  1970.21533549
0.36100002 29989.18115616  2442.61892087
0.36200002 29667.96304580  1776.96273080
0.36300002 29354.04606915  2564.36958607
0.36400002 29049.03839822  2226.60889869
0.36500002 28751.76394882  1578.47191556
0.36600002 28463.69706027  1880.31191687
0.36700002 28183.40247653  1555.72389040
0.36800002 27912.24126719  1544.94262732
0.36900002 27648.81513984  2301.76396942
0.37000002 27393.04322884  1829.30751347
0.37100002 27145.47736378  2272.07656298
0.37200002 26906.51836203  1806.50372840
0.37300002 26675.19669199  2095.07004743
0.37400002 26451.67832492  1636.69767389
0.37500002 26236.13062381  1627.68962101
0.37600002 26028.60013744  1766.30088900
0.37700002 25828.45049807  1610.92053388
0.37800002 25635.80470375  1603.13512309
0.37900002 25451.76425360  1450.75063118
0.38000002 25274.23329206  1733.30700128
0.38100002 25103.53052076  1726.11884038
0.38200002 24941.41715275  2006.03827663
0.38300002 24785.75126398  2855.31868088
0.38400002 24637.60716454  1707.38625739
0.38500002 24495.97131371  1701.98016751
0.38600002 24362.25999981  1979.92096398
0.38700002 24234.70041831  2397.78137298
0.38800002 24113.74747230  1547.74095483
0.38900002 23999.76904489  1544.38521121
0.39000002 23892.90319989  2382.24202641
0.39100002 23791.72955529  1818.63989337
0.39200002 23697.77814855  1536.68249685
0.39300002 23609.43508532  1395.31767965
0.39400002 23528.59115148  1951.69672848
0.39500002 23452.49003405  1393.07797402
0.39600002 23382.85788038  2088.67387912
0.39700002 23318.54286285  1670.54048984
0.39800002 23261.29006995  2088.28241497
0.39900002 23208.50215376  2088.76529280
0.40000002 23162.00486598  1671.83359044
0.40100002 23120.43516254  1533.57853699
0.40200002 23084.74297889  1953.66189087
0.40300002 23054.12601404  1536.78811291
0.40400002 23028.60841880  1398.98802773
0.40500002 23007.86298067  1821.53259848
0.40600002 22992.88680861  1544.08738679
0.40700002 22982.18997977  1687.81211208
0.40800002 22975.82559033  1550.52366343
0.40900002 22973.92864287  1412.89667848
0.41000002 22977.31463199  1983.17211985
0.41100002 22984.50457712  1562.48669519
0.41200002 22995.16461009  2421.73587566
0.41300002 23011.33443441  1714.80472330
0.41400002 23030.55791703  1577.01752809
0.41500002 23053.55117101  2301.66665797
0.41600002 23079.49520413  1587.98474276
0.41700002 23110.36845640  2173.53025631
0.41800002 23145.26279000  1745.61580234
0.41900002 23181.43894065  1460.43072246
0.42000002 23221.57377752  1613.08669889
0.42100002 23265.69552633  1619.99045626
0.42200002 23312.04847530  2218.72431877
0.42300002 23361.10176325  1931.49598531
0.42400002 23412.77976166  1641.82125859
0.42500002 23467.69755530  1799.50313381
0.42600002 23523.78640853  2561.38760447
0.42700002 23583.31735472  1665.45395051
0.42800002 23644.39709202  1825.82042997
0.42900002 23708.56960747  2293.80421822
0.43000002 23774.61218592  1844.43450079
0.43100002 23840.79212662  1699.37174331
0.43200002 23910.14237911  2484.74211378
0.43300002 23980.41042953  2185.57471012
0.43400002 24052.61335725  2040.26302471
0.43500002 24125.68933841  1577.82015750
0.43600002 24200.75855089  1744.99577800
0.43700002 24276.19821504  2551.91407730
0.43800002 24352.38812084  1763.96531713
0.43900002 24430.37174754  1773.64507292
0.44000002 24508.42431334  2269.72528322
0.44100002 24587.53561371  1630.15368844
0.44200002 24667.06230780  1803.03900483
0.44300002 24747.16504144  1812.97739685
0.44400002 24827.42980327  2154.40032328
0.44500002 24907.49726920  1666.31164628
0.44600002 24987.49576531  2010.49400456
0.44700002 25068.71439101  2863.85006775
0.44800002 25148.45448767  2371.24788602
0.44900002 25228.98426515  2213.84347419
0.45000002 25309.31611310  1883.39284781
0.45100002 25388.35687871  1721.33067795
0.45200002 25467.43042344  1903.56317721
0.45300002 25545.43115217  2783.43031025
0.45400002 25623.03575599  2098.52672787
0.45500002 25700.22879777  2285.26445300
0.45600002 25776.00342204  1943.63963016
0.45700002 25851.17715152  2131.17114538
0.45800002 25924.99005403  3034.39060469
0.45900002 25997.46861456  2870.12067107
0.46000002 26069.38498151  1982.96786260
0.46100002 26139.09443776  1992.58326343
0.46200002 26208.09859285  2002.16778689
0.46300002 26275.65584484  2377.42145352
0.46400002 26341.04163177  1837.28774089
0.46500002 26405.95160497  2214.93132560
0.46600002 26468.13317809  2224.91138040
0.46700002 26528.47873353  2234.75915443
0.46800002 26588.06089364  2805.70525878
0.46900002 26644.74134233  2441.99065977
0.47000002 26699.85902894  2452.24866874
0.47100002 26753.11444634  2272.94471109
0.47200002 26804.45136561  2282.13109743
0.47300002 26853.56331859  1909.28844245
0.47400002 26899.96406313  2683.27154248
0.47500002 26944.52528720  2308.60703603
0.47600002 26987.53063504  2703.34107184
0.47700002 27027.20109414  2519.20553339
