# SAXS profile: number of points = 501, q_min = 0, q_max = 0.5, delta_q = 0.001
#    q    intensity    error
0.00000000 1700912.83420644 510.27385026
0.00100000 1700829.74486503 663.32361625
0.00200000 1700580.41812763 1377.47018230
0.00300000 1700165.08268387 1326.12881173
0.00400000 1699583.60177810 1529.62529972
0.00500000 1698836.49456921 2599.21993957
0.00600000 1697923.68197931 2139.38392639
0.00700000 1696845.70085408 2850.70089591
0.00800000 1695602.41412778 2975.78236243
0.00900000 1694194.99637634 3303.68038416
0.01000000 1692622.92578315 3072.11074295
0.01100000 1690887.39347250 4565.39616115
0.01200000 1688988.39117727 4281.58575936
0.01300000 1686927.05155939 4251.05635742
0.01400000 1684703.45767094 4548.69953736
0.01500000 1682318.96933846 5248.83541806
0.01600000 1679773.04519445 5568.44789375
0.01700000 1677067.95431699 5433.70041574
0.01800000 1674203.65597938 8111.51707822
0.01900000 1671180.78964431 5013.54259516
0.02000000 1668000.60130627 6830.46277133
0.02100000 1664665.16678004 6042.73482938
0.02200000 1661172.83052448 6304.15117825
0.02300000 1657527.02932389 7757.22685033
0.02400000 1653727.30801763 6821.62545662
0.02500000 1649776.27900213 7077.54056015
0.02600000 1645673.78106438 8664.47285360
0.02700000 1641421.97972865 8272.76715673
0.02800000 1637020.80727980 7121.04083824
0.02900000 1632473.00125629 8080.74172724
0.03000000 1627779.64592658 9839.92841192
0.03100000 1622941.13805680 10127.15316746
0.03200000 1617959.13246360 11212.45730440
0.03300000 1612837.42778229 9048.01838698
0.03400000 1607573.76912074 12659.64401595
0.03500000 1602171.93156205 11247.24747894
0.03600000 1596633.01833105 14178.10185800
0.03700000 1590958.84933666 9068.46586061
0.03800000 1585150.95058230 9273.13349006
0.03900000 1579211.35910963 11370.32231215
0.04000000 1573139.93831432 13544.73549654
0.04100000 1566941.05325148 10858.90200252
0.04200000 1560615.11437877 10065.96795473
0.04300000 1554163.33316197 15386.21771250
0.04400000 1547589.17435331 20892.45482406
0.04500000 1540893.96256050 14885.03636997
0.04600000 1534077.71809279 11896.77325685
0.04700000 1527144.84825525 16493.16512822
0.04800000 1520095.88631376 13407.24634110
0.04900000 1512934.40868666 11347.00859332
0.05000000 1505660.04508676 17277.44982191
0.05100000 1498277.69547415 14023.87988293
0.05200000 1490785.27037090 14222.09214211
0.05300000 1483189.36463222 15617.98473765
0.05400000 1475489.26385348 23128.29528947
0.05500000 1467688.19638137 12328.58142472
0.05600000 1459786.75543465 16225.53054381
0.05700000 1451790.79354009 20208.92878940
0.05800000 1443698.41159148 17887.42415483
0.05900000 1435512.77267754 15503.53866902
0.06000000 1427237.81863666 22200.68530608
0.06100000 1418874.57349182 17154.19439515
0.06200000 1410425.41424955 15994.22494522
0.06300000 1401893.38953673 14803.99488567
0.06400000 1393277.57804114 14942.90272332
0.06500000 1384583.98916676 17819.59677414
0.06600000 1375813.52709753 13826.92659427
0.06700000 1366968.22472970 15337.38419924
0.06800000 1358050.66317348 14055.82502179
0.06900000 1349063.80553086 16998.20474553
0.07000000 1340008.47438013 18552.41819657
0.07100000 1330887.55412443 17248.30350932
0.07200000 1321703.74023792 14472.65663360
0.07300000 1312459.62377711 17481.96300784
0.07400000 1303157.88262557 24922.89567320
0.07500000 1293799.75214152 14749.31786575
0.07600000 1284386.14449858 19285.05886374
0.07700000 1274923.45051220 20883.24709857
0.07800000 1265411.11138727 17994.14684778
0.07900000 1255851.28362606 16577.23772140
0.08000000 1246248.39500298 16656.11058057
0.08100000 1236603.12810244 21294.30686501
0.08200000 1226917.68889178 21385.17632089
0.08300000 1217195.06078087 18403.99018274
0.08400000 1207437.47714631 16934.31141185
0.08500000 1197646.79434406 26264.39543295
0.08600000 1187825.66370788 20151.46333095
0.08700000 1177977.43878977 17104.23321440
0.08800000 1168101.84186811 21831.82444982
0.08900000 1158203.77766527 15635.75173289
0.09000000 1148283.96723226 23511.11533353
0.09100000 1138344.33786810 17280.06786068
0.09200000 1128387.77223125 22037.41422714
0.09300000 1118418.31771442 20500.60872707
0.09400000 1108433.56973047 17374.69702209
0.09500000 1098438.90524115 20562.77727262
0.09600000 1088435.88633035 15836.74289056
0.09700000 1078428.87731971 17438.19576608
0.09800000 1068417.22870679 20625.79556996
0.09900000 1058404.59583104 19051.28362080
0.10000000 1048390.71389703 28589.61611246
0.10100000 1038378.91292021 20653.35754935
0.10200000 1028371.93877276 15888.34720137
0.10300000 1018371.02096324 22241.22414408
0.10400000 1008379.51515931 19058.37373311
0.10500000 998399.45014213 23811.82800622
0.10600001 988428.44602633 17450.70503571
0.10700001 978474.51848663 19021.54553449
0.10800001 968535.47267955 19002.66686827
0.10900001 958615.48680132 22144.01878733
0.11000001 948714.79757328 18955.32254773
0.11100001 938836.12282073 18926.93712702
0.11200001 928980.91380618 20470.09539939
0.11300001 919150.76599388 18860.97460618
0.11400001 909348.06968824 18823.50592884
0.11500001 899575.02097803 31305.21220413
0.11600001 889831.96725516 18739.86211288
0.11700001 880122.05437583 20251.60942494
0.11800001 870444.31566382 23306.14764958
0.11900001 860802.06853023 20142.76935236
0.12000001 851195.92182624 23173.81006332
0.12100001 841631.08105243 15401.84950881
0.12200001 832105.22013290 18422.81044166
0.12300001 822621.59255948 19890.99104524
0.12400001 813179.48919160 19821.25098297
0.12500001 803781.99099231 18229.77641470
0.12600001 794431.69947935 19674.10196472
0.12700001 785127.97959150 15074.45791856
0.12800001 775872.14642129 18015.75208897
0.12900001 766667.04810048 14950.00814258
0.13000001 757513.13519949 16373.64718911
0.13100001 748410.20557112 17782.22732258
0.13200001 739362.07405180 22125.41110900
0.13300001 730368.35598937 16148.44511221
0.13400001 721429.96974876 14608.95757616
0.13500001 712549.07267300 14536.00176788
0.13600001 703725.84085799 15907.72338266
0.13700001 694962.05127772 20140.00119570
0.13800001 686256.16911437 15739.28598084
0.13900001 677613.53042865 18498.85025307
0.14000001 669031.10695481 18395.01115324
0.14100001 660513.11155700 14068.92993970
0.14200001 652057.69632204 16783.96589495
0.14300001 643668.13850165 19464.52542638
0.14400001 635340.32165110 15200.51791251
0.14500001 627081.68724014 13733.08959838
0.14600001 618888.54070885 13646.49296639
0.14700001 610764.34463683 14914.86599966
0.14800001 602706.09386750 17511.62638350
0.14900001 594717.24947956 14719.25261909
0.15000001 586797.36735797 18607.34539687
0.15100001 578947.55295969 15840.00579639
0.15200001 571169.20765618 14419.16732768
0.15300001 563461.49664317 18222.34566133
0.15400001 555823.16452359 16799.75594052
0.15500001 548258.52910672 15395.10022386
0.15600001 540764.24611998 17828.99803601
0.15700001 533345.48669478 13904.31749437
0.15800001 525996.17399511 17563.01307865
0.15900001 518722.49037939 16184.14246374
0.16000001 511519.89826283 17294.48857661
0.16100001 504393.28398201 14708.10885520
0.16200001 497340.16363178 19455.94811971
0.16300001 490360.79461346 14475.45134034
0.16400001 483456.27852483 15555.20649589
0.16500001 476625.54025342 14241.57181514
0.16600001 469870.04695298 12947.26975507
0.16700001 463187.96829134 12839.57108725
0.16800001 456580.70684555 19676.34649056
0.16900001 450049.97658779 14919.15742834
0.17000001 443592.05214714 17067.20501227
0.17100001 437209.68484958 13536.01248213
0.17200001 430901.35509007 11181.89069263
0.17300001 424668.04026246 12192.22001171
0.17400001 418509.59773677 14281.64069723
0.17500001 412424.48238678 10888.00684923
0.17600001 406412.55784475 15106.35548855
0.17700001 400477.54969059 12831.30129812
0.17800001 394614.28556154 15893.09110166
0.17900001 388824.31873068 11548.08281176
0.18000001 383109.30306606 15602.12710433
0.18100001 377467.58110865 16487.78472165
0.18200001 371896.65342954 16333.70179020
0.18300001 366398.90799617 16180.17654145
0.18400001 360973.17108657 14023.80835921
0.18500001 355620.01633807 9921.79892456
0.18600001 350338.37971685 10809.69121685
0.18700001 345126.85964947 13625.60906270
0.18800001 339985.00279561 16385.57798389
0.18900001 334916.94489977 12408.67339481
0.19000001 329914.53362828 15123.28293608
0.19100001 324984.30702514 11231.45818148
0.19200001 320121.14473215 10194.25833569
0.19300001 315328.76954872 11011.28115295
0.19400001 310602.31529981 9993.62996701
0.19500001 305944.32964100 9894.24008814
0.19600001 301351.92532048 10685.93977684
0.19700001 296827.89060860 8815.78876769
0.19800001 292368.45187942 8727.19870104
0.19900001 287974.64757809 13822.78373701
0.20000001 283644.23960465 14538.18618803
0.20100001 279379.62430854 11851.28422329
0.20200001 275177.20687359 9217.06097986
0.20300001 271038.40532582 9952.53071397
0.20400001 266962.15550953 10671.81267090
0.20500001 262946.76489035 8937.56096107
0.20600001 258992.31955804 12866.73904383
0.20700001 255098.65712862 11938.61771795
0.20800001 251264.26739762 8664.84867080
0.20900001 247491.40640457 7795.97967027
0.21000001 243774.00754711 7715.44770359
0.21100001 240115.89678862 8399.25446673
0.21200001 236513.93391316 10579.26876406
0.21300001 232968.25639154 9721.76579882
0.21400001 229478.96284643 9620.90597218
0.21500001 226045.45491568 9521.03501118
0.21600001 222664.92275236 7247.74357825
0.21700001 219338.75538335 10041.32869620
0.21800001 216065.70683042 8517.31056596
0.21900001 212843.98072950 9131.00720502
0.22000001 209673.48311814 7645.74392341
0.22100001 206555.33389734 7566.12223841
0.22200001 203487.07167248 8848.63573008
0.22300001 200467.54163371 8082.85166087
0.22400001 197496.35249901 9998.25331804
0.22500001 194575.46666815 7915.33035835
0.22600001 191699.92846471 7180.12116018
0.22700001 188872.06905237 8397.25258717
0.22800001 186089.45323807 10227.47683362
0.22900001 183351.88983169 7590.76859801
0.23000001 180659.39862661 8137.80299599
0.23100001 178011.94857237 7433.77932395
0.23200001 175405.71926198 7969.55923158
0.23300001 172843.40651660 7886.84501236
0.23400001 170321.42555739 7804.97969531
0.23500001 167840.99258289 6535.72856029
0.23600001 165401.20005402 6468.01423403
0.23700001 163001.16327810 9892.54106724
0.23800001 160640.12479856 7486.63337034
0.23900001 158317.54921761 7409.26165384
0.24000001 156032.27753575 7332.73722963
0.24100001 153785.18166697 7257.12306613
0.24200001 151574.58572764 8287.34086667
0.24300001 149399.21968038 6014.81286885
0.24400001 147258.86943311 5952.94007843
0.24500001 145152.91312328 6962.98557190
0.24600001 143080.90455098 6361.37731726
0.24700001 141043.23623849 5771.48949990
0.24800001 139037.53859121 5712.35754325
0.24900001 137063.01353084 7195.80855078
0.25000001 135121.24233834 6104.77801765
0.25100001 133209.57372264 6042.38654992
0.25200001 131330.24102686 4983.98288276
0.25300001 129478.67241480 8386.33400907
0.25400001 127657.72830605 7324.36250808
0.25500001 125863.54924646 4833.16051973
0.25600001 124099.20618146 5262.42708710
0.25700001 122361.33962421 5208.92247425
0.25800001 120650.48948112 5624.72608574
0.25900001 118967.41826588 7423.56725104
0.26000001 117309.06647996 5051.91518699
0.26100001 115676.09828049 5455.28505303
0.26200001 114069.19487042 5400.03594068
0.26300001 112485.54984320 4454.42798456
0.26400001 110926.84833159 4409.34242982
0.26500001 109391.55968279 4801.19578166
0.26600001 107879.06628599 6048.77953288
0.26700001 106389.39810539 5132.22480746
0.26800001 104922.38052796 4656.98008011
0.26900001 103476.25121375 4609.86720972
0.27000001 102052.01887445 5392.93919263
0.27100001 100648.54818743 5749.04534453
0.27200001 99266.12877030  6097.42224827
0.27300001 97903.82530333  5231.00163351
0.27400001 96559.68316876  4779.70454305
0.27500001 95237.13612823  4731.38114676
0.27600001 93931.43501604  5463.99183347
0.27700001 92646.21122564  5408.68606733
0.27800001 91377.98339708  4589.00254339
0.27900001 90128.19571933  3785.38439937
0.28000001 88895.58680468  5245.72882562
0.28100001 87680.43664790  5192.43570404
0.28200001 86482.94747271  5873.92207036
0.28300001 85301.68024258  5814.16280052
0.28400001 84136.14644504  4316.18451692
0.28500001 82987.27409008  4272.18507237
0.28600001 81853.88416014  4228.57185586
0.28700001 80736.80426411  4534.17914209
0.28800001 79633.12561843  5523.35385433
0.28900001 78546.49847332  5125.15926798
0.29000001 77473.51305253  3719.89090530
0.29100001 76415.58480944  4351.10360501
0.29200001 75371.50965094  4637.60920835
0.29300001 74341.83707452  4262.01772123
0.29400001 73325.21030994  5191.42513569
0.29500001 72323.40237883  3532.27513939
0.29600001 71333.67494046  3813.49844284
0.29700001 70357.75264154  3773.99003035
0.29800001 69394.93684748  4357.30829092
0.29900001 68445.30305691  4312.05429671
0.30000001 67507.12662480  3962.33098482
0.30100001 66582.81483020  3619.44198551
0.30200001 65669.47285202  3581.61321891
0.30300001 64769.34095875  3248.83029629
0.30400001 63880.77799335  4383.81859733
0.30500001 63004.61180027  4337.86772781
0.30600001 62138.72344798  3147.63718528
0.30700001 61285.39887730  3114.52411840
0.30800001 60443.36263786  3361.85998908
0.30900001 59612.77203376  3049.19343389
0.31000001 58793.40484705  3565.52620576
0.31100001 57984.49295097  4070.51159788
0.31200001 57187.49655840  2684.95309054
0.31300001 56400.47540566  3719.04752433
0.31400001 55625.55300222  2891.13825418
0.31500001 54859.77744167  2600.35357385
0.31600002 54106.12261577  3601.84475307
0.31700002 53362.09530574  2799.90927326
0.31800002 52628.16834107  2770.08377179
0.31900002 51905.33110277  3238.89281417
0.32000002 51193.05055542  3943.91280153
0.32100002 50490.14844673  3170.27657108
0.32200002 49798.47597395  2654.00990270
0.32300002 49115.42475130  2864.41170713
0.32400002 48443.51367216  4014.75638568
0.32500002 47780.83412100  3037.42776890
0.32600002 47128.36866394  2542.81125167
0.32700002 46485.85655566  2515.81467592
0.32800002 45854.01165121  3846.92248964
0.32900002 45229.95331498  3358.32419267
0.33000002 44616.89020734  3322.84305554
0.33100002 44012.35835317  2630.17865974
0.33200002 43419.12138727  3036.29930239
0.33300002 42834.44084031  2575.20670527
0.33400002 42259.84729988  2335.91317012
0.33500002 41694.48267550  2311.54222900
0.33600002 41138.09484288  2703.39003062
0.33700002 40591.13456544  2263.76768192
0.33800002 40054.44151038  2444.12213671
0.33900002 39526.18706502  2015.83563578
0.34000002 39007.24422313  2394.26476380
0.34100002 38497.95251077  2369.93406880
0.34200002 37998.36338257  2932.52383293
0.34300002 37507.15308330  3290.12762429
0.34400002 37025.84508216  2490.91384587
0.34500002 36553.38158423  2655.96883170
0.34600002 36090.69865858  2066.37304956
0.34700002 35635.67828909  3162.31024114
0.34800002 35190.77967105  1842.23740303
0.34900002 34754.23442562  2007.05713314
0.35000002 34327.19288080  2349.52482800
0.35100002 33909.62299443  2685.64226836
0.35200002 33499.43680095  1951.17478888
0.35300002 33099.40360252  2460.60978035
0.35400002 32707.38259415  2438.33548788
0.35500002 32324.70097377  2071.36693651
0.35600002 31950.48529034  1882.04342517
0.35700002 31584.79419484  2713.76564576
0.35800002 31228.11840672  2186.12453261
0.35900002 30880.51278833  2001.05732347
0.36000002 30541.22831670  2315.33062836
0.36100002 30209.90854182  1968.47773382
0.36200002 29888.52396247  1952.91624821
0.36300002 29574.29481674  2260.65920287
0.36400002 29268.89987175  1762.71957827
0.36500002 28971.28785671  2703.89042374
0.36600002 28682.69844813  2052.67741167
0.36700002 28401.93251925  2665.23747385
0.36800002 28130.11352580  1868.40222889
0.36900002 27866.16474534  2319.85832494
0.37000002 27609.66125191  1690.12549360
0.37100002 27361.33827282  2137.46784712
0.37200002 27121.51283109  1517.44871478
0.37300002 26889.32912702  1961.03886613
0.37400002 26664.91749765  1649.89184832
0.37500002 26448.37007528  1491.68814291
0.37600002 26239.81885645  1632.24800929
0.37700002 26038.63434335  1624.02970093
0.37800002 25844.88446565  2350.85080236
0.37900002 25659.58287496  1755.11555179
0.38000002 25480.84184406  1747.47621645
0.38100002 25308.88745120  1740.23918358
0.38200002 25145.37746560  1589.06220422
0.38300002 24988.40893738  1727.19890758
0.38400002 24838.75049590  1577.88170000
0.38500002 24695.67880472  2001.83181875
0.38600002 24560.41725628  1853.45197605
0.38700002 24431.26203096  1564.08946932
0.38800002 24308.68788057  1985.77680704
0.38900002 24192.99874214  2122.93574020
0.39000002 24084.45211463  1553.80850179
0.39100002 23981.52440220  1551.12507182
0.39200002 23885.75428244  2252.90445066
0.39300002 23795.53678323  1546.94791957
0.39400002 23712.82688508  2247.97609521
0.39500002 23634.81901989  1965.47164281
0.39600002 23563.22188454  1543.50892267
0.39700002 23496.88214684  1402.76393063
0.39800002 23437.56923669  1823.56016086
0.39900002 23382.69294348  1543.25780739
0.40000002 23334.04904700  1824.60605168
0.40100002 23290.32354098  2387.49117930
0.40200002 23252.47570426  1967.85711209
0.40300002 23219.61691323  1969.95239225
0.40400002 23191.95053159  2113.36659232
0.40500002 23168.81056196  1410.98063008
0.40600002 23151.48129016  1554.73779971
0.40700002 23138.49510557  2407.32914485
0.40800002 23129.76607160  1560.91233730
0.40900002 23125.50145659  1706.66208836
0.41000002 23126.42703501  1710.89315312
0.41100002 23131.18632305  2001.31033550
0.41200002 23139.30216400  1576.82782068
0.41300002 23152.98655325  1869.14069301
0.41400002 23169.67811654  1875.00629042
0.41500002 23190.20195066  1736.48240435
0.41600002 23213.52188222  1742.40703504
0.41700002 23241.81776670  1748.71445163
0.41800002 23274.07248935  1755.33063032
0.41900002 23307.67311148  1908.89851828
0.42000002 23345.18695278  1769.09835111
0.42100002 23386.64800855  2220.56233363
0.42200002 23430.34748495  1635.32118020
0.42300002 23476.67643464  2687.61004559
0.42400002 23525.69809784  1649.73965728
0.42500002 23577.92229509  1807.95516726
0.42600002 23631.28078024  1816.30032684
0.42700002 23688.15140365  2281.16908827
0.42800002 23746.49389669  1833.70434560
0.42900002 23807.93741494  1535.61203603
0.43000002 23871.17881959  2160.58049735
0.43100002 23934.69521037  2636.64614932
0.43200002 24001.30320084  2182.43860347
0.43300002 24068.81805290  1880.25615539
0.43400002 24138.29799691  1732.52642083
0.43500002 24208.63991187  2533.19220042
0.43600002 24280.90812281  1750.77496316
0.43700002 24353.66326261  1600.03575218
0.43800002 24427.08028103  2573.63730037
0.43900002 24502.30376506  1617.15212513
0.44000002 24577.66825142  1788.39411507
0.44100002 24654.05276124  2451.84566330
0.44200002 24730.85788971  2300.71181851
0.44300002 24808.21989801  2313.11853291
0.44400002 24885.80604957  1827.24039578
0.44500002 24963.18440674  1837.04082755
0.44600002 25040.54589386  2182.65928628
0.44700002 25119.07016102  2532.00239223
0.44800002 25196.17359810  2375.74732116
0.44900002 25274.05756270  2217.79865623
0.45000002 25351.78642897  1886.55327652
0.45100002 25428.23136023  1896.43758472
0.45200002 25504.70032130  2946.17559724
0.45300002 25580.11176958  2090.40683288
0.45400002 25655.14292867  1750.96358787
0.45500002 25729.83773134  2287.89727950
0.45600002 25803.08294756  2476.32198784
0.45700002 25875.81634507  2310.96926730
0.45800002 25947.14866249  2858.33803213
0.45900002 26017.17541412  2513.25926412
0.46000002 26086.60450022  1803.88878668
0.46100002 26153.95948118  2174.96337354
0.46200002 26220.56598140  1821.01839372
0.46300002 26285.83118600  2195.39272471
0.46400002 26348.86954874  2756.75060719
0.46500002 26411.45347544  2584.62495961
0.46600002 26471.39834777  2410.61800479
0.46700002 26529.52138714  2048.60973861
0.46800002 26586.85465941  2057.42384533
0.46900002 26641.34453769  1878.21487893
0.47000002 26694.34849194  2074.55139138
0.47100002 26745.52308681  2461.65806158
0.47200002 26794.73162907  2281.30355903
0.47300002 26841.83255043  2290.14526175
0.47400002 26886.15361588  2107.20238952
0.47500002 26928.79875688  2884.07448356
0.47600002 26969.83387308  2315.63004610
0.47700002 27007.55219969  2517.37405985
