# SAXS profile: number of points = 501, q_min = 0, q_max = 0.5, delta_q = 0.001
#    q    intensity    error
0.00000000 1719190.39626458 361.02998322
0.00100000 1719106.84951280 618.87848052
0.00200000 1718856.15108053 1082.87940947
0.00300000 1718438.53579650 1237.27578985
0.00400000 1717853.84431917 1546.06851863
0.00500000 1717102.63556944 2627.16713641
0.00600000 1716184.79200971 1801.99410497
0.00700000 1715100.88468501 2263.93326187
0.00800000 1713850.73015003 2776.43830006
0.00900000 1712435.56601832 3339.24949648
0.01000000 1710854.81236821 3669.78373099
0.01100000 1709109.72720877 3691.67717150
0.01200000 1707200.23438727 4660.65684422
0.01300000 1705127.50509503 3938.84471049
0.01400000 1702891.61075751 4980.95818228
0.01500000 1700493.93173343 4081.18561789
0.01600000 1697933.89413313 4329.73162359
0.01700000 1695213.82946189 7323.32407179
0.01800000 1692333.63376264 6270.09639523
0.01900000 1689294.00229304 6081.45868267
0.02000000 1686096.14679067 5842.32341291
0.02100000 1682742.14125432 5553.04931791
0.02200000 1679230.36525428 8690.01753500
0.02300000 1675564.19403133 7238.43764770
0.02400000 1671743.25914596 8149.74875995
0.02500000 1667770.18810447 11057.31685213
0.02600000 1663644.71453867 9432.86596288
0.02700000 1659369.03283992 7666.28528284
0.02800000 1654943.15426769 10078.60427169
0.02900000 1650369.84502015 9654.66403665
0.03000000 1645650.02865358 9182.72758197
0.03100000 1640784.17909426 10238.49374865
0.03200000 1635774.11716445 8097.08225290
0.03300000 1630623.38105769 9147.79758945
0.03400000 1625329.83265726 11092.87661972
0.03500000 1619897.28968518 9622.19034506
0.03600000 1614326.87660249 9855.46603712
0.03700000 1608620.35694482 10086.05010450
0.03800000 1602779.26178434 9376.25911537
0.03900000 1596805.67523557 10538.91794461
0.04000000 1590699.35953848 11739.36181738
0.04100000 1584464.86988412 12976.76788604
0.04200000 1578102.46361495 14250.26590755
0.04300000 1571613.46777477 14521.70911631
0.04400000 1565001.21999435 13732.88634323
0.04500000 1558267.11420660 15052.86102267
0.04600000 1551411.17514147 13124.93915183
0.04700000 1544437.95116084 14455.93989518
0.04800000 1537347.69354852 11299.50607333
0.04900000 1530144.27893785 13771.29915146
0.05000000 1522827.12404139 13979.55364967
0.05100000 1515401.31921172 11820.13084048
0.05200000 1507864.59243789 14385.02888222
0.05300000 1500223.66832562 20658.08087588
0.05400000 1492477.79758630 13544.23664472
0.05500000 1484630.14231763 19953.43004356
0.05600000 1476681.59734821 16413.31672044
0.05700000 1468637.64493805 12777.14810738
0.05800000 1460496.45421973 14217.93364570
0.05900000 1452261.46459160 15684.42455014
0.06000000 1443936.44830382 13212.01911923
0.06100000 1435522.47895948 17355.46758166
0.06200000 1427021.71505782 20228.03375647
0.06300000 1418437.46246968 20425.50041456
0.06400000 1409768.92302128 15119.77240651
0.06500000 1401021.81311554 18031.15157825
0.06600000 1392197.01863759 18189.05489954
0.06700000 1383296.99780092 23986.37106441
0.06800000 1374323.86028779 22758.80419168
0.06900000 1365280.83413648 20069.62920144
0.07000000 1356168.65568966 14443.19685945
0.07100000 1346990.39310984 17456.99631235
0.07200000 1337748.52655228 17578.01646237
0.07300000 1328445.73082964 16220.32313344
0.07400000 1319084.79927272 17807.64562472
0.07500000 1309666.81757927 20902.28338831
0.07600000 1300192.70168887 18020.67169023
0.07700000 1290669.12200520 22651.24415327
0.07800000 1281095.03899567 19735.27000124
0.07900000 1271473.02662776 18309.21244221
0.08000000 1261807.40613538 18397.15284448
0.08100000 1252098.97563136 24641.30899655
0.08200000 1242349.79601722 18560.70682346
0.08300000 1232562.65668236 27954.52236552
0.08400000 1222740.40164753 21825.91719389
0.08500000 1212884.16121975 17210.82705567
0.08600000 1202997.09438680 28258.40307392
0.08700000 1193082.71363083 17323.56181539
0.08800000 1183140.17564671 17374.41429534
0.08900000 1173174.64672854 17421.64432221
0.09000000 1163186.95331937 19053.00319040
0.09100000 1153179.05687107 27053.58194520
0.09200000 1143153.75444270 15946.99562377
0.09300000 1133114.97006746 22367.69056024
0.09400000 1123060.58156558 20804.69825127
0.09500000 1112995.86360066 22437.99766484
0.09600000 1102922.33973519 17652.27287726
0.09700000 1092844.55783306 17671.29733094
0.09800000 1082761.56232400 19294.81194781
0.09900000 1072677.08770096 24135.23560817
0.10000000 1062591.30029828 17708.08485223
0.10100000 1052506.91917484 20934.36360697
0.10200000 1042426.95727475 19326.59669693
0.10300000 1032352.71975636 17715.17350435
0.10400000 1022287.79502835 17711.13688209
0.10500000 1012233.80432245 17703.97007056
0.10600001 1002188.45954616 20910.66319235
0.10700001 992160.07356244 20894.89213249
0.10800001 982146.03177434 27298.75023789
0.10900001 972150.78448640 17644.53756888
0.11000001 962174.64205959 22428.29196210
0.11100001 952220.30776166 19196.76230813
0.11200001 942288.89741842 19166.15707578
0.11300001 932382.60646914 22321.24064977
0.11400001 922503.29292123 19095.81906259
0.11500001 912653.40261033 17468.18694850
0.11600001 902833.13834778 15844.72232416
0.11700001 893046.04878961 26871.75687360
0.11800001 883290.68062001 17343.41333082
0.11900001 873570.60169105 17296.69872819
0.12000001 863886.48409580 21951.35659489
0.12100001 854243.59316006 17195.92434038
0.12200001 844639.10036752 17141.95134954
0.12300001 835077.34251930 18638.92716319
0.12400001 825556.37498279 18575.01931232
0.12500001 816079.99844805 18508.69523694
0.12600001 806650.73844315 19976.70647892
0.12700001 797267.82599981 16838.29727864
0.12800001 787932.61095670 22869.74511085
0.12900001 778648.12971858 24293.82279224
0.13000001 769414.61819107 22678.49694013
0.13100001 760231.94248956 15052.59317084
0.13200001 751104.24700976 16482.98347764
0.13300001 742030.64612410 16406.29835925
0.13400001 733012.25087369 19296.54841400
0.13500001 724051.40501830 19201.84416642
0.13600001 715148.06263035 20574.81073199
0.13700001 706304.11156658 20468.69411837
0.13800001 697517.90501098 15997.57390580
0.13900001 688795.21747928 24589.99042363
0.14000001 680132.56860131 21577.20675647
0.14100001 671534.26005646 18594.78453795
0.14200001 662998.55219471 17065.58353840
0.14300001 654528.77595622 18379.16889575
0.14400001 646120.56005942 14053.12284418
0.14500001 637781.81474043 16760.90688203
0.14600001 629508.36822866 18044.85822653
0.14700001 621303.99678065 17930.83419300
0.14800001 613165.68564094 15074.67909269
0.14900001 605096.58043468 19060.54318298
0.15000001 597096.45267424 14876.65882030
0.15100001 589166.91215926 14776.30685417
0.15200001 581308.57536070 16009.23892086
0.15300001 573521.08058561 22522.17389740
0.15400001 565802.69894534 15785.89604553
0.15500001 558158.38243671 14366.99744194
0.15600001 550584.49957396 12966.26557691
0.15700001 543086.40817980 15445.37817761
0.15800001 535657.65889214 14052.97934432
0.15900001 528304.68681674 16483.10700669
0.16000001 521023.02188976 17615.78920160
0.16100001 513817.35754625 16231.49109108
0.16200001 506685.33917294 13627.30284035
0.16300001 499627.26523544 15978.08069652
0.16400001 492644.17211465 14631.53260255
0.16500001 485735.05736463 15723.24454921
0.16600001 478901.68565200 14395.78535037
0.16700001 472141.31662469 16657.14643698
0.16800001 465456.24496757 14159.17964046
0.16900001 458848.05797523 15210.81384010
0.17000001 452312.88259407 12762.00858501
0.17100001 445853.30929332 11503.01592295
0.17200001 439467.77499070 11404.18929955
0.17300001 433157.88451669 12435.96345176
0.17400001 426922.86738084 14568.74353740
0.17500001 420761.34519486 13329.72004530
0.17600001 414673.40133521 15413.41105559
0.17700001 408662.57343165 12002.42034857
0.17800001 402723.80952947 16219.70219489
0.17900001 396858.43435373 12858.21388040
0.18000001 391068.63468472 14864.51950649
0.18100001 385352.19608674 13676.15008513
0.18200001 379706.54468284 11465.23965829
0.18300001 374134.83036616 10326.12180590
0.18400001 368635.02779502 13298.50925594
0.18500001 363208.34518291 15200.26996400
0.18600001 357853.43709459 11041.56832320
0.18700001 352568.79876016 10936.68465424
0.18800001 347354.13839922 11816.98834665
0.18900001 342213.76722826 9753.09282681
0.19000001 337139.34508162 17386.27684734
0.19100001 332137.40996358 13391.78100249
0.19200001 327202.86236306 10419.77564430
0.19300001 322339.41409475 14070.11609009
0.19400001 317542.25501141 13003.35595718
0.19500001 312813.99878858 11036.07839877
0.19600001 308151.46785249 10016.46393589
0.19700001 303557.91084552 9917.23741599
0.19800001 299029.08989617 14281.63000837
0.19900001 294566.38494627 10604.39035923
0.20000001 290167.43113273 12247.96784697
0.20100001 285834.72597270 11259.03038819
0.20200001 281564.32137005 12003.08758731
0.20300001 277358.19818755 11033.30964539
0.20400001 273214.79321135 10921.76187485
0.20500001 269132.72650395 9979.44197046
0.20600001 265112.16161765 8231.73300733
0.20700001 261152.54895029 8962.75590364
0.20800001 257252.68255039 12903.79516669
0.20900001 253414.75181642 10377.33457743
0.21000001 249632.70503957 10271.13813439
0.21100001 245910.37377625 11729.92538364
0.21200001 242244.49484645 13157.51035960
0.21300001 238635.50034212 10724.27989237
0.21400001 235083.24767901 11372.15264411
0.21500001 231587.03774939 9004.10445339
0.21600001 228144.48541935 7426.10335150
0.21700001 224756.62457191 8084.49616808
0.21800001 221422.23399184 9455.83694970
0.21900001 218139.45295028 9358.18297404
0.22000001 214908.66849250 9261.48950659
0.22100001 211730.40678605 7755.68516729
0.22200001 208602.76594891 11862.19684658
0.22300001 205524.16344317 10358.41832734
0.22400001 202494.12154093 8201.01231020
0.22500001 199515.08058323 8116.27386192
0.22600001 196581.71163027 6693.60759754
0.22700001 193696.58905298 6624.42365888
0.22800001 190857.01102708 7211.53250269
0.22900001 188063.13904920 7785.81432484
0.23000001 185314.58713069 8989.61104685
0.23100001 182611.70659969 7625.86522825
0.23200001 179950.41690190 7547.12084180
0.23300001 177333.57893352 10581.49515541
0.23400001 174757.28697086 7392.23358849
0.23500001 172223.28333597 7925.71587398
0.23600001 169730.34132461 7240.69670337
0.23700001 167277.29931535 7166.15984161
0.23800001 164864.06598399 8274.52786311
0.23900001 162489.66436526 6434.59101322
0.24000001 160153.00084636 6368.48437989
0.24100001 157855.04514052 6876.16609157
0.24200001 155593.88924641 7372.81679069
0.24300001 153368.69981253 7297.28308226
0.24400001 151178.73766075 10000.47396932
0.24500001 149023.68058083 6598.76888827
0.24600001 146903.05498067 7075.58597786
0.24700001 144817.40159189 7003.36987228
0.24800001 142764.05528584 7465.13280405
0.24900001 140742.11548113 6861.17845429
0.25000001 138753.66526839 6268.89089340
0.25100001 136795.70410038 5687.96564559
0.25200001 134870.68199117 5630.17688608
0.25300001 132973.63639732 6079.55494371
0.25400001 131107.90862635 5014.87774222
0.25500001 129269.17994360 6453.11776809
0.25600001 127460.87701332 5404.97874547
0.25700001 125679.64728829 5350.18283820
0.25800001 123925.62351985 8666.11926277
0.25900001 122199.97762706 5242.37928824
0.26000001 120499.39744532 6132.81712316
0.26100001 118824.98911876 5136.80452266
0.26200001 117176.67969128 6471.66832557
0.26300001 115552.31769730 6863.80799600
0.26400001 113953.25649949 5435.57059223
0.26500001 112378.11544752 5380.66442223
0.26600001 110826.18650879 6214.02457159
0.26700001 109297.55698766 5272.51439858
0.26800001 107791.95201883 4784.34601676
0.26900001 106307.73935471 6888.74183617
0.27000001 104845.86377761 5540.57993352
0.27100001 103405.21351913 4218.93291123
0.27200001 101985.98089686 5429.22394997
0.27300001 100587.42547276 5787.80073561
0.27400001 99207.28866163  6547.68136153
0.27500001 97849.29627952  4456.05716345
0.27600001 96508.66366449  4410.92868154
0.27700001 95188.88179480  5160.18952631
0.27800001 93886.45396154  4714.97794110
0.27900001 92602.82504967  5056.11448701
0.28000001 91336.81690628  4619.81641777
0.28100001 90088.74762665  4572.90504596
0.28200001 88858.78942754  4149.26136870
0.28300001 87645.47409299  3733.69737308
0.28400001 86448.20142596  4434.79294305
0.28500001 85268.10427956  4389.60221608
0.28600001 84103.88791670  5068.94156466
0.28700001 82956.37198273  4658.83007106
0.28800001 81822.51881065  4611.10826583
0.28900001 80706.36812966  4915.01805174
0.29000001 79604.11234901  5559.55146961
0.29100001 78517.23116475  3782.96037658
0.29200001 77444.68919072  3403.69425105
0.29300001 76386.97611348  4042.39896728
0.29400001 75342.63339992  3667.30285434
0.29500001 74313.36457046  3959.41625174
0.29600001 73296.80420483  4244.98461647
0.29700001 72294.19425997  6139.94620915
0.29800001 71305.24567836  3837.64850408
0.29900001 70329.73353621  3164.83815895
0.30000001 69366.07538657  4071.44198756
0.30100001 68416.67494080  4648.91328231
0.30200001 67478.52028100  3373.58878116
0.30300001 66554.02678627  3034.86376513
0.30400001 65641.38039529  3603.71195431
0.30500001 64741.52651189  3565.96344910
0.30600001 63852.23753351  5292.71221972
0.30700001 62975.85938141  3782.33029352
0.30800001 62111.15596343  5181.93398736
0.30900001 61258.31195967  3133.36280508
0.31000001 60417.00681071  4509.52560185
0.31100001 59586.29974292  3625.23064800
0.31200001 58767.90868677  3862.81482087
0.31300001 57959.81392989  4367.85178456
0.31400001 57164.16760506  3241.20845667
0.31500001 56377.89026087  3474.00576236
0.31600002 55604.17803785  3437.17242815
0.31700002 54840.39411772  4447.00776956
0.31800002 54086.94551773  4917.31488457
0.31900002 53344.85038652  3328.71882173
0.32000002 52613.79662972  4053.36708428
0.32100002 51892.21418870  2757.03347039
0.32200002 51182.18832111  2975.73256989
0.32300002 50481.17183389  2944.06208076
0.32400002 49791.58558593  2912.80789470
0.32500002 49111.35039489  2641.69966283
0.32600002 48441.60679823  3326.48529635
0.32700002 47782.19954779  2585.97276198
0.32800002 47133.68138454  3023.86147241
0.32900002 46493.26693773  3221.98355136
0.33000002 45863.93020242  2277.14424238
0.33100002 45243.53209211  2929.06640635
0.33200002 44634.62718448  2452.44970679
0.33300002 44034.60944615  2647.36084527
0.33400002 43444.70071774  2183.09631445
0.33500002 42864.49406364  2808.48178405
0.33600002 42293.45670998  3420.69494070
0.33700002 41732.02667232  2538.97662298
0.33800002 41181.07211407  2722.27490102
0.33900002 40638.82558913  2901.61228448
0.34000002 40106.17824538  2461.71733728
0.34100002 39583.37656179  2436.75277654
0.34200002 39070.37991832  2613.22248460
0.34300002 38565.98104608  2985.00707433
0.34400002 38071.73447064  2561.27605781
0.34500002 37586.58335388  2535.96689899
0.34600002 37111.44718865  2511.14619295
0.34700002 36644.02029375  2104.09974492
0.34800002 36187.00161979  3220.46236168
0.34900002 35738.57564203  2251.53037208
0.35000002 35299.78273815  1858.53364919
0.35100002 34870.61801246  2209.40246191
0.35200002 34449.01464692  2188.89049434
0.35300002 34037.79349159  1988.14761201
0.35400002 33634.63845206  2865.67133184
0.35500002 33241.01189349  1775.07011919
0.35600002 32856.18197970  2111.33835402
0.35700002 32479.84313272  1918.58442472
0.35800002 32112.90212869  1729.27986154
0.35900002 31755.03141478  1886.24895538
0.36000002 31405.64655362  1700.61584143
0.36100002 31064.39687115  2024.15619600
0.36200002 30733.30482752  1840.77137984
0.36300002 30409.37052213  1660.35170915
0.36400002 30094.42767250  1977.20399174
0.36500002 29787.51109923  2453.00165521
0.36600002 29489.67689738  1785.74746911
0.36700002 29199.78607866  2578.92522863
0.36800002 28919.01869276  2080.86808861
0.36900002 28646.16969858  1748.84874294
0.37000002 28380.89812280  2211.15587749
0.37100002 28123.96101551  1569.31709900
0.37200002 27875.71702443  1871.57572968
0.37300002 27635.11935947  1860.39632341
0.37400002 27402.39898620  2003.80052079
0.37500002 27177.67018578  1992.66687242
0.37600002 26961.04396500  2286.97066267
0.37700002 26751.92315018  1668.51752592
0.37800002 26550.20780860  1811.25526251
0.37900002 26357.18943429  1802.83184271
0.38000002 26170.73849104  1495.65777562
0.38100002 25991.19076962  1787.15436198
0.38200002 25820.18343839  2373.39137409
0.38300002 25655.84410703  1921.10969774
0.38400002 25498.84853216  1914.32614424
0.38500002 25348.50876775  2641.82170893
0.38600002 25206.11759079  1609.53671501
0.38700002 25069.81460999  1896.78226325
0.38800002 24940.15630682  1600.78400839
0.38900002 24817.49686832  1597.00599914
0.39000002 24702.11406764  1593.65696457
0.39100002 24592.29546775  1590.62974621
0.39200002 24489.87303356  1588.04589210
0.39300002 24392.94230540  1585.78525440
0.39400002 24303.61452995  1727.98707495
0.39500002 24218.88835548  1438.60203647
0.39600002 24140.83022646  1437.58650810
0.39700002 24067.99596559  1580.54536994
0.39800002 24002.31818566  1436.53881147
0.39900002 23941.08559166  1867.40476462
0.40000002 23886.09615409  1580.42362691
0.40100002 23836.03320809  1581.04415760
0.40200002 23791.94169980  2301.15671023
0.40300002 23752.92787702  1871.25574681
0.40400002 23719.06133871  1729.11965352
0.40500002 23689.92484631  1731.25978980
0.40600002 23666.42534087  2311.73653683
0.40700002 23647.44030513  1881.39043982
0.40800002 23632.66219075  1884.82306233
0.40900002 23622.44639105  1888.61467845
0.41000002 23617.46242508  1601.61829024
0.41100002 23616.36781122  1897.33907985
0.41200002 23618.54211844  1755.80250428
0.41300002 23626.43578546  1760.64207816
0.41400002 23637.25323460  1471.41908357
0.41500002 23651.90718879  2361.40652562
0.41600002 23669.42189844  1924.67913287
0.41700002 23691.99894865  1931.13492581
0.41800002 23718.56309444  1639.78293723
0.41900002 23746.40479343  2094.43300202
0.42000002 23778.17333325  1952.06923229
0.42100002 23814.09530922  1808.91876540
0.42200002 23851.99969581  1816.09134289
0.42300002 23892.76509493  1519.57993204
0.42400002 23936.11145019  1678.51989498
0.42500002 23982.71747610  1838.99486321
0.42600002 24030.51603178  2308.73193716
0.42700002 24081.67216105  2009.85645380
0.42800002 24134.43289396  2174.27116245
0.42900002 24190.35529128  1872.33358827
0.43000002 24248.09048041  1724.40303623
0.43100002 24306.01717410  1732.53298627
0.43200002 24367.03618165  1582.63907500
0.43300002 24429.07383555  1908.39933847
0.43400002 24492.97505035  2716.88338621
0.43500002 24557.87347872  1927.30200194
0.43600002 24624.57539010  1936.96919198
0.43700002 24691.83011943  1946.70397887
0.43800002 24759.74591555  1630.42934580
0.43900002 24829.49742325  2785.86974291
0.44000002 24899.32102664  1976.50819676
0.44100002 24970.23047906  1821.07899514
0.44200002 25041.59658578  1996.81700638
0.44300002 25113.42394599  1839.80952547
0.44400002 25185.56365895  1849.25009930
0.44500002 25257.49251400  1858.69896219
0.44600002 25329.34285324  1698.33251880
0.44700002 25402.48352792  2389.86576357
0.44800002 25474.03714372  2573.51472441
0.44900002 25546.49697790  2241.70521605
0.45000002 25618.79404886  2079.73379945
0.45100002 25689.83153812  1741.77066083
0.45200002 25760.86224267  2800.72107576
0.45300002 25830.79608679  1934.98502657
0.45400002 25900.45262351  2298.01776793
0.45500002 25969.74934651  1953.96403344
0.45600002 26037.55667054  1963.36205379
0.45700002 26104.84065126  2152.08316529
0.45800002 26170.77786163  1982.04395529
0.45900002 26235.37233095  2896.38524261
0.46000002 26299.41373002  1818.60454562
0.46100002 26361.32023763  2557.57541067
0.46200002 26422.52687769  2385.55795222
0.46300002 26482.45152818  2211.81445646
0.46400002 26540.11626294  2036.29051678
0.46500002 26597.37023132  2602.81877420
0.46600002 26651.95725395  2800.45454119
0.46700002 26704.67299091  2249.60175938
0.46800002 26756.73681529  1882.33652417
0.46900002 26805.81458805  2078.79101983
0.47000002 26853.50550955  2466.36033042
0.47100002 26899.36649686  3047.16038119
0.47200002 26943.25954772  1911.62435552
0.47300002 26985.11486160  2302.37010912
0.47400002 27024.15323079  1925.47100896
0.47500002 27061.48565313  2318.62820066
0.47600002 27097.21211105  2326.56674213
0.47700002 27129.75054505  2528.76416816
