# SAXS profile: number of points = 501, q_min = 0, q_max = 0.5, delta_q = 0.001
#    q    intensity    error
0.00000000 1700912.83420644 331.67800267
0.00100000 1700829.81335152 663.32364296
0.00200000 1700580.69227351 1147.89200363
0.00300000 1700165.69940739 1020.09945598
0.00400000 1699584.69549996 1402.15742707
0.00500000 1698838.20009023 1834.74532872
0.00600000 1697926.13825961 2139.38702131
0.00700000 1696849.05645215 2443.46274284
0.00800000 1695606.77611976 3204.69694217
0.00900000 1694200.51255345 4066.08140394
0.01000000 1692629.73461732 3072.12310098
0.01100000 1690895.63102635 3652.33472204
0.01200000 1688998.19694830 4281.61061699
0.01300000 1686938.53785568 4959.59952004
0.01400000 1684716.75411116 4548.73543775
0.01500000 1682334.22418335 5652.64324496
0.01600000 1679790.37292549 6853.54502791
0.01700000 1677087.50815277 5886.57741768
0.01800000 1674225.57248344 5248.69740591
0.01900000 1671205.13778694 5514.97720355
0.02000000 1668027.59819485 6305.14460639
0.02100000 1664694.86884459 7141.54131113
0.02200000 1661205.37327678 6877.39055782
0.02300000 1657562.58272069 6563.94812635
0.02400000 1653765.89314375 9302.43357310
0.02500000 1649818.13117941 7721.14920655
0.02600000 1645718.98622588 7998.19463888
0.02700000 1641470.58670450 7583.59445791
0.02800000 1637072.99911070 8545.52144725
0.02900000 1632528.94933384 11754.20897489
0.03000000 1627839.40331990 8326.39893071
0.03100000 1623004.72585903 8569.46534684
0.03200000 1618026.81163773 10412.00301245
0.03300000 1612909.21215466 13161.33977793
0.03400000 1607649.85440431 9284.17833756
0.03500000 1602252.40804681 8652.16340299
0.03600000 1596717.92924050 8861.78491682
0.03700000 1591048.29763122 9975.87328751
0.03800000 1585245.06708196 13910.52610742
0.03900000 1579310.23033564 12318.62036709
0.04000000 1573243.67445975 10642.99395091
0.04100000 1567049.76225384 11846.89675194
0.04200000 1560728.85842146 12080.04192461
0.04300000 1554282.29243724 14361.56904875
0.04400000 1547713.34057409 12536.47864087
0.04500000 1541023.45216389 10633.06231400
0.04600000 1534212.58418486 16224.29883197
0.04700000 1527285.23494182 16494.68130450
0.04800000 1520241.94092184 15643.29029994
0.04900000 1513086.13158795 13617.77581817
0.05000000 1505817.38186229 14975.35455996
0.05100000 1498440.86898842 14025.40718709
0.05200000 1490954.29572481 18964.93952541
0.05300000 1483364.43782779 18022.87875980
0.05400000 1475670.37052246 15826.56546191
0.05500000 1467875.22769948 16029.19823423
0.05600000 1459980.11053855 12482.83052761
0.05700000 1451990.28053626 15158.77923639
0.05800000 1443904.09320381 15334.26218582
0.05900000 1435724.80358475 15505.82860293
0.06000000 1427456.25484635 14367.34787625
0.06100000 1419099.54264402 13197.62636333
0.06200000 1410656.72641308 26661.41337546
0.06300000 1402131.28571973 16152.55316671
0.06400000 1393522.22321011 13586.84231171
0.06500000 1384835.14448317 19193.81600038
0.06600000 1376071.27879567 15212.46869886
0.06700000 1367232.67866935 15340.35137258
0.06800000 1358321.74199854 15464.49375653
0.06900000 1349341.68630519 18418.51488040
0.07000000 1340293.03222621 18556.35790014
0.07100000 1331179.00248571 14376.73390022
0.07200000 1322002.07233477 20266.29271830
0.07300000 1312764.66191904 14571.68843007
0.07400000 1303469.81392133 19063.24692198
0.07500000 1294118.53184802 19178.83754095
0.07600000 1284711.94209165 19289.95071483
0.07700000 1275256.02851519 19396.64510320
0.07800000 1265750.59706150 22498.71791787
0.07900000 1256197.61911264 19596.68377731
0.08000000 1246601.58417305 18175.45194987
0.08100000 1236963.19957700 18257.57768237
0.08200000 1227284.67572861 25975.48138070
0.08300000 1217568.86571243 21477.91579917
0.08400000 1207818.19891794 16939.65103495
0.08500000 1198034.36367595 17000.10841863
0.08600000 1188219.99320911 21708.78029519
0.08700000 1178378.68510202 18665.51924851
0.08800000 1168509.82571655 23399.41035890
0.08900000 1158618.49105609 17205.48540032
0.09000000 1148705.50682172 20383.78017609
0.09100000 1138772.63325621 17286.56938497
0.09200000 1128822.48885035 23620.61168905
0.09300000 1118859.71418479 18931.10725362
0.09400000 1108881.49642545 20542.03068671
0.09500000 1098893.36705807 17406.47175235
0.09600000 1088896.90110263 15843.45065581
0.09700000 1078896.25778255 22203.68602902
0.09800000 1068890.99277125 19047.63838676
0.09900000 1058884.71693541 19059.92580108
0.10000000 1048877.17643295 17479.53896727
0.10100000 1038871.64258698 17484.21056705
0.10200000 1028870.76703435 19075.26491805
0.10300000 1018875.82214697 20662.80264513
0.10400000 1008890.40224637 19068.02949951
0.10500000 998916.35827757 19059.32501267
0.10600001 988951.18506325 22221.73417398
0.10700001 979003.06410004 20617.80550017
0.10800001 969069.72978540 17428.71991042
0.10900001 959155.27530671 15826.06278742
0.11000001 949260.24285751 22127.25730253
0.11100001 939386.99831136 17359.87254598
0.11200001 929537.14423041 25209.04853830
0.11300001 919712.41019451 26736.04102311
0.11400001 909914.87693010 15696.03236608
0.11500001 900146.91348172 15662.55703210
0.11600001 890408.83864946 17189.34343960
0.11700001 880704.01001259 18706.15405363
0.11800001 871030.92618357 17102.69304112
0.11900001 861393.41961775 18606.09874012
0.12000001 851791.85050117 20098.02965929
0.12100001 842231.47388450 18495.40403779
0.12200001 832709.91817931 18436.19845704
0.12300001 823230.64103770 21436.92690261
0.12400001 813792.71363419 16784.47550955
0.12500001 804399.04587200 21284.39975670
0.12600001 795052.80318341 25747.78624442
0.12700001 785752.79708251 15086.45441495
0.12800001 776500.59688671 25542.98833841
0.12900001 767299.04891359 20947.26502263
0.13000001 758148.59246021 17877.14465285
0.13100001 749049.01173059 14831.17113137
0.13200001 740003.93137303 22144.61869024
0.13300001 731013.32215796 16162.70531487
0.13400001 722077.72637064 14622.07464837
0.13500001 713199.58967905 16004.19954697
0.13600001 704378.88701228 18817.48285379
0.13700001 695617.54927604 20158.99752858
0.13800001 686913.97523833 18618.80417682
0.13900001 678273.64354930 17092.49662349
0.14000001 669693.21365754 18413.21577789
0.14100001 661177.01058040 21124.60648434
0.14200001 652723.34441899 23801.55787685
0.14300001 644335.49895885 15309.41217737
0.14400001 636009.02084829 13833.19685596
0.14500001 627751.79596672 16497.31797622
0.14600001 619559.77610205 15027.42307826
0.14700001 611436.55367396 14931.28134512
0.14800001 603379.09604676 14834.07577616
0.14900001 595390.89367450 16075.55488767
0.15000001 587471.51804969 13306.23051165
0.15100001 579622.21830656 15858.46464115
0.15200001 571844.08442343 15748.58682815
0.15300001 564136.44849234 13031.55257512
0.15400001 556497.93086529 12938.57750320
0.15500001 548933.08575598 15414.04177546
0.15600001 541438.29005638 20401.39573217
0.15700001 534018.91444439 16453.12353057
0.15800001 526668.95705214 13817.16074042
0.15900001 519394.42284443 18698.20010497
0.16000001 512190.80288366 14843.29016821
0.16100001 505062.91174015 18409.54400194
0.16200001 498008.45950819 13393.93815075
0.16300001 491027.48698846 16910.98745021
0.16400001 484121.16754472 11981.99946240
0.16500001 477288.47637476 14261.38034738
0.16600001 470531.26671781 14144.17054533
0.16700001 463846.80377092 11688.94000692
0.16800001 457237.21536656 13909.15674819
0.16900001 450703.95344236 14940.83676209
0.17000001 444243.28471518 14813.29302831
0.17100001 437858.14400529 14685.76284342
0.17200001 431546.68392148 13438.36437191
0.17300001 425310.26737626 13320.71820329
0.17400001 419148.51964561 12102.91407634
0.17500001 413059.83570095 15266.69224852
0.17600001 407044.32501021 10807.02733943
0.17700001 401105.48987105 13922.37221099
0.17800001 395238.25924288 16979.43641905
0.17900001 389444.14480512 11566.49164704
0.18000001 383724.86968271 12501.75684478
0.18100001 378078.74841448 10321.55031927
0.18200001 372503.07421800 16360.33579248
0.18300001 367000.74708479 12155.06531765
0.18400001 361570.13487437 10033.57171676
0.18500001 356211.81893787 16895.12737038
0.18600001 350925.01640265 12796.48132767
0.18700001 345708.15850235 10723.86758339
0.18800001 340560.68821669 13516.85435394
0.18900001 335486.89744065 13385.92784033
0.19000001 330478.77239563 11361.86073180
0.19100001 325542.61309146 10313.19047004
0.19200001 320673.53016984 11140.19896449
0.19300001 315874.88865024 10111.15566347
0.19400001 311141.90973819 12741.26180585
0.19500001 306477.56307199 9911.48485812
0.19600001 301878.46458380 9812.55995500
0.19700001 297347.74296960 8831.22838354
0.19800001 292881.26806537 12239.50877088
0.19900001 288480.35405734 9519.85213380
0.20000001 284142.82760749 8566.90665725
0.20100001 279870.94469780 10176.10803016
0.20200001 275661.09518288 12590.82111756
0.20300001 271514.73477428 9139.18640446
0.20400001 267430.78243597 9045.84664346
0.20500001 263407.60960236 8953.22507358
0.20600001 259445.28810343 9666.93189167
0.20700001 255543.59706187 9567.55272625
0.20800001 251701.02421713 8679.91023043
0.20900001 247919.82992988 10933.26501674
0.21000001 244194.11235395 9274.49282563
0.21100001 240527.50826950 8413.65263701
0.21200001 236916.87123599 8326.44383322
0.21300001 233362.61424634 7490.94027145
0.21400001 229864.44483591 8895.75443571
0.21500001 226422.10393575 8803.29181722
0.21600001 223032.68416377 7985.68563404
0.21700001 219697.33590264 7902.51354605
0.21800001 216415.08715124 8531.08313886
0.21900001 213184.16852209 7738.58568324
0.22000001 210004.27769158 7657.80634810
0.22100001 206876.71431817 6888.99491253
0.22200001 203798.94605522 8862.19758826
0.22300001 200769.91754257 7420.45650325
0.22400001 197788.98297227 7342.91634007
0.22500001 194858.34139896 7926.83770295
0.22600001 191973.05903717 7190.35126626
0.22700001 189135.35268084 9702.64405136
0.22800001 186342.90028327 7040.96682017
0.22900001 183595.21365488 7600.84220476
0.23000001 180892.70009540 6267.93235473
0.23100001 178235.09132717 6822.83961867
0.23200001 175618.82864468 9206.81752712
0.23300001 173046.27417150 9110.88676602
0.23400001 170514.01888948 7212.74334015
0.23500001 168023.39565790 7137.63418513
0.23600001 165573.24864612 7063.35512132
0.23700001 163162.77342886 6407.40241561
0.23800001 160791.34698322 8646.55509299
0.23900001 158458.41853121 8556.75500542
0.24000001 156162.56210037 8467.91533043
0.24100001 153905.14964821 7262.78435544
0.24200001 151683.96425107 7187.54498602
0.24300001 149498.07373570 6565.95570906
0.24400001 147347.20665239 8122.51515094
0.24500001 145230.68409691 6966.71624568
0.24600001 143148.16287298 7425.09555947
0.24700001 141099.97054322 7348.48681352
0.24800001 139083.74115633 7792.16696690
0.24900001 137098.38014815 7711.78424816
0.25000001 135146.22934136 5088.25577542
0.25100001 133223.99751438 7553.80101643
0.25200001 131334.14724546 5482.54423614
0.25300001 129471.94645575 8385.89836868
0.25400001 127640.63225259 5858.70529758
0.25500001 125835.80923210 5315.30483344
0.25600001 124061.02423268 5739.06325253
0.25700001 122312.77253549 5206.85497319
0.25800001 120591.47653677 4684.97908512
0.25900001 118897.98050844 6491.83004292
0.26000001 117229.18256098 5048.47498586
0.26100001 115586.07896097 4996.78642991
0.26200001 113968.84273500 4945.67816450
0.26300001 112374.97962956 5340.05928468
0.26400001 110805.98379217 5285.44567698
0.26500001 109260.67878513 4359.50128981
0.26600001 107737.97311002 4746.39662996
0.26700001 106238.44031872 4697.86405320
0.26800001 104761.36236218 5072.54540561
0.26900001 103305.34139441 5439.02648180
0.27000001 101871.34752119 4141.07047270
0.27100001 100458.03556190 5738.16326284
0.27200001 99065.85552145  4868.09637070
0.27300001 97693.97278200  6022.83370704
0.27400001 96340.24611851  3974.03534046
0.27500001 95008.12825070  4326.67036530
0.27600001 93693.10251673  4282.24345319
0.27700001 92398.59128202  5394.23001433
0.27800001 91121.17756171  4576.10575372
0.27900001 89862.16099005  4151.63203423
0.28000001 88620.48095925  5229.49482891
0.28100001 87396.45009499  5545.30502098
0.28200001 86190.01849946  4024.64310432
0.28300001 85000.09279684  3983.10453698
0.28400001 83825.81538446  5375.33066595
0.28500001 82668.40865855  3901.12238924
0.28600001 81526.57560403  4913.60694423
0.28700001 80401.21716987  4862.66584460
0.28800001 79289.28948966  4124.62903448
0.28900001 78194.56463441  3741.61009486
0.29000001 77113.55466614  4375.80886666
0.29100001 76047.76128881  4330.15973275
0.29200001 74995.89271088  3625.67660473
0.29300001 73958.65797444  4566.20775949
0.29400001 72934.53877971  4518.29489128
0.29500001 71925.25096543  3512.82942344
0.29600001 70928.39318740  4107.81808590
0.29700001 69945.23669934  3439.20745131
0.29800001 68975.47693249  3712.26034424
0.29900001 68019.01188012  4591.28351926
0.30000001 67074.14013816  3634.07708472
0.30100001 66143.14710766  4794.05552931
0.30200001 65223.47616386  4446.61069798
0.30300001 64317.02234428  3519.42762929
0.30400001 63422.21086612  3772.03616984
0.30500001 62540.11557102  3731.76887279
0.30600001 61668.34243067  4827.70641574
0.30700001 60809.34827632  4214.08803506
0.30800001 59961.69432505  3890.91452896
0.30900001 59125.81381237  3574.15561417
0.31000001 58301.15673461  3807.64872661
0.31100001 57487.07564788  2959.43479447
0.31200001 56685.08965999  2927.50159409
0.31300001 55893.28126607  2895.83103950
0.31400001 55113.77510196  3124.95119624
0.31500001 54343.53190842  3091.06024130
0.31600002 53585.55617412  3057.59198006
0.31700002 52837.31424545  2772.37400973
0.31800002 52099.38752733  2742.25139234
0.31900002 51372.67270316  3452.24376911
0.32000002 50656.68002271  3170.85503616
0.32100002 49950.25607953  3136.37672774
0.32200002 49255.25492714  3340.98409990
0.32300002 48568.99916813  3304.63485988
0.32400002 47894.07410381  3969.22157930
0.32500002 47228.50814424  2540.42157337
0.32600002 46573.37633554  2969.75148266
0.32700002 45928.33617355  2485.64167141
0.32800002 45294.19799338  2458.79565450
0.32900002 44667.89503485  2874.37918160
0.33000002 44052.69955181  3499.54661811
0.33100002 43446.33368906  2596.35302421
0.33200002 42851.35539101  2354.46783345
0.33300002 42265.18367661  2540.98296297
0.33400002 41689.18988769  3351.81102570
0.33500002 41122.68105745  2279.84154579
0.33600002 40565.18549190  3485.96938033
0.33700002 40017.43740443  2637.54942423
0.33800002 39479.94030340  2609.82157735
0.33900002 38951.11054924  3178.41077134
0.34000002 38431.90261838  2358.95029443
0.34100002 37922.33185005  2529.04043085
0.34200002 37422.65796140  2310.47501196
0.34300002 36931.52444541  2477.36677712
0.34400002 36450.51591387  3018.10286061
0.34500002 35978.46224472  2987.65164630
0.34600002 35516.33929789  2033.48810281
0.34700002 35062.10021178  2196.29006128
0.34800002 34618.08910320  1993.48275542
0.34900002 34182.70308441  1974.05119662
0.35000002 33756.81811559  1955.02621376
0.35100002 33340.66870259  2464.54234722
0.35200002 32931.99260943  1743.74909126
0.35300002 32533.63632489  2936.81149014
0.35400002 32143.48656108  1882.80481449
0.35500002 31762.79269807  1865.74653145
0.35600002 31390.69036348  2353.36016802
0.35700002 31027.29291315  2332.63199170
0.35800002 30673.05416313  2147.26725840
0.35900002 30328.10168205  2129.03283892
0.36000002 29991.50866877  2111.25235274
0.36100002 29663.07931814  2254.98739658
0.36200002 29344.70628190  2077.16513255
0.36300002 29033.59058347  1585.23412095
0.36400002 28731.51233746  2674.18563748
0.36500002 28437.25485905  2185.68751200
0.36600002 28152.29694972  2169.69762869
0.36700002 27875.18577445  2154.19445869
0.36800002 27607.25007770  1680.86750060
0.36900002 27347.17586470  1669.54516562
0.37000002 27094.76983887  2261.73601944
0.37100002 26850.67526996  1797.92130124
0.37200002 26615.23160979  1935.85896284
0.37300002 26387.55880412  1776.41054284
0.37400002 26167.59887624  1913.50575847
0.37500002 25955.81816434  1610.29903520
0.37600002 25752.03060098  2038.78835926
0.37700002 25555.72622783  1593.91072034
0.37800002 25367.02157586  1730.53829388
0.37900002 25186.86956100  1435.65163299
0.38000002 25013.39060646  1715.41840906
0.38100002 24846.74527681  1708.46228617
0.38200002 24688.73613763  1843.87834579
0.38300002 24537.23638311  1554.67937089
0.38400002 24393.26406890  1549.58217339
0.38500002 24255.86810616  1966.18076183
0.38600002 24126.49046908  1400.54283808
0.38700002 24003.19945531  1676.38352938
0.38800002 23886.65512219  1951.30094938
0.38900002 23777.09123778  1808.24787430
0.39000002 23674.64179473  1527.36958775
0.39100002 23577.92603298  1525.02032806
0.39200002 23488.55765852  2076.97580935
0.39300002 23404.74087112  1521.54227612
0.39400002 23328.48922115  1520.43435702
0.39500002 23257.02454307  1519.61405564
0.39600002 23191.97643372  1657.29871447
0.39700002 23132.31911782  1380.99951676
0.39800002 23079.75157054  1381.32319694
0.39900002 23031.72115194  1934.66466842
0.40000002 22989.85577953  2074.25983598
0.40100002 22952.99899243  1384.06590482
0.40200002 22922.10356394  1524.20534870
0.40300002 22896.26316091  2497.52450392
0.40400002 22875.53960441  1945.56473554
0.40500002 22859.56199357  1531.36213051
0.40600002 22849.37702909  1673.94544046
0.40700002 22843.42276893  1537.81929367
0.40800002 22841.93966807  1541.48837154
0.40900002 22844.83883389  1404.95765485
0.41000002 22853.00521300  2254.22054102
0.41100002 22865.08876122  1695.67506288
0.41200002 22880.47606139  1559.19011508
0.41300002 22901.51586475  1848.83946336
0.41400002 22925.51251380  2426.09247673
0.41500002 22953.31882227  1718.74459485
0.41600002 22984.02174476  2012.71087956
0.41700002 23019.69472361  2165.00239134
0.41800002 23059.33439135  1594.20715869
0.41900002 23100.29305671  2182.97779730
0.42000002 23145.12889856  1607.77645512
0.42100002 23194.00821581  1761.81694756
0.42200002 23245.03232576  2064.85631934
0.42300002 23298.80289020  1629.98432744
0.42400002 23355.12200547  1935.55582792
0.42500002 23414.68519979  1645.81830068
0.42600002 23475.38751094  2556.11769025
0.42700002 23539.49299007  1813.48262589
0.42800002 23605.13164295  1670.88932252
0.42900002 23673.82731373  1985.05051432
0.43000002 23744.33744233  1688.57863723
0.43100002 23815.01958150  2006.17734461
0.43200002 23888.80578976  1706.73581053
0.43300002 23963.46871158  2340.03283058
0.43400002 24040.06619299  2196.06015080
0.43500002 24117.45636893  2208.19440978
0.43600002 24196.85290951  1744.71416172
0.43700002 24276.50587211  1754.46316252
0.43800002 24356.85877974  1764.28914932
0.43900002 24439.04850801  2258.16818915
0.44000002 24521.19439189  1784.28479448
0.44100002 24604.39457157  1631.27143740
0.44200002 24688.01413487  1640.51861701
0.44300002 24772.07637458  1814.80240121
0.44400002 24856.28367366  1990.98841661
0.44500002 24940.18370562  2335.89771657
0.44600002 25024.06656149  2349.00923945
0.44700002 25109.07323732  2024.79576182
0.44800002 25192.57008502  1866.39164320
0.44900002 25276.70932178  2388.64914411
0.45000002 25360.70754827  1715.65194695
0.45100002 25443.29731148  2242.57233131
0.45200002 25525.87798460  2254.82853863
0.45300002 25607.32742940  2092.63089671
0.45400002 25688.34286457  2629.84422540
0.45500002 25768.92104811  1762.59428323
0.45600002 25847.95528458  2303.44064435
0.45700002 25926.31889995  2493.59346998
0.45800002 26003.28640382  2506.45689526
0.45900002 26078.86910048  2339.27466918
0.46000002 26153.83531748  2351.09913729
0.46100002 26226.49607457  2180.99551693
0.46200002 26298.43680787  2739.63978431
0.46300002 26368.81264720  2385.85028140
0.46400002 26436.95400841  2581.56868128
0.46500002 26504.61447153  3705.34527874
0.46600002 26569.41727576  2233.42532206
0.46700002 26632.39852156  2056.55391131
0.46800002 26694.45394879  2253.54590917
0.46900002 26753.61516323  2263.35595008
0.47000002 26811.05343149  1894.20101471
0.47100002 26866.65002277  2663.02247648
0.47200002 26920.21984635  2291.98762635
0.47300002 26971.49763599  2492.97564466
0.47400002 27019.96052921  2117.68950685
0.47500002 27066.60696668  2319.06699482
0.47600002 27111.55624960  3685.68068905
0.47700002 27153.08531781  2336.25157148
