# SAXS profile: number of points = 501, q_min = 0, q_max = 0.5, delta_q = 0.001
#    q    intensity    error
0.00000000 1700912.83420644 280.65061764
0.00100000 1700829.81872683 561.27385351
0.00200000 1700580.71705149 841.78748160
0.00300000 1700165.75688413 1428.13928666
0.00400000 1699584.80026586 1402.15751350
0.00500000 1698838.35804802 2140.53641587
0.00600000 1697926.36912966 1782.82276017
0.00700000 1696849.36135302 2443.46318190
0.00800000 1695607.17941234 2517.97676774
0.00900000 1694201.02165009 3049.56196933
0.01000000 1692630.36535649 2792.84022343
0.01100000 1690896.37043056 3652.33631915
0.01200000 1688999.09010563 3293.54837011
0.01300000 1686939.60413539 4251.08798991
0.01400000 1684717.98469477 4548.73876033
0.01500000 1682335.64380262 4441.36629741
0.01600000 1679791.96927608 4711.81668445
0.01700000 1677089.29211495 7245.02606694
0.01800000 1674227.58585867 4771.54883441
0.01900000 1671207.38237143 5514.98461068
0.02000000 1668030.06637970 5254.29494678
0.02100000 1664697.60681699 6592.20282188
0.02200000 1661208.38558263 8596.75378596
0.02300000 1657565.85590189 7160.68482344
0.02400000 1653769.47081543 6201.63579834
0.02500000 1649821.98548399 7721.16724470
0.02600000 1645723.14744005 7998.21486238
0.02700000 1641475.09557920 8962.45443235
0.02800000 1637077.81169202 8545.54656893
0.02900000 1632534.12964857 11754.24627316
0.03000000 1627844.92502178 8326.42717421
0.03100000 1623010.58358296 8569.49627563
0.03200000 1618033.06381704 12814.82245566
0.03300000 1612915.87765350 9048.45849077
0.03400000 1607656.93740242 8440.19931080
0.03500000 1602259.92461974 10382.64479099
0.03600000 1596725.84204575 11520.37748276
0.03700000 1591056.64510080 9069.02329649
0.03800000 1585253.85728478 10201.10904373
0.03900000 1579319.45058634 11371.10057082
0.04000000 1573253.36321239 10643.05949532
0.04100000 1567059.99238085 15795.96545560
0.04200000 1560739.53917084 10066.77049468
0.04300000 1554293.45971166 13335.83850335
0.04400000 1547725.01722958 13581.28765693
0.04500000 1541035.63627512 12759.77566124
0.04600000 1534225.25032526 16224.43277641
0.04700000 1527298.45793065 15395.16917194
0.04800000 1520255.74239750 18995.59638509
0.04900000 1513100.48201544 12483.07955768
0.05000000 1505832.31154961 16127.46480769
0.05100000 1498456.31018865 14025.55171673
0.05200000 1490970.33118864 13038.53615386
0.05300000 1483381.09053642 18023.08109022
0.05400000 1475687.57537368 14609.30767749
0.05500000 1467893.06996279 13563.33259918
0.05600000 1459998.56349515 13731.28713043
0.05700000 1452009.33858443 13895.73001889
0.05800000 1443923.76650432 17890.21630233
0.05900000 1435745.12102497 16798.21870057
0.06000000 1427477.19937594 16979.84207985
0.06100000 1419121.17130055 14517.61026083
0.06200000 1410679.07742948 18663.28506678
0.06300000 1402154.25987374 14806.74967656
0.06400000 1393545.80226820 21739.31553206
0.06500000 1384859.42349983 19194.15250757
0.06600000 1376096.25710185 22127.62884952
0.06700000 1367258.37395340 22313.65770718
0.06800000 1358348.19381646 15464.79491049
0.06900000 1349368.82267265 17002.04796169
0.07000000 1340320.91250857 18556.74390267
0.07100000 1331207.57922295 14377.04252900
0.07200000 1322031.29330019 17371.49200776
0.07300000 1312794.65920679 17486.42567997
0.07400000 1303500.56371394 26395.88765223
0.07500000 1294150.02168274 16228.64203258
0.07600000 1284744.13434076 14838.79544729
0.07700000 1275288.95687250 17905.05779403
0.07800000 1265784.30519106 16499.49919193
0.07900000 1256232.08457717 24119.65715518
0.08000000 1246636.89403884 21205.29456236
0.08100000 1236999.17944944 16736.59968320
0.08200000 1227321.39766249 15280.15211792
0.08300000 1217606.41762296 16876.02574028
0.08400000 1207856.50748204 18480.20543191
0.08500000 1198073.37460416 18546.17670953
0.08600000 1188259.81489872 23260.18696874
0.08700000 1178419.22149496 20221.67479042
0.08800000 1168551.24447562 18720.19181567
0.08900000 1158660.67307058 21898.68774961
0.09000000 1148748.43524987 17248.45856553
0.09100000 1138816.36254137 17287.23319555
0.09200000 1128867.01892928 20472.00435019
0.09300000 1118905.03092195 23664.84251606
0.09400000 1108927.63719146 26863.77327349
0.09500000 1098940.27856896 18989.68890624
0.09600000 1088944.56764161 20597.38746518
0.09700000 1078944.80730601 26962.83200218
0.09800000 1068940.23213962 30160.15006788
0.09900000 1058934.79296272 17472.42490548
0.10000000 1048927.97568783 19069.51149479
0.10100000 1038923.32966312 20664.18599887
0.10200000 1028923.27510477 27024.67109177
0.10300000 1018929.06209896 15895.29411647
0.10400000 1008944.43327859 25425.40091476
0.10500000 998971.18865357 15883.64264691
0.10600001 989006.73309580 20635.62645702
0.10700001 979059.43087298 15860.76352651
0.10800001 969126.80590294 20598.79122888
0.10900001 959213.11242496 20575.12222990
0.11000001 949318.84438325 28451.08710535
0.11100001 939446.41647232 15782.70053968
0.11200001 929597.31712680 22059.34537391
0.11300001 919773.27277441 17300.93607543
0.11400001 909976.51101661 21975.93377578
0.11500001 900209.38367193 18796.37281615
0.11600001 890471.94784670 18753.34010477
0.11700001 880767.85066207 17148.55086000
0.11800001 871095.54768389 17103.96188434
0.11900001 861458.70634730 21708.76042247
0.12000001 851857.87061117 18553.46529587
0.12100001 842298.23322114 18496.87007289
0.12200001 832777.38300474 16901.21778432
0.12300001 823298.78241341 16844.69388181
0.12400001 813861.53814392 18311.88547105
0.12500001 804468.52969352 16724.90152041
0.12600001 795123.00040362 24235.35019436
0.12700001 785823.64444273 22631.72202650
0.12800001 776572.08723372 22540.00589425
0.12900001 767371.17635049 25438.35569498
0.13000001 758221.46005012 19368.76810992
0.13100001 749122.40649566 17799.14921735
0.13200001 740077.96469182 19193.92291909
0.13300001 731087.99325995 17633.84322874
0.13400001 722152.95909292 16085.95792218
0.13500001 713275.42125804 16005.90120768
0.13600001 704455.22112135 23162.48876260
0.13700001 695694.50792603 21601.31548968
0.13800001 686991.46588518 20053.28183482
0.13900001 678351.68931939 17094.46337699
0.14000001 669771.75755310 14165.67334031
0.14100001 661256.10583079 16901.70686217
0.14200001 652802.89368423 16803.14727596
0.14300001 644415.60542862 22271.00437408
0.14400001 636089.68423065 16601.94154153
0.14500001 627832.85408367 13749.54015303
0.14600001 619641.31415644 15029.40078387
0.14700001 611518.44475019 14933.28112530
0.14800001 603461.43217049 16184.83637439
0.14900001 595473.71859614 18757.42302077
0.15000001 587554.75423142 15969.73897351
0.15100001 579705.87689462 14539.02407854
0.15200001 571928.02670381 17063.47348188
0.15300001 564220.79381985 20853.60152364
0.15400001 556582.65923416 16822.71166923
0.15500001 549018.05334744 19270.53458193
0.15600001 541523.62574840 17854.03478354
0.15700001 534104.54412971 18987.41743996
0.15800001 526754.84610571 20100.96587613
0.15900001 519480.59807693 13714.28843655
0.16000001 512277.14667749 17320.09114672
0.16100001 505149.58683219 17185.18975525
0.16200001 498095.38910085 14614.11940609
0.16300001 491114.55955097 14497.70248235
0.16400001 484208.36217832 14380.98903562
0.16500001 477375.92767657 13075.32727636
0.16600001 470618.79230162 12967.90143412
0.16700001 463934.46621121 12860.26401057
0.16800001 457324.97903118 12752.50764241
0.16900001 450791.89730035 12644.71331633
0.17000001 444331.32947888 11397.09913930
0.17100001 437946.11742799 18078.41658111
0.17200001 431634.74715792 13441.10666123
0.17300001 425398.34103460 16654.34583800
0.17400001 419236.53600557 13205.95150784
0.17500001 413147.92029601 11997.81617202
0.17600001 407132.33247300 12971.23672521
0.17700001 401193.44798079 12854.23868042
0.17800001 395326.11388434 11675.95732505
0.17900001 389531.89652352 12620.83404349
0.18000001 383812.56976283 13546.66528966
0.18100001 378166.24062935 16518.30217096
0.18200001 372590.47045986 10227.60889725
0.18300001 367087.92141601 15197.44066454
0.18400001 361657.09243808 14050.37870497
0.18500001 356298.63504471 12922.95210358
0.18600001 351011.54491791 10830.46173011
0.18700001 345794.44053514 9751.40368379
0.18800001 340646.74288300 12554.53630211
0.18900001 335572.64788640 9563.82091663
0.19000001 330564.13475214 10417.72919894
0.19100001 325627.71294041 13129.31000612
0.19200001 320758.18688276 11143.13993884
0.19300001 315959.26070635 11033.29790522
0.19400001 311225.82942838 9103.35594095
0.19500001 306561.05262435 10815.47444767
0.19600001 301961.53509321 14276.74205387
0.19700001 297430.36523637 12367.15517097
0.19800001 292963.38632113 9619.45324446
0.19900001 288561.99300724 8656.86019934
0.20000001 284223.89630369 13710.96140569
0.20100001 279951.45158320 11027.28819904
0.20200001 275741.03097184 10075.57774792
0.20300001 271594.11454975 9141.85832783
0.20400001 267509.50918479 14806.65203323
0.20500001 263485.73685188 12212.56448033
0.20600001 259522.73745213 8863.99951666
0.20700001 255620.43303915 14355.64419806
0.20800001 251777.05885820 8682.53228515
0.20900001 247995.21885746 10936.58966860
0.21000001 244268.76731979 13142.88164694
0.21100001 240601.40568616 9181.35007502
0.21200001 236990.01993417 8329.01464434
0.21300001 233434.93401884 10490.56643075
0.21400001 229935.94964524 7415.43472664
0.21500001 226492.75572097 8806.03875876
0.21600001 223102.50016260 7988.18539599
0.21700001 219766.27784133 10060.90067525
0.21800001 216483.16585701 8533.76680156
0.21900001 213251.32275835 10555.94097564
0.22000001 210070.48190761 9052.98784586
0.22100001 206941.96470502 8958.51807567
0.22200001 203863.21217914 8183.06972380
0.22300001 200833.18293577 7422.79479230
0.22400001 197851.26902240 8680.72483884
0.22500001 194919.54333106 7268.55011453
0.22600001 192033.27748262 8500.35342973
0.22700001 189194.52351408 7117.49831118
0.22800001 186400.90812398 6402.87149685
0.22900001 183652.14836824 6969.59936017
0.23000001 180948.51127382 6896.85283337
0.23100001 178289.76909971 6824.93268391
0.23200001 175672.34434888 8595.64821551
0.23300001 173098.63859080 7290.91500226
0.23400001 170565.18690914 6613.66543520
0.23500001 168073.37816830 9519.67658970
0.23600001 165621.95406913 7654.21896933
0.23700001 163210.34127724 6409.27040510
0.23800001 160837.63581285 8072.44132326
0.23900001 158503.41189038 6276.73540775
0.24000001 156206.25354130 9034.97013219
0.24100001 153947.54651321 6147.12582304
0.24200001 151725.07707041 7189.49311706
0.24300001 149537.82713766 6020.39320534
0.24400001 147385.64409405 7582.99174734
0.24500001 145267.78222855 6432.45770136
0.24600001 143183.88757814 5304.96328572
0.24700001 141134.29929365 6825.25503672
0.24800001 139116.60090785 5196.00528971
0.24900001 137129.97295917 7199.32392094
0.25000001 135176.32277122 6107.26655173
0.25100001 133252.62643109 5540.64446913
0.25200001 131361.41370365 7477.74882885
0.25300001 129497.76349542 4933.86502260
0.25400001 127664.94974152 6348.13992623
0.25500001 125858.65979924 5316.27004144
0.25600001 124082.46338898 5261.71710896
0.25700001 122332.64533546 4734.27359848
0.25800001 120609.88274380 5622.83299956
0.25900001 118914.82664500 5565.21415030
0.26000001 117244.58988955 5967.16368477
0.26100001 115599.89799638 4997.38382684
0.26200001 113981.11220008 5395.86610687
0.26300001 112385.74491346 4450.47570916
0.26400001 110815.26367957 5726.37902160
0.26500001 109268.38810538 6103.73244839
0.26600001 107744.10757736 6041.21239773
0.26700001 106243.00521375 4270.96901170
0.26800001 104764.42193299 5495.41801254
0.26900001 103306.79327105 5020.71039056
0.27000001 101871.18830853 4555.17040078
0.27100001 100456.29095586 5328.20192444
0.27200001 99062.52175885  5679.25464120
0.27300001 97689.10039669  6424.03554610
0.27400001 96333.77195988  3973.76828140
0.27500001 95000.11423704  5112.90639021
0.27600001 93683.47731600  6228.07786672
0.27700001 92387.39619977  4237.81006424
0.27800001 91108.32093669  4194.17175282
0.27900001 89847.82369396  5660.41316061
0.28000001 88604.51952226  4855.08487701
0.28100001 87378.93004633  4065.74180748
0.28200001 86170.89498860  4389.54559847
0.28300001 84979.41432487  4344.14786590
0.28400001 83803.58702476  4299.12421785
0.28500001 82644.58549942  4609.08875146
0.28600001 81501.11662560  4210.34788416
0.28700001 80374.21449998  6597.11583842
0.28800001 79260.71718810  4810.33315383
0.28900001 78164.45498096  3740.16934787
0.29000001 77081.91670040  4374.01357020
0.29100001 76014.63106185  5327.10559697
0.29200001 74961.19490300  4941.81700790
0.29300001 73922.37353988  5215.96292388
0.29400001 72896.76092437  4838.52273539
0.29500001 71885.96793584  3830.08455293
0.29600001 70887.57764489  3158.04173357
0.29700001 69902.95330473  4062.06080883
0.29800001 68931.69684074  3400.74542462
0.29900001 67973.74686979  3976.46438013
0.30000001 67027.43329417  3934.17538344
0.30100001 66094.97984387  4491.15409300
0.30200001 65173.82868229  2962.15065384
0.30300001 64266.03710072  3516.63771663
0.30400001 63369.81061959  3768.91966503
0.30500001 62486.27326538  3441.74409440
0.30600001 61613.13661154  2837.28507529
0.30700001 60752.72449020  2806.77600433
0.30800001 59903.73394381  2776.53819975
0.30900001 59066.47429880  3295.90942192
0.31000001 58240.52144830  2716.92045420
0.31100001 57425.04668834  2687.49231225
0.31200001 56621.86974595  2658.39691044
0.31300001 55828.76407360  3418.39538607
0.31400001 55047.97420023  2861.11859452
0.31500001 54276.47219119  3344.51637477
0.31600002 53517.27347970  3562.64506423
0.31700002 52767.81632191  4278.94242814
0.31800002 52028.70153912  2738.53083518
0.31900002 51300.83128857  2708.68402029
0.32000002 50583.72386072  3166.28834498
0.32100002 49876.16184817  2649.92060447
0.32200002 49180.07512812  3097.60717862
0.32300002 48492.71150697  2592.42047992
0.32400002 47816.70544659  2797.27740108
0.32500002 47150.07217651  2536.20250247
0.32600002 46493.96369992  2964.68773571
0.32700002 45847.95145899  2706.86318232
0.32800002 45212.77825431  3793.12621126
0.32900002 44585.53558100  2869.07935050
0.33000002 43969.46809265  2619.70103301
0.33100002 43362.18240137  2159.43678585
0.33200002 42766.31840868  2777.03101737
0.33300002 42179.28750964  2324.50064473
0.33400002 41602.52039103  3553.89547270
0.33500002 41035.12006955  2274.98716439
0.33600002 40476.89524380  2659.93929691
0.33700002 39928.37318708  3036.55292468
0.33800002 39390.19823758  2203.29084276
0.33900002 38860.67510752  2576.46288164
0.34000002 38340.76016521  2353.35597039
0.34100002 37830.60081911  2716.99387950
0.34200002 37330.31064501  2112.70903101
0.34300002 36838.55587113  1900.86957297
0.34400002 36357.03974608  1881.47689597
0.34500002 35884.49555407  2234.88648895
0.34600002 35421.86397245  2949.93297134
0.34700002 34967.09555003  4015.62144315
0.34800002 34522.71837711  1987.99083190
0.34900002 34086.86794337  1968.51671696
0.35000002 33660.64078730  2126.67938567
0.35100002 33244.13724358  2106.34863552
0.35200002 32835.16461058  2260.20866302
0.35300002 32436.53349185  1722.38001000
0.35400002 32046.06498419  2047.74364948
0.35500002 31665.22330688  2705.47680748
0.35600002 31292.91248372  1843.30909716
0.35700002 30929.38449643  2657.45284180
0.35800002 30574.96171753  2305.04647306
0.35900002 30229.87276207  1632.41320647
0.36000002 29893.29623909  1780.59427482
0.36100002 29564.80471765  1765.90586943
0.36200002 29246.43311609  1910.96203032
0.36300002 28935.38159121  1895.84629166
0.36400002 28633.38144673  2351.51656270
0.36500002 28339.17869312  1555.82098395
0.36600002 28054.37637186  1698.83284167
0.36700002 27777.38310405  1533.31161997
0.36800002 27509.63109274  2283.98722966
0.36900002 27249.83077506  2117.31195152
0.37000002 26997.65928393  1802.90377238
0.37100002 26753.87254335  2537.87246968
0.37200002 26518.68968802  1632.09283416
0.37300002 26291.33932605  2064.92188848
0.37400002 26071.86675416  2346.46811903
0.37500002 25860.43998946  1750.23466140
0.37600002 25657.09028203  1595.99937660
0.37700002 25461.26608981  1732.38462682
0.37800002 25273.07053347  2442.51601741
0.37900002 25093.48076977  1859.42701313
0.38000002 24920.55888562  1424.21000778
0.38100002 24754.54994186  1843.96651252
0.38200002 24597.15601914  2260.97068839
0.38300002 24446.31744434  2112.16192725
0.38400002 24303.03101804  1824.55014012
0.38500002 24166.39040720  1819.00429212
0.38600002 24037.73954229  1534.92993119
0.38700002 23915.27410622  1531.05592081
0.38800002 23799.55831956  2083.05644060
0.38900002 23690.81465382  1801.68653978
0.39000002 23589.27826900  2351.96910124
0.39100002 23493.46199368  2348.40657215
0.39200002 23405.02024498  1517.69860969
0.39300002 23322.16601178  1791.84209958
0.39400002 23246.93258635  1515.11890310
0.39500002 23176.45715325  1789.68610616
0.39600002 23112.50284299  1651.61953141
0.39700002 23053.88838318  1651.58064202
0.39800002 23002.42311470  1652.03410637
0.39900002 22955.50069744  1790.52913923
0.40000002 22914.82864072  2480.98861448
0.40100002 22879.21562855  2069.42515165
0.40200002 22849.53179904  2348.13224658
0.40300002 22824.88323650  1659.82558760
0.40400002 22805.46897528  1523.97553648
0.40500002 22790.74164119  1943.13872440
0.40600002 22781.86669655  1947.16623881
0.40700002 22777.31285790  1533.36877425
0.40800002 22777.17420758  2375.54549654
0.40900002 22781.52287790  1681.27646805
0.41000002 22791.06913520  1686.08337451
0.41100002 22804.55274772  2113.98213988
0.41200002 22821.44920790  1555.16772996
0.41300002 22843.90913706  2127.91023694
0.41400002 22869.46058291  2420.16078086
0.41500002 22898.74834092  1428.88196418
0.41600002 22931.02750567  1577.76942229
0.41700002 22968.25769619  1584.12080837
0.41800002 23009.49507026  2024.60556717
0.41900002 23052.02453984  1597.50537631
0.42000002 23098.49518871  1604.53704431
0.42100002 23148.97852116  1758.39649179
0.42200002 23201.68840906  1766.57663918
0.42300002 23257.14545804  1627.06997334
0.42400002 23315.12481568  1783.60713292
0.42500002 23376.40972467  1941.87844785
0.42600002 23438.83020595  1801.50857500
0.42700002 23504.67858311  1810.80052385
0.42800002 23572.07718743  1971.92221056
0.42900002 23642.52406804  1677.43716212
0.43000002 23714.84410278  1839.79769268
0.43100002 23787.28377520  1849.69927401
0.43200002 23862.88527108  1549.89447180
0.43300002 23939.36302048  1870.14312778
0.43400002 24017.77185411  1567.15968775
0.43500002 24097.01866195  2363.91764276
0.43600002 24178.23837965  2377.32540134
0.43700002 24259.73413828  1753.25106926
0.43800002 24342.00313306  1763.21308050
0.43900002 24426.01861813  2095.75249675
0.44000002 24510.03572178  1945.60672780
0.44100002 24595.13537674  2119.85481858
0.44200002 24680.63297060  2296.03939406
0.44300002 24766.58965774  2144.29143419
0.44400002 24852.71225161  2654.26979426
0.44500002 24938.49806895  2002.06271985
0.44600002 25024.29598408  1845.66703777
0.44700002 25111.19422227  1856.21956488
0.44800002 25196.60841385  2036.38998852
0.44900002 25282.69832320  2218.55688300
0.45000002 25368.56569944  1716.18355090
0.45100002 25453.06823114  2243.43354021
0.45200002 25537.61047658  2255.86492836
0.45300002 25620.92067902  1744.78478093
0.45400002 25703.87531493  2280.57644540
0.45500002 25786.31743323  1940.16261563
0.45600002 25867.27584714  2659.80276504
0.45700002 25947.57567374  1782.59853327
0.45800002 26026.41449623  2329.49433989
0.45900002 26103.90367670  1981.28638296
0.46000002 26180.73258994  2715.59661660
0.46100002 26255.27541587  2547.28694158
0.46200002 26329.05470473  2194.26352309
0.46300002 26401.35210046  2756.30128992
0.46400002 26471.33219939  2215.65061010
0.46500002 26540.82882536  2040.72442510
0.46600002 26607.47945902  2236.62482933
0.46700002 26672.26897414  2246.87204487
0.46800002 26736.13629242  2257.06473278
0.46900002 26797.08938962  2644.87284811
0.47000002 26856.34414340  2466.62104476
0.47100002 26913.73407600  2096.04170918
0.47200002 26969.05552500  1913.45458019
0.47300002 27022.08123928  2497.65108733
0.47400002 27072.32416597  3472.02573885
0.47500002 27120.69655002  3098.26852072
0.47600002 27167.33137571  2332.58718248
0.47700002 27210.56149942  2731.39629278
