# SAXS profile: number of points = 501, q_min = 0, q_max = 0.5, delta_q = 0.001
#    q    intensity    error
0.00000000 1682732.95097188 277.65093691
0.00100000 1682650.36978135 605.75414751
0.00200000 1682402.55747015 908.49740980
0.00300000 1681989.75583028 1211.03266734
0.00400000 1681411.82305328 1387.16480673
0.00500000 1680669.26753084 2571.42408110
0.00600000 1679762.00693236 1763.75017908
0.00700000 1678690.59761420 2014.42880086
0.00800000 1677454.89894998 3396.84631379
0.00900000 1676056.06890324 3268.30947407
0.01000000 1674493.58771076 3039.20599293
0.01100000 1672768.65819977 4215.37720220
0.01200000 1670881.24901046 3909.86229411
0.01300000 1668832.50354483 4555.91293561
0.01400000 1666622.52679638 5249.86119214
0.01500000 1664252.60198744 4393.62706489
0.01600000 1661722.28700260 5084.87042554
0.01700000 1659033.77211283 4479.39138564
0.01800000 1656187.06167244 5664.16000579
0.01900000 1653182.71988899 6943.36773684
0.02000000 1650022.09621654 7796.35475730
0.02100000 1646707.12857014 5977.54714772
0.02200000 1643236.27827885 6236.08195939
0.02300000 1639612.98691762 8853.91053237
0.02400000 1635836.66023858 6134.38775561
0.02500000 1631909.97051258 7000.89409323
0.02600000 1627832.83443570 7911.26793721
0.02700000 1623607.38077930 7501.06644276
0.02800000 1619233.50849444 10565.49912746
0.02900000 1614713.83186254 14532.42515401
0.03000000 1610049.57619931 8984.07704815
0.03100000 1605241.26244439 10016.70593855
0.03200000 1600290.16934586 8713.58037342
0.03300000 1595200.32832534 11389.73086931
0.03400000 1589969.71280283 9182.07551510
0.03500000 1584601.52508236 11123.90321976
0.03600000 1579097.35681878 11393.18795597
0.03700000 1573458.73938438 9865.58675220
0.03800000 1567687.37770045 12839.36021757
0.03900000 1561785.20326614 10307.78281891
0.04000000 1555752.10811116 11481.45108990
0.04100000 1549592.32920875 9762.43212667
0.04200000 1543306.36998829 11945.19185788
0.04300000 1536895.53345536 14200.91538831
0.04400000 1530363.03701259 14461.93137141
0.04500000 1523710.44758939 12616.32309226
0.04600000 1516937.78077157 11763.85303675
0.04700000 1510049.15633678 15221.29620379
0.04800000 1503045.30642865 11047.38351626
0.04900000 1495929.78200936 13463.36866477
0.05000000 1488702.18261386 14805.14389551
0.05100000 1481367.45157146 16176.53332473
0.05200000 1473923.44485056 18748.30709219
0.05300000 1466376.60911709 16628.71152258
0.05400000 1458726.50010340 13237.94360577
0.05500000 1450976.22797853 17063.48123703
0.05600000 1443126.28214245 13572.60331690
0.05700000 1435182.51975290 21226.35045796
0.05800000 1427143.28083123 13893.24048760
0.05900000 1419011.40199040 17879.54450016
0.06000000 1410791.02099487 18072.23382326
0.06100000 1402482.90585776 14347.40079740
0.06200000 1394089.71924375 13174.14846266
0.06300000 1385614.46385381 19952.84921240
0.06400000 1377055.97644565 16111.55567790
0.06500000 1368420.42540182 13547.36284519
0.06600000 1359708.87449053 15031.58231080
0.06700000 1350922.67338412 17913.23548739
0.06800000 1342065.35669729 19446.52792882
0.06900000 1333139.26361712 13997.96292335
0.07000000 1324145.34106900 16922.57825132
0.07100000 1315086.43560165 14202.93416973
0.07200000 1305965.23210107 15730.35195757
0.07300000 1296784.59834034 15833.74068763
0.07400000 1287546.62786709 15933.39026656
0.07500000 1278252.87153632 17486.50010225
0.07600000 1268904.47177559 24914.94047134
0.07700000 1259507.34626525 25051.60229185
0.07800000 1250061.20706520 17775.87119809
0.07900000 1240568.14613567 16375.50029706
0.08000000 1231032.49516347 14957.04551789
0.08100000 1221455.16188577 21033.45887453
0.08200000 1211838.00166256 15087.38382868
0.08300000 1202184.44979685 16662.27725618
0.08400000 1192496.08659818 19765.62356314
0.08500000 1182775.50281006 21360.92658354
0.08600000 1173024.66135954 18369.56705937
0.08700000 1163247.24863300 18425.83728358
0.08800000 1153442.85411575 16938.30910818
0.08900000 1143616.74307700 15438.82675670
0.09000000 1133768.94645689 18571.13621535
0.09100000 1123902.06097202 18611.81900410
0.09200000 1114018.47867562 15540.55850772
0.09300000 1104122.70713750 17124.94399244
0.09400000 1094211.70023514 17151.76920728
0.09500000 1084291.41685719 15613.79713663
0.09600000 1074362.97491209 17195.18022178
0.09700000 1064430.86630365 17211.84791731
0.09800000 1054494.61315547 21922.94403827
0.09900000 1044557.55636790 20368.87330697
0.10000000 1034619.82256920 20376.83836377
0.10100000 1024684.40301617 21948.74094489
0.10200000 1014754.25833158 18813.54483439
0.10300000 1004830.24515406 20377.95833032
0.10400000 994915.93581221 21937.89741673
0.10500000 985013.36794960 17227.88461600
0.10600001 975120.39598450 15650.68309197
0.10700001 965244.31785504 20328.04629062
0.10800001 955383.77714546 17182.57804060
0.10900001 945542.51538167 15601.45223809
0.11000001 935720.40397282 15579.74545948
0.11100001 925920.60451751 15555.46688814
0.11200001 916144.67386986 17081.51824845
0.11300001 906393.90038913 20149.13735429
0.11400001 896670.87808296 15467.57337521
0.11500001 886977.44708470 21606.77162840
0.11600001 877314.45817813 18476.24335931
0.11700001 867684.49690762 29180.23100524
0.11800001 858087.14771497 26038.65572379
0.11900001 848525.22565845 18328.14573751
0.12000001 838999.64053596 19796.19745094
0.12100001 829515.21518345 16698.14206826
0.12200001 820070.00534808 25721.49692952
0.12300001 810667.00328356 16586.24766863
0.12400001 801305.93943564 16526.93577957
0.12500001 791989.29503001 22452.89757209
0.12600001 782719.96190118 17892.97917224
0.12700001 773497.23937683 17821.37723510
0.12800001 764322.55260596 20705.49892593
0.12900001 755198.44912191 14726.37045196
0.13000001 746125.66789159 26390.46611724
0.13100001 737104.07974172 17513.59376021
0.13200001 728136.84820724 14526.33080651
0.13300001 719224.12648816 20238.96787350
0.13400001 710366.92644000 15823.42403246
0.13500001 701566.96969853 15743.16354230
0.13600001 692824.76529386 19932.56943734
0.13700001 684142.05620426 18410.26360056
0.13800001 675517.34918507 16901.44487361
0.13900001 666955.17379550 15406.66524123
0.14000001 658453.55524034 16711.55202013
0.14100001 650016.04698582 22152.54792606
0.14200001 641641.37627387 15139.52898724
0.14300001 633332.03117521 13679.97251864
0.14400001 625084.88621865 14955.15660821
0.14500001 616906.14053999 18914.34316119
0.14600001 608793.25963386 21478.22721310
0.14700001 600749.06275307 17337.61876898
0.14800001 592770.30837803 18547.78382421
0.14900001 584861.28446994 14475.31747359
0.15000001 577020.83010909 14376.47466049
0.15100001 569250.33061858 14276.79896556
0.15200001 561550.94539434 12887.59480493
0.15300001 553922.07959558 17913.84089946
0.15400001 546362.55096850 15243.51589138
0.15500001 538876.42186887 15131.65064019
0.15600001 531460.39927064 18773.83949027
0.15700001 524119.62850753 12421.63578189
0.15800001 516848.26477043 16024.88120556
0.15900001 509652.15491530 13454.81752484
0.16000001 502526.92585641 14563.23099874
0.16100001 495477.47690404 12040.10325711
0.16200001 488501.14467189 14332.62426126
0.16300001 481598.39470136 17770.98160341
0.16400001 474770.20319531 18800.90093412
0.16500001 468015.25995902 15149.65468011
0.16600001 461335.39370729 19645.96866857
0.16700001 454728.81111827 14896.91655559
0.16800001 448196.98070779 22723.58799481
0.16900001 441740.88182374 15770.15022574
0.17000001 435357.32846758 13400.29920299
0.17100001 429049.00295912 21031.98311821
0.17200001 422814.76653113 14263.65682250
0.17300001 416654.74995555 15224.56528235
0.17400001 410569.64874248 11855.19916731
0.17500001 404557.30087437 10680.31324749
0.17600001 398617.82895484 12699.96463031
0.17700001 392754.89291123 13632.52297682
0.17800001 386963.52901744 16623.95399177
0.17900001 381245.01151325 15440.42369559
0.18000001 375600.73687467 10197.56048783
0.18100001 370029.65425297 12122.17204594
0.18200001 364529.02438156 11006.95441115
0.18300001 359101.11649467 11893.42954014
0.18400001 353744.95753948 17669.56146382
0.18500001 348460.77579213 11666.46732467
0.18600001 343247.84864967 9628.10260949
0.18700001 338104.82833496 13348.37925331
0.18800001 333030.84747282 12273.85246350
0.18900001 328030.17999017 10283.74662857
0.19000001 323094.72341597 10182.33068956
0.19100001 318231.28153789 12831.08587788
0.19200001 313434.35896334 10888.71014489
0.19300001 308707.58397109 9881.73022985
0.19400001 304046.56296046 9782.69862552
0.19500001 299453.35383123 13205.89352800
0.19600001 294925.48986042 8715.04863722
0.19700001 290465.45711702 10352.18938087
0.19800001 286069.63720819 10247.01488906
0.19900001 281739.13026771 9297.39173823
0.20000001 277471.23679126 12548.63727695
0.20100001 273268.85429530 15732.08868532
0.20200001 269128.29040087 9014.45251303
0.20300001 265050.77380618 10543.72028035
0.20400001 261035.39249436 10434.89030818
0.20500001 257080.46182992 11121.30130443
0.20600001 253185.97885614 10219.85251960
0.20700001 249351.76734469 8557.75305979
0.20800001 245576.46671517 10778.35163362
0.20900001 241862.06640190 8380.52099698
0.21000001 238202.84676613 9046.94454785
0.21100001 234602.28456917 8206.38830217
0.21200001 231057.47806926 8858.74412797
0.21300001 227568.43877561 8035.44195305
0.21400001 224135.34343543 9396.87471778
0.21500001 220757.56061479 9298.30889270
0.21600001 217432.27355368 8492.90500654
0.21700001 214160.93158021 8403.67535253
0.21800001 210942.02340802 7622.39037624
0.21900001 207774.27508696 8913.51682268
0.22000001 204657.08501297 6784.38268896
0.22100001 201591.86877034 7384.31050221
0.22200001 198575.91208582 6642.36457335
0.22300001 195608.26956799 7886.92580192
0.22400001 192688.62755344 6503.24148744
0.22500001 189818.50357590 13513.17990857
0.22600001 186993.53229255 7003.84308322
0.22700001 184215.68267297 8820.24730348
0.22800001 181482.56362608 6233.92635536
0.22900001 178794.01444945 7402.07254826
0.23000001 176150.04944371 6713.95945206
0.23100001 173550.63938463 6039.56253621
0.23200001 170992.08551249 7171.40840556
0.23300001 168476.79994294 7096.24314921
0.23400001 166001.71519817 8777.34110623
0.23500001 163567.32080628 7527.36845952
0.23600001 161173.23079142 8021.59207589
0.23700001 158818.58689393 6236.80620231
0.23800001 156502.27434203 5610.60680054
0.23900001 154224.06797975 6107.27338087
0.24000001 151982.61538304 7142.42334777
0.24100001 149778.92402290 7068.06775897
0.24200001 147611.28659932 8070.64747658
0.24300001 145478.32393918 5324.50690804
0.24400001 143380.13475490 6849.98626194
0.24500001 141315.76105839 6257.46219567
0.24600001 139284.93032991 7224.70967798
0.24700001 137287.78092340 6639.23739953
0.24800001 135322.43841407 5054.29331387
0.24900001 133387.73933005 5502.24450766
0.25000001 131485.22822703 5445.46098464
0.25100001 129612.46782078 5879.22181849
0.25200001 127771.49522987 4848.92847337
0.25300001 125958.13020475 7198.50748177
0.25400001 124174.68524172 7124.52290281
0.25500001 122417.81067315 7051.26622838
0.25600001 120690.18147609 7444.17074565
0.25700001 118988.53218349 6446.79897872
0.25800001 117313.74545834 5469.16707204
0.25900001 115666.01042552 7668.65685405
0.26000001 114042.83063998 5357.73243697
0.26100001 112444.44665032 6628.60044368
0.26200001 110871.90697375 5686.06601820
0.26300001 109321.99156209 5194.98128484
0.26400001 107796.77606351 4284.92205128
0.26500001 106294.61223537 4241.15522888
0.26600001 104814.69778376 5037.39461385
0.26700001 103357.33176566 5816.95090703
0.26800001 101922.11808158 6580.09225472
0.26900001 100507.54634642 5291.72256555
0.27000001 99114.52657036  5237.70740447
0.27100001 97741.68660943  3987.86100238
0.27200001 96389.77055446  4736.59354920
0.27300001 95057.36362597  4688.22939590
0.27400001 93742.97697708  5800.34697496
0.27500001 92449.65713847  5741.12398000
0.27600001 91172.73031052  4924.69526079
0.27700001 89916.06097106  4124.44991194
0.27800001 88676.09313858  4453.31360818
0.27900001 87454.20612590  5142.30756358
0.28000001 86249.15366697  6543.72359842
0.28100001 85061.20298717  3598.08905665
0.28200001 83890.59063461  5697.84918558
0.28300001 82735.77215598  3524.54406066
0.28400001 81596.44166238  4185.89765540
0.28500001 80473.49056852  4488.00678143
0.28600001 79365.67648225  5125.03880142
0.28700001 78273.74477639  4057.71112127
0.28800001 77195.12113478  5354.25385534
0.28900001 76133.00554306  3642.96448767
0.29000001 75084.40703309  3605.17797434
0.29100001 74050.58535775  3567.75737142
0.29200001 73030.24957396  4814.51943106
0.29300001 72024.02643573  3811.51165940
0.29400001 71030.52077715  4086.03090112
0.29500001 70051.72457080  4665.44507726
0.29600001 69084.52832612  4001.03064741
0.29700001 68130.97290510  4263.63648623
0.29800001 67190.25905421  3616.17991348
0.29900001 66262.43921894  3578.17188721
0.30000001 65345.91149425  2950.36804363
0.30100001 64442.79913649  3795.03662081
0.30200001 63550.58198514  4332.56113194
0.30300001 62671.20773014  4286.71081168
0.30400001 61803.23233424  3675.74741710
0.30500001 60947.42764620  2797.48706140
0.30600001 60101.66507350  3874.75453073
0.30700001 59268.23922952  3285.83133845
0.30800001 58445.86981395  3250.75943295
0.30900001 57634.59482294  4288.01405784
0.31000001 56834.43524400  3181.59183559
0.31100001 56044.54205918  3934.32703883
0.31200001 55266.37240441  2854.23193796
0.31300001 54497.92156355  3336.90789533
0.31400001 53741.42012902  3301.06688772
0.31500001 52993.95155561  3265.48744947
0.31600002 52258.23240966  4224.29441684
0.31700002 51532.01861046  3441.30836575
0.31800002 50815.71978926  2674.68553775
0.31900002 50110.31268086  2405.29512257
0.32000002 49415.28445736  2617.28066521
0.32100002 48729.56389806  3059.72946204
0.32200002 48054.78741990  2561.08001681
0.32300002 47388.44091166  2533.38617110
0.32400002 46733.06087817  2278.23682569
0.32500002 46086.94226008  2929.74705820
0.32600002 45450.79957767  2675.23418982
0.32700002 44824.43072253  3087.50693437
0.32800002 44208.56207172  2399.86190570
0.32900002 43600.30971511  3021.50160634
0.33000002 43003.03900114  2348.61108626
0.33100002 42414.09466567  2323.44421581
0.33200002 41836.31342563  2925.61353640
0.33300002 41266.93898931  2480.96848952
0.33400002 40707.65324432  2045.55967240
0.33500002 40157.31850610  3238.28631768
0.33600002 39615.88191060  2202.84121796
0.33700002 39083.75944932  1981.54669792
0.33800002 38561.82127114  3137.38992720
0.33900002 38048.18858952  2134.50348096
0.34000002 37543.75276728  2112.39934949
0.34100002 37048.85883944  2470.78851302
0.34200002 36563.56788988  2069.31522273
0.34300002 36086.69286793  2420.69547222
0.34400002 35619.55106207  2211.97422571
0.34500002 35161.14305416  2189.83609312
0.34600002 34712.28834542  2168.12963274
0.34700002 34271.15665415  1967.84990828
0.34800002 33840.00436917  2125.82917515
0.34900002 33417.22590041  2280.72577572
0.35000002 33003.80293649  1911.41533760
0.35100002 32599.79869620  2581.90417902
0.35200002 32203.10950528  1875.67020197
0.35300002 31816.48603630  2027.34658625
0.35400002 31437.92402588  1674.06953367
0.35500002 31068.61452871  2156.78332274
0.35600002 30707.49395913  2137.70229322
0.35700002 30354.97531705  2119.08092725
0.35800002 30011.36668723  1939.33460719
0.35900002 29676.85598143  2403.82544835
0.36000002 29350.55155149  1748.26568597
0.36100002 29032.20167649  1891.73835084
0.36200002 28723.69869046  1876.80656133
0.36300002 28422.28347245  1862.22810132
0.36400002 28129.79498890  2002.13825317
0.36500002 27844.87412008  1834.42039392
0.36600002 27569.05146724  2276.51453274
0.36700002 27300.94888875  1657.71369505
0.36800002 27041.76774509  2245.14287339
0.36900002 26790.47279954  1784.24557297
0.37000002 26546.55418163  1772.77897222
0.37100002 26310.74688185  2789.46551655
0.37200002 26083.39298977  2043.11226967
0.37300002 25863.75656310  2031.33953669
0.37400002 25651.75089755  1587.20216197
0.37500002 25447.65867707  1722.29762085
0.37600002 25251.45483631  1713.56380637
0.37700002 25062.63826816  1563.15682283
0.37800002 24881.33083543  2121.75558750
0.37900002 24708.31413771  1549.21136982
0.38000002 24541.87641119  1542.82513368
0.38100002 24382.21831024  1397.10117536
0.38200002 24230.98254014  1670.48401545
0.38300002 24086.14571367  1526.09826472
0.38400002 23948.73933881  2074.55964350
0.38500002 23817.88608976  2206.48907189
0.38600002 23694.75746474  1788.12495679
0.38700002 23577.75659056  1646.67059830
0.38800002 23467.41137918  1506.25587073
0.38900002 23363.83875882  1776.82002179
0.39000002 23267.39609461  1637.55941472
0.39100002 23176.59111579  1499.06198439
0.39200002 23092.79116333  1769.71613464
0.39300002 23014.71007599  1768.22025891
0.39400002 22944.00839809  1631.31907439
0.39500002 22878.13921930  1494.85768741
0.39600002 22818.53601331  1766.49704916
0.39700002 22764.18505130  1630.82629434
0.39800002 22716.81001305  1495.56125807
0.39900002 22673.98475591  1768.57089475
0.40000002 22637.30336238  1633.96063411
0.40100002 22605.51743234  1499.42404233
0.40200002 22579.65021740  1774.42189641
0.40300002 22558.69140145  1777.17379281
0.40400002 22542.94143373  1917.27725978
0.40500002 22531.67136531  1509.39673628
0.40600002 22526.24150901  1512.74982021
0.40700002 22525.06901763  1378.53428920
0.40800002 22528.24045079  1520.31837886
0.40900002 22535.75871754  2078.92384020
0.41000002 22548.41910437  1529.12111402
0.41100002 22564.97442621  1812.87013130
0.41200002 22584.89812201  1678.96140594
0.41300002 22610.27798157  1404.09832919
0.41400002 22638.69075477  1550.18442289
0.41500002 22670.98030667  1556.13616198
0.41600002 22706.02797137  1562.28832860
0.41700002 22746.03732198  1711.41192920
0.41800002 22789.84750514  1575.57618193
0.41900002 22835.09785179  1726.33347940
0.42000002 22884.19096637  1734.16407360
0.42100002 22937.15304012  2177.88278436
0.42200002 22992.48423389  2042.42247128
0.42300002 23050.32378970  1759.20079499
0.42400002 23110.83855012  2062.64243834
0.42500002 23174.46785360  1480.84856602
0.42600002 23239.18462484  2232.70476863
0.42700002 23307.57000468  1795.61527825
0.42800002 23377.25909826  1504.32669426
0.42900002 23450.03897637  2268.79137848
0.43000002 23524.50084236  1825.03086183
0.43100002 23599.34144529  1682.16113793
0.43200002 23677.15002707  1999.18025727
0.43300002 23755.80675889  1855.80371195
0.43400002 23836.48197200  1710.86357461
0.43500002 23917.90341597  1720.65405328
0.43600002 24001.23131149  1573.28078702
0.43700002 24085.02266744  1898.86327709
0.43800002 24169.33397862  2069.01593329
0.43900002 24255.49439479  1921.03524710
0.44000002 24341.73783726  1932.24724109
0.44100002 24428.96263728  1781.60432957
0.44200002 24516.56020308  1954.95060324
0.44300002 24604.71006016  2130.27589796
0.44400002 24692.90728201  1977.90196702
0.44500002 24780.90924845  2486.76436093
0.44600002 24868.86419126  2000.94890766
0.44700002 24957.84401126  1844.88391674
0.44800002 25045.51694585  2361.54190474
0.44900002 25133.70798548  1866.17790636
0.45000002 25221.73098079  2218.12523623
0.45100002 25308.40171474  2573.86457637
0.45200002 25395.07402759  3278.63118772
0.45300002 25480.69437776  2602.85305404
0.45400002 25565.73262350  1744.86133425
0.45500002 25650.42705544  2105.38715249
0.45600002 25733.58873684  2646.05638727
0.45700002 25816.16502314  2128.28474538
0.45800002 25897.24597019  2139.63056346
0.45900002 25977.05994769  2509.38410988
0.46000002 26056.15383866  2342.31806034
0.46100002 26133.09797035  2354.33090773
0.46200002 26209.16353109  2184.27179220
0.46300002 26283.79536070  2378.15791695
0.46400002 26356.13143026  2573.67635614
0.46500002 26427.93055166  2216.77491974
0.46600002 26497.00519544  1856.11530191
0.46700002 26564.31145081  1864.81475223
0.46800002 26630.54798158  2997.53462288
0.46900002 26693.97700357  2070.11801474
0.47000002 26755.75830766  2079.32385543
0.47100002 26815.63653480  1898.54715665
0.47200002 26873.50057810  2288.00994766
0.47300002 26929.10038783  2106.12504116
0.47400002 26981.84423207  3075.93038825
0.47500002 27032.84685074  3088.23257060
0.47600002 27082.12035907  2519.04354460
0.47700002 27127.97313095  2139.58334225
