# SAXS profile: number of points = 501, q_min = 0, q_max = 0.5, delta_q = 0.001
#    q    intensity    error
0.00000000 1719190.39626458 335.24212727
0.00100000 1719106.84344926 567.30527181
0.00200000 1718856.13062713 773.48528327
0.00300000 1718438.48785807 1237.27575533
0.00400000 1717853.76751755 1932.58556189
0.00500000 1717102.50594192 1699.93154817
0.00600000 1716184.60243505 1982.19329651
0.00700000 1715100.61552569 2058.12082417
0.00800000 1713850.38982596 2776.43774874
0.00900000 1712435.13261288 3339.24865134
0.01000000 1710854.28148684 3105.20065498
0.01100000 1709109.05848723 5537.51359060
0.01200000 1707199.45622443 3661.94299415
0.01300000 1705126.61825571 5371.14908440
0.01400000 1702890.59123872 4980.95520018
0.01500000 1700492.75380007 5713.65590719
0.01600000 1697932.51316933 4762.70091235
0.01700000 1695212.25377567 6865.60993577
0.01800000 1692331.93117858 5305.46084298
0.01900000 1689292.08973437 9122.17769618
0.02000000 1686094.01615695 7966.79458672
0.02100000 1682739.80621635 6663.64993474
0.02200000 1679227.82604098 7531.33714196
0.02300000 1675561.43663794 8444.83002505
0.02400000 1671740.27297692 6269.02630952
0.02500000 1667766.92123026 9106.00780579
0.02600000 1663641.17573345 10780.39531183
0.02700000 1659365.27191720 7666.26790738
0.02800000 1654939.10139982 10078.57958972
0.02900000 1650365.49981976 11139.96763527
0.03000000 1645645.34670342 9182.70145669
0.03100000 1640779.23011657 8663.31473364
0.03200000 1635768.87519739 8906.76193568
0.03300000 1630617.80431900 8316.15118541
0.03400000 1625324.02182469 12799.42726244
0.03500000 1619891.16540803 9622.15396686
0.03600000 1614320.41668506 12543.27021731
0.03700000 1608613.53781140 11002.91710749
0.03800000 1602772.13297448 12189.08263538
0.03900000 1596798.14880832 10538.86827019
0.04000000 1590691.53958403 12717.57944829
0.04100000 1584456.73006853 10980.28564849
0.04200000 1578093.95481163 10178.70648075
0.04300000 1571604.61815641 12447.10915357
0.04400000 1564991.93229669 11620.06563696
0.04500000 1558257.47232637 13977.57017623
0.04600000 1551401.12901256 13124.85416158
0.04700000 1544427.54729489 13343.85462922
0.04800000 1537336.94393090 14689.25518272
0.04900000 1530133.14240846 17213.99865336
0.05000000 1522815.63682356 13979.44819701
0.05100000 1515389.33594249 17730.05605646
0.05200000 1507852.29938576 15583.65424037
0.05300000 1500210.97782237 18227.56423027
0.05400000 1492464.68834232 13544.11767832
0.05500000 1484616.65805537 17459.09271319
0.05600000 1476667.84483806 15150.61279503
0.05700000 1468623.30226008 16610.13032390
0.05800000 1460481.76338046 15510.31705131
0.05900000 1452246.38064563 18298.30525077
0.06000000 1443921.02091646 15854.25355035
0.06100000 1435506.65367218 17355.27625393
0.06200000 1427005.60551492 14833.72396271
0.06300000 1418420.87733656 14978.52516500
0.06400000 1409751.89180893 15119.58974674
0.06500000 1401004.49198967 15256.93963145
0.06600000 1392179.27215446 13991.40233979
0.06700000 1383278.88104293 19753.22334572
0.06800000 1374305.44200988 17068.87438874
0.06900000 1365262.10146808 17202.30328389
0.07000000 1356149.53531808 18775.89119573
0.07100000 1346970.92787798 18911.47271318
0.07200000 1337728.54907094 19042.56678811
0.07300000 1328425.58738995 19169.18212422
0.07400000 1319064.31989688 16323.42172371
0.07500000 1309645.90024981 23887.94234024
0.07600000 1300171.48245902 15016.98132641
0.07700000 1290647.44937717 21140.80621206
0.07800000 1281073.19885305 22771.07717749
0.07900000 1271450.85387989 16783.15205841
0.08000000 1261784.91421637 18396.82491229
0.08100000 1252076.17287584 16940.59141383
0.08200000 1242326.63477182 20107.05752731
0.08300000 1232539.34205541 15529.99643875
0.08400000 1222716.72284359 17148.60284281
0.08500000 1212860.29825158 29727.20730569
0.08600000 1202972.88125622 18838.55620497
0.08700000 1193058.20778781 18898.04289877
0.08800000 1183115.56525691 18953.51224554
0.08900000 1173149.75990135 19005.02700306
0.09000000 1163161.80352031 23815.73904583
0.09100000 1153153.78546808 20687.57988322
0.09200000 1143128.21704251 23919.95906554
0.09300000 1133089.22302630 23964.83819317
0.09400000 1123034.65757214 19203.89354702
0.09500000 1112969.85305068 16026.76663723
0.09600000 1102896.12652337 25675.42303241
0.09700000 1092818.29210534 22490.20150885
0.09800000 1082735.00718677 17686.47717397
0.09900000 1072650.38893572 20916.68356780
0.10000000 1062564.53012657 22536.99474384
0.10100000 1052480.03951307 20933.82897047
0.10200000 1042400.15002157 20936.60799796
0.10300000 1032325.71070495 16104.28184455
0.10400000 1022260.66076903 22540.84863039
0.10500000 1012206.68340123 17703.49572563
0.10600001 1002161.22420409 22518.56376744
0.10700001 992132.81924728 27323.33912784
0.10800001 982118.74168047 19269.17061861
0.10900001 972123.54103442 19248.04701840
0.11000001 962147.35056321 16019.75414092
0.11100001 952193.03915336 19196.21257296
0.11200001 942261.58973106 19165.60163739
0.11300001 932355.30825942 17537.60417404
0.11400001 922476.05060545 19095.25514662
0.11500001 912626.33916148 22231.57866881
0.11600001 902806.04841336 19013.09627494
0.11700001 893019.13949143 17387.08346474
0.11800001 883263.86850732 17342.88687496
0.11900001 873543.81921464 25158.06317837
0.12000001 863859.90833180 15679.05807478
0.12100001 854217.10086187 17195.39105039
0.12200001 844612.68023487 20258.03608982
0.12300001 835051.09823939 18638.34139084
0.12400001 825530.32316117 17026.56371745
0.12500001 816054.06059852 24677.47595531
0.12600001 806625.07095015 21512.69165599
0.12700001 797242.18877126 18368.46089493
0.12800001 787907.32172710 15246.00739395
0.12900001 778623.02804188 16701.46473867
0.13000001 769389.75521994 18142.21128322
0.13100001 760207.30586616 24083.36858507
0.13200001 751079.90691942 16482.44933433
0.13300001 742006.55432742 23862.93191214
0.13400001 732988.27864484 16327.31467658
0.13500001 724027.81478230 22155.25217692
0.13600001 715124.58288442 19104.55413255
0.13700001 706281.01878559 20468.02488954
0.13800001 697495.15800484 17451.32967621
0.13900001 688772.77370322 14464.22892987
0.14000001 680110.36227894 20138.06877680
0.14100001 671512.40005736 15733.53627538
0.14200001 662977.09715856 19909.20316670
0.14300001 654507.58543552 18378.57386590
0.14400001 646099.86201847 14052.67266176
0.14500001 637761.32836058 19553.76324993
0.14600001 629488.23372496 15268.23782927
0.14700001 621284.36046150 20688.77017939
0.14800001 613146.27375955 16444.58383806
0.14900001 605077.64515730 17698.52195588
0.15000001 597077.88676787 16228.57772806
0.15100001 589148.82298205 14775.85317759
0.15200001 581290.61171232 13340.62016830
0.15300001 573503.70097157 15897.52334112
0.15400001 565785.75232621 18416.32710730
0.15500001 558141.67255101 16978.67048028
0.15600001 550568.37694071 16855.65165554
0.15700001 543070.48856156 16732.00254228
0.15800001 535642.19795071 12775.06702409
0.15900001 528289.78572142 13946.85100135
0.16000001 521008.46048014 16357.06138887
0.16100001 513803.26825278 18728.13001186
0.16200001 506671.64357003 13626.93449709
0.16300001 499613.93746254 14748.60413014
0.16400001 492631.29028689 12192.62501021
0.16500001 485722.54511577 14513.39033326
0.16600001 478889.62350507 11996.18563518
0.16700001 472129.63301187 11897.66731364
0.16800001 465444.97165381 11799.03058853
0.16900001 458837.26486476 15210.45604847
0.17000001 452302.48513078 16242.18300800
0.17100001 445843.14671755 13803.30447419
0.17200001 439458.02856185 18246.29820753
0.17300001 433148.61680546 18088.28709201
0.17400001 426913.87711215 11206.48980343
0.17500001 420752.76716010 15551.02300867
0.17600001 414665.13535079 11009.35986353
0.17700001 408654.69987004 15275.51340261
0.17800001 402716.29951589 11894.22646799
0.17900001 396851.14972595 10714.98154871
0.18000001 391061.76299989 12740.79284035
0.18100001 385345.60645849 10519.93555324
0.18200001 379700.27291473 12507.32758063
0.18300001 374128.81978151 13423.74268789
0.18400001 368629.45122301 12275.36130562
0.18500001 363202.96451284 12160.03582636
0.18600001 357848.38040100 13048.94180780
0.18700001 352564.01916285 11930.76697214
0.18800001 347349.54887438 11816.83221101
0.18900001 342209.32824600 15604.74610530
0.19000001 337135.11515262 9658.92150549
0.19100001 332133.49204076 10521.98952502
0.19200001 327199.12243546 13261.38105893
0.19300001 322335.89939980 10317.97262734
0.19400001 317538.85381968 13003.21667837
0.19500001 312810.68609215 9196.63460570
0.19600001 308148.27336966 9105.78190838
0.19700001 303554.85529701 13523.36944256
0.19800001 299026.10774853 11603.70865956
0.19900001 294563.53207275 8836.90637981
0.20000001 290164.48819912 9623.30570593
0.20100001 285831.93338878 9526.77879011
0.20200001 281561.43899287 12002.96471157
0.20300001 277355.35887196 9335.78182088
0.20400001 273211.92407787 15122.28071248
0.20500001 269129.82039677 9147.72302767
0.20600001 265109.23809033 9877.97067816
0.20700001 261149.47761540 9777.43690409
0.20800001 257249.46849755 12097.15682793
0.20900001 253411.45702921 8780.70740114
0.21000001 249629.24588335 10270.99580740
0.21100001 245906.74811092 9383.80195152
0.21200001 242240.68144331 8513.54915180
0.21300001 238631.44124758 8426.07658880
0.21400001 235078.93442005 12888.20318889
0.21500001 231582.46365792 9003.92661270
0.21600001 228139.55895003 8168.53729440
0.21700001 224751.34339365 7349.36927645
0.21800001 221416.64925323 11637.65963499
0.21900001 218133.50949806 7198.40615379
0.22000001 214902.27342045 10686.01605109
0.22100001 211723.62405538 9165.51611874
0.22200001 208595.53892698 9768.52954985
0.22300001 205516.49275750 10358.03172476
0.22400001 202485.94245316 8884.07114523
0.22500001 199506.30429251 8115.91684240
0.22600001 196572.38740127 8031.94812903
0.22700001 193686.73920797 7948.90415299
0.22800001 190846.49804547 9177.80852503
0.22900001 188052.02017689 7136.57450321
0.23000001 185302.78215833 8989.03838761
0.23100001 182599.11919381 7625.33957816
0.23200001 179937.26770358 7546.56936439
0.23300001 177319.52545923 6846.30720177
0.23400001 174742.47209721 6775.63967603
0.23500001 172207.72295795 6705.76904914
0.23600001 169713.93012347 6033.33050125
0.23700001 167260.09755212 5971.18576503
0.23800001 164845.75699881 7682.63686831
0.23900001 162470.54019299 8773.40958540
0.24000001 160132.89212032 6946.56518875
0.24100001 157834.01662297 6302.31258186
0.24200001 155571.83687703 6804.71246688
0.24300001 153345.52814818 5612.44659571
0.24400001 151154.62515860 7221.41255855
0.24500001 148998.40054935 6047.84536439
0.24600001 146876.69353679 5441.78175296
0.24700001 144789.91633429 5386.18514243
0.24800001 142735.42827973 6930.51904798
0.24900001 140712.26694831 6332.05231223
0.25000001 138722.57754047 5222.90529149
0.25100001 136763.35092914 6720.55138260
0.25200001 134837.03918069 7163.89223059
0.25300001 132938.74966883 9116.93988362
0.25400001 131071.68284852 6016.19052738
0.25500001 129231.51537766 5458.73946782
0.25600001 127421.86513300 5403.32444661
0.25700001 125639.24375123 5834.68675587
0.25800001 123883.83584069 7219.33087519
0.25900001 122156.65376479 4764.10972224
0.26000001 120454.67327822 7545.28109116
0.26100001 118778.72953290 5134.80472067
0.26200001 117128.87086220 4620.73417415
0.26300001 115503.00653238 5031.31120262
0.26400001 113902.33338801 5885.90335634
0.26500001 112325.70497603 5826.33459280
0.26600001 110772.03546150 7985.55641429
0.26700001 109241.75166273 5269.82234958
0.26800001 107734.56703461 5216.50798267
0.26900001 106248.67131965 5593.99280970
0.27000001 104785.13517573 4259.51594646
0.27100001 103342.73462919 5059.66052688
0.27200001 101921.81162954 5008.43806049
0.27300001 100521.53219794 4957.72220262
0.27400001 99139.59349028  4498.45926751
0.27500001 97779.89536134  4452.89664549
0.27600001 96437.48037738  6010.46624897
0.27700001 95115.79346793  3966.32877533
0.27800001 93811.57865084  3926.01475234
0.27900001 92526.16190574  4663.31878075
0.28000001 91258.32829094  7308.42356708
0.28100001 90008.32725853  4188.08766556
0.28200001 88776.45752925  4522.27296058
0.28300001 87561.25340079  4849.14244285
0.28400001 86362.09230735  5168.77146924
0.28500001 85180.17373753  5115.92147682
0.28600001 84014.00582427  5425.20468289
0.28700001 82864.57297611  3937.72469421
0.28800001 81728.85328479  3897.24055335
0.28900001 80610.74306699  4909.19448515
0.29000001 79506.56522739  6246.83112561
0.29100001 78417.74099203  4121.63666164
0.29200001 77343.24143557  4079.08274640
0.29300001 76283.56612675  5718.97922324
0.29400001 75237.29363766  3662.17544117
0.29500001 74206.17608191  3294.75437400
0.29600001 73187.56638233  3260.50623668
0.29700001 72183.03630995  3226.58187579
0.29800001 71192.13157790  3831.56070290
0.29900001 70214.70739173  3475.62818042
0.30000001 69249.19752397  3439.26155784
0.30100001 68297.73099118  3093.88736037
0.30200001 67357.70813665  3367.54877771
0.30300001 66431.26507406  3332.19241386
0.30400001 65516.71305534  3896.60669344
0.30500001 64614.97134979  3262.41005790
0.30600001 63723.77389294  2934.47992670
0.30700001 62845.57042853  2903.46549126
0.30800001 61979.02623831  3160.00080237
0.30900001 61124.25713882  3126.50590067
0.31000001 60281.09864048  3655.74740013
0.31100001 59448.61745447  3060.41497145
0.31200001 58628.34984408  3027.86127105
0.31300001 57818.42983149  3540.22262620
0.31400001 57021.12061959  4041.37211526
0.31500001 56233.01643574  3198.53412631
0.31600002 55457.56890345  3428.10978408
0.31700002 54692.05061188  2869.69203148
0.31800002 53936.90715515  4387.49792028
0.31900002 53193.15751824  2553.27168177
0.32000002 52460.50503077  2525.97343684
0.32100002 51737.29756557  2748.80274981
0.32200002 51025.62781604  3213.84932017
0.32300002 50322.99954148  2690.26768287
0.32400002 49631.90567387  2419.55551617
0.32500002 48950.16003108  3111.76182052
0.32600002 48278.89938689  3078.50416518
0.32700002 47618.03414692  2342.80739097
0.32800002 46968.03712405  2549.66001601
0.32900002 46326.24503247  3210.40893277
0.33000002 45695.58106929  2495.66427828
0.33100002 45073.82968944  2244.67682483
0.33200002 44463.61998247  3331.43688495
0.33300002 43862.29172580  2417.25101148
0.33400002 43271.19209948  2391.81525656
0.33500002 42689.80536270  3442.50606747
0.33600002 42117.65499214  3619.38085315
0.33700002 41555.10843032  2528.21291663
0.33800002 41003.03367772  2502.00523350
0.33900002 40459.80462089  2269.79514672
0.34000002 39926.14744768  2654.88930026
0.34100002 39402.43131628  2425.61378670
0.34200002 38888.51677647  3201.30285265
0.34300002 38383.26975871  2178.63449468
0.34400002 37888.20369278  2352.85756075
0.34500002 37402.32372012  2329.41683161
0.34600002 36926.41023922  2498.62566717
0.34700002 36458.26455624  2854.68224995
0.34800002 36000.70825773  2638.49203317
0.34900002 35551.64415519  2986.33825047
0.35000002 35112.36826352  2033.53290429
0.35100002 34682.72057983  2197.49728002
0.35200002 34260.66050714  1814.10205977
0.35300002 33849.09328199  3235.29648913
0.35400002 33445.60160120  2137.17404354
0.35500002 33051.77881577  2470.95110130
0.35600002 32666.67308377  2798.88068238
0.35700002 32290.08303876  2254.17080370
0.35800002 31923.09734000  1890.96476050
0.35900002 31565.17545374  2386.32737733
0.36000002 31215.79582446  1859.36896635
0.36100002 30874.59679877  1676.49068558
0.36200002 30543.64323779  2328.34203430
0.36300002 30219.81111039  1980.00211774
0.36400002 29905.15135001  2292.22995955
0.36500002 29598.50688081  1949.94972567
0.36600002 29301.00667118  2096.92664175
0.36700002 29011.48354669  1601.43396763
0.36800002 28731.14373068  1749.29576890
0.36900002 28458.78526278  1895.35518828
0.37000002 28194.10952265  2510.40363081
0.37100002 27937.79640309  1558.92911314
0.37200002 27690.24452708  1859.12310561
0.37300002 27450.36991218  2001.95557253
0.37400002 27218.49137637  1684.14423369
0.37500002 26994.63349383  1826.99688141
0.37600002 26778.88507672  1817.21522739
0.37700002 26570.78020765  2259.84496371
0.37800002 26370.08380308  2248.70900283
0.37900002 26178.21220984  1641.37398331
0.38000002 25992.92213717  1782.59468461
0.38100002 25814.55438767  2070.84365108
0.38200002 25644.86329852  1915.28670618
0.38300002 25481.86614098  2054.85778296
0.38400002 25326.28517593  1755.11164584
0.38500002 25177.39763807  2040.87994923
0.38600002 25036.51308070  1744.04358382
0.38700002 24901.76900022  2028.99623426
0.38800002 24773.81591932  2023.77311833
0.38900002 24652.80783663  2595.94078818
0.39000002 24539.18823242  2158.83518702
0.39100002 24431.12903700  1723.86054652
0.39200002 24330.61324160  1577.71869040
0.39300002 24235.60005657  2005.25364368
0.39400002 24148.28200986  2003.10008762
0.39500002 24065.62534519  2144.24731985
0.39600002 23989.60259718  1714.29708281
0.39700002 23918.93715817  1570.75667760
0.39800002 23855.46463836  1570.52458888
0.39900002 23796.53291137  1570.57124656
0.40000002 23743.86048501  1571.01260342
0.40100002 23696.16005516  2000.42992664
0.40200002 23654.49297639  1572.90558499
0.40300002 23617.93953605  1574.37192407
0.40400002 23586.64938060  1862.75572309
0.40500002 23560.10499848  2439.17778606
0.40600002 23539.27075796  1437.07254786
0.40700002 23522.91629294  1583.56279987
0.40800002 23510.86159146  1875.10885507
0.40900002 23503.45326927  1590.00868900
0.41000002 23501.25260146  2607.93412475
0.41100002 23503.09725154  1597.74062686
0.41200002 23508.15479164  1601.96328418
0.41300002 23518.97726827  2336.84569210
0.41400002 23532.79140475  1611.40796779
0.41500002 23550.56562202  1616.51090089
0.41600002 23571.14444640  2064.12521698
0.41700002 23596.88584184  1627.47729363
0.41800002 23626.62187210  2078.90655703
0.41900002 23657.67208812  2533.73680070
0.42000002 23692.68031847  1645.81211631
0.42100002 23731.89838809  1952.89801089
0.42200002 23773.19041304  1659.24990350
0.42300002 23817.30425145  1514.78062217
0.42400002 23864.03564089  1825.59881304
0.42500002 23914.08225958  2139.35390032
0.42600002 23965.32635165  1841.97507067
0.42700002 24020.00464761  1696.29280860
0.42800002 24076.30803938  1859.17259490
0.42900002 24135.80493951  2179.46328932
0.43000002 24197.09061986  1720.77618097
0.43100002 24258.66143012  2043.54973571
0.43200002 24323.22740906  2053.73180361
0.43300002 24388.94228678  2064.03628354
0.43400002 24456.61322701  2074.53231529
0.43500002 24525.15561282  2085.12882901
0.43600002 24595.60156895  1934.69011110
0.43700002 24666.55613507  1944.71137785
0.43800002 24738.23505632  1791.91414122
0.43900002 24811.78612023  1801.33575769
0.44000002 24885.44064407  2140.02356960
0.44100002 24960.12042462  1985.82727509
0.44200002 25035.32491409  1829.95716132
0.44300002 25110.97635121  2508.58665637
0.44400002 25186.90675140  2521.83915800
0.44500002 25262.74760915  2028.09347418
0.44600002 25338.42958815  2038.73014128
0.44700002 25415.42016152  1707.91631579
0.44800002 25490.87290200  2231.85348271
0.44900002 25567.15016587  3106.40889237
0.45000002 25643.32871096  2255.20265036
0.45100002 25718.25587110  2266.80717991
0.45200002 25793.17090053  2278.43985948
0.45300002 25866.93975076  1937.69254856
0.45400002 25940.44119838  2124.52223484
0.45500002 26013.59168904  2668.99463379
0.45600002 26085.22370202  1788.14216952
0.45700002 26156.39113285  2875.11064958
0.45800002 26226.14926161  1986.23750846
0.45900002 26294.58885063  2358.62473169
0.46000002 26362.38877691  2187.55112439
0.46100002 26428.12186542  1831.46893208
0.46200002 26493.07704504  3311.89971837
0.46300002 26556.76392463  1848.35085676
0.46400002 26618.18856181  2042.28061420
0.46500002 26679.13904255  2237.84628895
0.46600002 26737.42575749  2434.84379201
0.46700002 26793.87250485  2069.02293289
0.46800002 26849.54130203  3211.07104421
0.46900002 26902.31788990  3413.90430203
0.47000002 26953.52623466  2094.69339061
0.47100002 27002.97618218  2485.35404561
0.47200002 27050.44536287  2303.07502735
0.47300002 27095.82427023  2697.11847569
0.47400002 27138.34172990  3093.77110384
0.47500002 27179.14487580  2522.76834694
0.47600002 27218.27161937  2921.20114001
0.47700002 27254.19287733  2735.77601070
