# SAXS profile: number of points = 501, q_min = 0, q_max = 0.5, delta_q = 0.001
#    q    intensity    error
0.00000000 1700912.83420644 331.67800267
0.00100000 1700829.73381122 765.37339839
0.00200000 1700580.37258394 765.26119189
0.00300000 1700164.98021599 1326.12873181
0.00400000 1699583.42319450 1529.62513900
0.00500000 1698836.21739278 1987.63845302
0.00600000 1697923.27099904 1961.10145784
0.00700000 1696845.14041591 2239.83567844
0.00800000 1695601.68417118 2517.96860730
0.00900000 1694194.07460616 3303.67858671
0.01000000 1692621.78833093 3909.95649987
0.01100000 1690886.01104037 4261.03293334
0.01200000 1688986.75953733 3622.87675805
0.01300000 1686925.13745924 3542.54294491
0.01400000 1684701.25038004 4169.63577953
0.01500000 1682316.42179796 4845.07151052
0.01600000 1679770.14344890 7281.80389737
0.01700000 1677064.67347348 4980.88230365
0.01800000 1674200.02484319 6680.05839971
0.01900000 1671176.73752137 6517.58957042
0.02000000 1667996.10376914 5254.18796455
0.02100000 1664660.20319574 6042.71681157
0.02200000 1661167.42205621 7450.33622641
0.02300000 1657521.12483528 7160.49158522
0.02400000 1653720.87796133 6821.59893264
0.02500000 1649769.33292632 8364.33089994
0.02600000 1645666.25285398 8664.43321757
0.02700000 1641413.89904163 8962.12029924
0.02800000 1637012.15671782 8545.20384995
0.02900000 1632463.71485108 8080.69575953
0.03000000 1627769.68448349 9839.86819499
0.03100000 1622930.57564162 11685.10068229
0.03200000 1617947.88690578 10411.49513177
0.03300000 1612825.46121400 12338.11534708
0.03400000 1607561.17751449 10127.63588563
0.03500000 1602158.58877367 12977.48516834
0.03600000 1596618.97365617 12405.72999862
0.03700000 1590944.02099609 16323.08641032
0.03800000 1585135.39470338 11127.65098580
0.03900000 1579194.99190640 9475.17039023
0.04000000 1573122.82698809 11609.64700115
0.04100000 1566923.13459982 11845.93944683
0.04200000 1560596.37292570 12079.01648682
0.04300000 1554143.74370787 10257.34918460
0.04400000 1547568.68299701 10446.08909537
0.04500000 1540872.62358321 12758.42591609
0.04600000 1534055.54055497 12978.11047641
0.04700000 1527121.76512550 12094.80494230
0.04800000 1520071.92852370 13407.03503338
0.04900000 1512909.53605290 13616.18645828
0.05000000 1505634.25061255 12669.91280889
0.05100000 1498250.92119417 12854.99350268
0.05200000 1490757.62298454 14221.82838603
0.05300000 1483160.71917008 12013.60238533
0.05400000 1475459.64043161 15824.30538158
0.05500000 1467657.61340707 12328.32452773
0.05600000 1459755.30558635 17473.27182324
0.05700000 1451758.20411686 12630.29696538
0.05800000 1443664.85862521 14054.07805494
0.05900000 1435478.21885413 14211.23503040
0.06000000 1427202.30654525 14364.79188648
0.06100000 1418838.01726594 14514.71359492
0.06200000 1410387.85326516 14660.98242000
0.06300000 1401854.80289648 13457.80673703
0.06400000 1393237.97634441 16300.88508557
0.06500000 1384543.40278249 16448.37639447
0.06600000 1375771.86002277 20739.76176023
0.06700000 1366925.46773367 18125.43255040
0.06800000 1358006.88517449 23894.13226311
0.06900000 1349019.04980701 15581.17075476
0.07000000 1339962.65480362 15697.66323612
0.07100000 1330840.72549881 22996.92881374
0.07200000 1321655.77771701 15919.34458837
0.07300000 1312410.76635624 17481.31222696
0.07400000 1303107.91689565 19057.95417773
0.07500000 1293748.68155691 16223.60922716
0.07600000 1284334.06509408 20767.68280617
0.07700000 1274870.24237104 22373.97380269
0.07800000 1265356.94579861 19492.82466417
0.07900000 1255796.05266567 16576.50867269
0.08000000 1246192.08603209 24225.97528893
0.08100000 1236545.85192168 16730.46616146
0.08200000 1226859.39486301 16801.84020108
0.08300000 1217135.73464663 18403.09317155
0.08400000 1207377.15151985 20012.27722579
0.08500000 1197585.54015470 18538.62503189
0.08600000 1187763.34594960 17050.34363165
0.08700000 1177914.10348254 18658.16027531
0.08800000 1168037.51015708 18711.96179150
0.08900000 1158138.51062654 17198.35769061
0.09000000 1148217.61092770 20375.12246304
0.09100000 1138277.16683247 29845.62871653
0.09200000 1128319.58721181 17314.06487930
0.09300000 1118349.22387151 22076.21471663
0.09400000 1108363.41846144 18953.01534643
0.09500000 1098367.96342936 26888.04900856
0.09600000 1088363.94748146 22169.97465236
0.09700000 1078356.10674555 20607.38616872
0.09800000 1068343.52418553 20624.37270411
0.09900000 1058329.89656784 17462.44411450
0.10000000 1048315.28433788 19058.37276552
0.10100000 1038302.55911418 19063.23588191
0.10200000 1028294.85017236 19064.58741892
0.10300000 1018293.05951132 17473.90972320
0.10400000 1008300.64525930 17468.80950094
0.10500000 998319.75225344 17460.61328842
0.10600001 988347.98600993 17449.28451406
0.10700001 978393.34711473 17434.97026603
0.10800001 968453.52248261 23751.32375666
0.10900001 958532.82441110 23723.68852075
0.11000001 948631.38128469 25271.54118694
0.11100001 938751.89085511 17348.13575964
0.11200001 928895.97893008 22042.70261772
0.11300001 919065.15234697 15716.01484506
0.11400001 909261.85028411 20390.19795268
0.11500001 899488.12803464 17216.20358126
0.11600001 889744.39118031 23422.52220082
0.11700001 880033.97806915 23364.90321810
0.11800001 870355.62154014 15535.84857620
0.11900001 860712.69411053 17042.11214610
0.12000001 851106.08717418 24716.12193579
0.12100001 841540.63872035 16940.21385546
0.12200001 832014.15970370 19955.86056064
0.12300001 822530.12110483 22948.59146003
0.12400001 813087.55957896 18294.47095252
0.12500001 803689.53034651 16708.70612323
0.12600001 794338.80685065 16645.37048194
0.12700001 785034.57614698 21101.73040128
0.12800001 775778.36462142 15011.31206290
0.12900001 766572.85382528 19432.62276037
0.13000001 757418.56159190 16371.60298048
0.13100001 748315.33919180 19261.63773874
0.13200001 739266.83676684 17698.04890649
0.13300001 730272.77119520 17614.18007161
0.13400001 721334.00505628 21910.52143657
0.13500001 712452.83309173 15987.44232836
0.13600001 703629.32793972 21689.37505641
0.13700001 694865.32764093 18698.82684853
0.13800001 686159.25593316 18598.34750909
0.13900001 677516.38000671 17073.41358132
0.14000001 668933.73170405 18392.33382060
0.14100001 660415.45666986 15473.53487955
0.14200001 651960.04202586 16781.45227325
0.14300001 643570.33264983 16681.34380910
0.14400001 635242.46073033 22106.43867617
0.14500001 626983.61180336 15104.03592083
0.14600001 618790.42100430 15008.76236949
0.14700001 610666.33382864 17623.83122573
0.14800001 602607.91090635 17508.77367742
0.14900001 594619.03795486 16054.71478226
0.15000001 586699.07900580 15946.48171978
0.15100001 578849.45430256 15837.32181700
0.15200001 571070.95921434 13106.07913241
0.15300001 563363.43578931 13013.69598084
0.15400001 555725.18696567 16796.79456870
0.15500001 548160.55819780 16675.04496732
0.15600001 540666.43714812 15279.23423491
0.15700001 533247.71248360 15165.56565880
0.15800001 525898.60295103 17559.75518133
0.15900001 518625.12002001 19915.20554878
0.16000001 511422.74956731 16056.11798055
0.16100001 504296.30602344 12254.40081483
0.16200001 497243.39313581 12157.60153608
0.16300001 490264.21201150 13266.55020332
0.16400001 483359.95440811 13159.47538001
0.16500001 476529.38240631 13052.14040032
0.16600001 469774.34452028 14121.41746299
0.16700001 463092.42915958 17504.89464872
0.16800001 456485.53366702 17357.86323726
0.16900001 449955.14949106 11473.85685380
0.17000001 443497.43286776 14788.42259728
0.17100001 437115.42141290 12405.33624549
0.17200001 430807.44133372 17887.12580886
0.17300001 424574.57759808 15513.95579807
0.17400001 418416.46676272 12081.77604835
0.17500001 412331.74287934 13062.67023134
0.17600001 406320.20320367 12945.36228547
0.17700001 400385.60974382 11759.32591358
0.17800001 394522.83477788 15889.40792117
0.17900001 388733.17158063 12594.95535412
0.18000001 383018.67437638 11438.85325057
0.18100001 377377.44637199 15453.60715891
0.18200001 371806.85060790 15309.14779695
0.18300001 366309.63820443 10110.14649204
0.18400001 360884.53452771 17024.72872060
0.18500001 355531.69501106 11903.20171130
0.18600001 350250.62293305 11789.43652490
0.18700001 345039.70694093 9730.12019543
0.18800001 339898.23449692 13490.56156456
0.18900001 334830.62953154 12405.47541027
0.19000001 329828.79105795 13229.43343441
0.19100001 324899.18969688 11228.51652647
0.19200001 320036.63531896 9265.06103027
0.19300001 315244.71040693 14677.79441011
0.19400001 310518.78054536 9990.94223616
0.19500001 305861.33803954 13488.48564494
0.19600001 301269.44070245 11573.26611149
0.19700001 296745.99273956 9694.69204095
0.19800001 292287.14736636 11342.20328957
0.19900001 287893.91417495 10364.18140011
0.20000001 283563.95873198 11114.28988777
0.20100001 279300.03001261 9309.07044029
0.20200001 275098.17468554 10052.08777811
0.20300001 270959.91507430 10778.78593111
0.20400001 266884.14544197 9027.35664626
0.20500001 262869.33618610 9747.19544650
0.20600001 258915.53461342 9647.19327570
0.20700001 255022.34629172 11935.04637061
0.20800001 251188.61992852 8662.23996770
0.20900001 247416.21717486 10911.05569319
0.21000001 243699.44555795 10798.32294313
0.21100001 240041.88918349 9923.33216796
0.21200001 236440.33633932 10575.97674443
0.21300001 232895.28247215 9718.72059702
0.21400001 229406.47565158 8138.19510849
0.21500001 225973.58001807 10250.16207422
0.21600001 222593.53341950 9419.04581196
0.21700001 219267.92348414 10755.09215539
0.21800001 215995.30360248 9933.62448235
0.21900001 212774.12564859 8425.85577407
0.22000001 209604.04363960 11812.23643782
0.22100001 206486.46037792 7563.59940128
0.22200001 203418.72313904 8845.66359396
0.22300001 200399.64206374 7406.77112091
0.22400001 197428.90559465 8662.19364257
0.22500001 194508.39534509 7912.60189680
0.22600001 191633.31601417 6525.11471884
0.22700001 188805.98110214 7748.59783086
0.22800001 186023.75183615 7667.89941330
0.22900001 183286.57490227 9485.08069975
0.23000001 180594.45149254 8134.87745219
0.23100001 177947.34785432 8669.59519747
0.23200001 175341.65750309 8579.46770738
0.23300001 172779.58445235 6064.56370110
0.23400001 170258.01021275 6001.59514385
0.23500001 167777.91053983 6533.27214542
0.23600001 165338.49339152 6465.56208988
0.23700001 162938.74903381 9307.06178502
0.23800001 160577.88352094 5756.71739651
0.23900001 158255.75262267 8545.81104584
0.24000001 155970.67714191 7893.67634353
0.24100001 153723.89232633 6696.21306647
0.24200001 151513.54069020 6627.20258327
0.24300001 149338.33169307 6012.36151836
0.24400001 147198.27967305 7573.35184743
0.24500001 145092.46134493 6424.69449227
0.24600001 143020.68611741 6888.59167271
0.24700001 140983.18882011 5244.57487221
0.24800001 138977.75476167 5709.90132450
0.24900001 137003.16405986 6678.90456388
0.25000001 135061.60217991 7627.60434396
0.25100001 133150.05487167 5536.37954348
0.25200001 131270.73119202 5479.89693286
0.25300001 129419.31794207 6410.13912094
0.25400001 127598.44193965 5856.76876212
0.25500001 125804.23748957 5313.97124297
0.25600001 124039.90916365 5259.91259694
0.25700001 122302.05388323 5206.39868014
0.25800001 120591.24632254 5153.46715543
0.25900001 118908.08254919 5564.89852660
0.26000001 117249.67964508 5967.42272789
0.26100001 115616.76090796 4543.73891868
0.26200001 114009.73430274 4497.68423106
0.26300001 112425.97363258 6232.89627312
0.26400001 110867.08377746 6169.75350416
0.26500001 109331.84125887 4362.34067265
0.26600001 107819.01398117 5181.78205713
0.26700001 106329.28562038 5984.21247789
0.26800001 104862.04987842 4654.30230410
0.26900001 103415.76132349 4188.33853180
0.27000001 101991.38908597 5804.33022756
0.27100001 100587.63262142 5745.56584723
0.27200001 99205.02004718  4468.69033950
0.27300001 97842.39233023  6836.24827563
0.27400001 96498.02858651  4378.59825433
0.27500001 95175.11046079  4334.27473551
0.27600001 93869.16443616  7020.47514043
0.27700001 92583.59225399  5405.03037159
0.27800001 91315.08995146  5350.15137346
0.27900001 90064.91628204  6808.90799317
0.28000001 88831.95398377  4118.69374139
0.28100001 87616.42159527  5188.64473245
0.28200001 86418.49534271  5135.85142130
0.28300001 85236.87239513  4357.30912307
0.28400001 84070.84006358  3953.43144111
0.28500001 82921.58481351  3913.06977256
0.28600001 81787.77576007  3873.06030444
0.28700001 80670.21244891  4530.43934557
0.28800001 79566.09814149  3794.10956946
0.28900001 78478.96060918  4779.36892732
0.29000001 77405.48164285  3378.74943364
0.29100001 76347.03007713  4012.80009080
0.29200001 75302.43613333  3971.45066966
0.29300001 74272.29106490  3602.94901011
0.29400001 73255.06921362  4213.99805599
0.29500001 72252.73151417  4491.23000352
0.29600001 71262.44818369  3174.74221687
0.29700001 70285.90593141  3455.95815825
0.29800001 69322.54452049  4041.85114960
0.29900001 68372.38170324  3692.10878676
0.30000001 67433.71255530  5175.87485221
0.30100001 66508.59140236  5121.82686636
0.30200001 65594.76257303  3279.41031009
0.30300001 64693.92258782  3835.05591256
0.30400001 63804.74720813  3794.78751986
0.30500001 62927.97012334  2888.39396540
0.30600001 62061.46425970  3715.30973380
0.30700001 61207.57002911  3958.90581691
0.30800001 60364.88050785  3357.49481280
0.30900001 59533.62850174  4152.47078459
0.31000001 58713.63211951  3560.68838847
0.31100001 57904.10075233  4606.85047397
0.31200001 57106.38822241  3485.48857018
0.31300001 56318.66833160  3713.65316561
0.31400001 55543.22051530  4723.95112849
0.31500001 54776.76785835  3375.34459524
0.31600002 54022.45173028  2825.64447154
0.31700002 53277.78842167  3303.75581645
0.31800002 52543.23329039  2514.19383199
0.31900002 51819.75012624  2736.08293622
0.32000002 51106.76080377  3199.02784398
0.32100002 50403.28523274  3408.27030882
0.32200002 49710.97008445  2890.19593756
0.32300002 49027.25499160  4050.63199921
0.32400002 48354.75909365  2593.02407918
0.32500002 47691.48634723  3031.74793065
0.32600002 47038.38720357  2537.95630175
0.32700002 46395.24362075  2739.17531308
0.32800002 45762.87236059  2935.91721532
0.32900002 45138.19240552  2457.77469287
0.33000002 44524.50428996  2431.70591695
0.33100002 43919.36638494  2405.90300450
0.33200002 43325.59747940  2380.52506624
0.33300002 42740.36214004  2355.42146908
0.33400002 42165.25778459  2330.68473441
0.33500002 41599.35039760  2096.60735933
0.33600002 41042.45878441  2904.57494572
0.33700002 40495.04309076  2669.02841651
0.33800002 39957.72743862  2235.03559012
0.33900002 39429.03204969  2413.05687572
0.34000002 38909.64318500  2388.27401180
0.34100002 38399.92600423  2954.87444596
0.34200002 37899.85282409  2534.93177619
0.34300002 37408.24079799  2316.31837991
0.34400002 36926.50271707  2293.13592733
0.34500002 36453.68528613  2648.72489833
0.34600002 35990.56594057  2809.96356889
0.34700002 35535.16168918  2782.40329204
0.34800002 35089.92368637  2020.65335118
0.34900002 34653.11448028  2365.07517529
0.35000002 34225.78598072  2162.38526068
0.35100002 33807.94757197  2142.07165961
0.35200002 33397.45765252  2475.75365304
0.35300002 32997.23313124  1927.36847848
0.35400002 32605.00770101  2257.08176501
0.35500002 32222.11215013  2408.92521844
0.35600002 31847.64668507  2558.16234114
0.35700002 31481.73184798  2535.85362047
0.35800002 31125.01223828  2011.29838610
0.35900002 30777.36754295  1994.37351125
0.36000002 30437.94012022  1977.85744269
0.36100002 30106.52581060  1961.74131474
0.36200002 29785.16877647  1946.16302004
0.36300002 29470.80900613  1930.92749754
0.36400002 29165.55133894  1916.17681373
0.36500002 28867.90154365  2218.78701774
0.36600002 28579.42174431  2045.28641401
0.36700002 28298.71077285  1874.50669039
0.36800002 28027.00390490  1861.55368754
0.36900002 27763.16279076  1849.02672945
0.37000002 27506.81476948  1530.75431443
0.37100002 27258.66528849  1825.24031418
0.37200002 27019.12653769  1814.06424167
0.37300002 26787.23695009  2103.86968972
0.37400002 26562.97163627  1643.58394785
0.37500002 26346.77916471  2228.93762292
0.37600002 26138.55475859  1773.76240994
0.37700002 25937.75428361  1764.80488506
0.37800002 25744.37089851  2048.99457688
0.37900002 25559.52218761  2476.71781731
0.38000002 25381.22263730  1740.64433093
0.38100002 25209.67084091  1733.41704914
0.38200002 25046.70159012  1438.93307452
0.38300002 24890.23626605  1433.67767684
0.38400002 24741.19655250  1571.68458545
0.38500002 24598.65871585  1566.68864783
0.38600002 24464.05440232  2130.20763800
0.38700002 24335.49654336  1557.95856251
0.38800002 24213.66778207  1978.01461483
0.38900002 24098.63894806  1973.67862335
0.39000002 23990.80820207  1829.17925803
0.39100002 23888.59943967  1826.04462768
0.39200002 23793.64950691  1683.16284586
0.39300002 23704.27448307  1400.92268832
0.39400002 23622.40423511  1679.55302069
0.39500002 23545.32520448  1678.31086009
0.39600002 23474.54359768  1537.70005122
0.39700002 23409.17894634  1537.28085424
0.39800002 23350.83532204  1537.30231626
0.39900002 23297.00422991  2236.51251203
0.40000002 23249.36830788  1957.82939797
0.40100002 23206.63033562  1399.35987554
0.40200002 23169.85860041  1820.80342438
0.40300002 23138.09792115  1542.38568050
0.40400002 23111.58376928  1684.83453661
0.40500002 23089.65108012  1406.15981740
0.40600002 23073.52997419  2253.82251467
0.40700002 23061.65692609  1834.78551197
0.40800002 23054.19991392  1697.25027808
0.40900002 23051.17587107  2551.76528983
0.41000002 23053.33110158  1421.23792975
0.41100002 23059.48884499  1425.07647814
0.41200002 23068.88809304  2000.76475911
0.41300002 23083.93593594  2436.97123223
0.41400002 23101.97948165  1725.71794905
0.41500002 23123.96868171  1442.93571411
0.41600002 23148.66669699  2895.89834101
0.41700002 23178.50551852  1889.28007434
0.41800002 23212.18178858  1750.66283345
0.41900002 23247.27581592  1611.03629038
0.42000002 23286.24732370  1911.68456462
0.42100002 23329.28911930  1624.41847835
0.42200002 23374.56866352  1631.42809718
0.42300002 23422.48162212  1489.66990176
0.42400002 23473.09426797  1496.40983049
0.42500002 23526.92894096  2255.05624585
0.42600002 23581.90746510  1812.50549366
0.42700002 23640.42163302  1973.02968299
0.42800002 23700.41192175  1982.65805327
0.42900002 23763.58444210  1992.57664989
0.43000002 23828.47888931  2002.66460315
0.43100002 23893.75030440  1703.14660241
0.43200002 23962.00097083  1711.96524049
0.43300002 24031.28360384  1720.88030042
0.43400002 24102.59650766  1729.96394632
0.43500002 24174.63351217  2055.32743860
0.43600002 24248.73582463  2225.30659208
0.43700002 24323.21649073  2237.24955884
0.43800002 24398.41119914  1606.63545360
0.43900002 24475.48267620  1776.92012650
0.44000002 24552.69869092  2273.82553352
0.44100002 24630.87845388  2286.23824643
0.44200002 24709.54367371  1970.33910592
0.44300002 24788.76823463  1650.93204267
0.44400002 24868.13221973  2323.92706607
0.44500002 24947.42828470  1668.98303134
0.44600002 25026.61888748  2013.64185112
0.44700002 25107.00890767  2193.34840212
0.44800002 25186.02329848  1865.90662450
0.44900002 25265.66569622  2046.51901838
0.45000002 25345.29960461  2400.45343932
0.45100002 25423.66210504  2413.21412138
0.45200002 25501.98407923  2426.00386043
0.45300002 25579.31796663  2961.31778134
0.45400002 25656.19214071  2976.75983420
0.45500002 25732.75641418  2288.15680879
0.45600002 25807.85934732  2830.60614737
0.45700002 25882.45392681  2667.18700357
0.45800002 25955.61920514  1965.74891367
0.45900002 26027.56864626  1975.49255388
0.46000002 26098.84058213  2526.62887650
0.46100002 26168.04026365  1813.44527622
0.46200002 26236.50543544  2186.55046662
0.46300002 26303.53365253  2563.01644058
0.46400002 26368.42424428  1839.19767821
0.46500002 26432.82538791  2032.42004040
0.46600002 26494.54347473  1855.94285837
0.46700002 26554.53941175  2236.95450607
0.46800002 26613.63860386  2246.72347742
0.46900002 26669.96371224  2256.27903699
0.47000002 26724.60260208  2643.33056866
0.47100002 26777.51749864  2275.01799451
0.47200002 26828.52023524  2284.18032109
0.47300002 26877.34441029  1910.97927815
0.47400002 26923.31724433  2493.77237795
0.47500002 26967.65315755  2310.58863206
0.47600002 27010.37064279  2319.11053331
0.47700002 27049.73960811  2133.41306401
