# SAXS profile: number of points = 501, q_min = 0, q_max = 0.5, delta_q = 0.001
#    q    intensity    error
0.00000000 1719190.39626458 335.24212727
0.00100000 1719106.82104216 670.45167613
0.00200000 1718856.03605331 1082.87933700
0.00300000 1718438.27408973 1443.48820166
0.00400000 1717853.38196150 1546.06810251
0.00500000 1717101.91724344 2163.54850136
0.00600000 1716183.74503627 1982.19230622
0.00700000 1715099.45698649 2469.74332070
0.00800000 1713848.86703437 2545.06567500
0.00900000 1712433.21389735 2568.64993065
0.01000000 1710851.90638557 3105.19634417
0.01100000 1709106.22709322 3999.30874553
0.01200000 1707196.05755398 3994.83894983
0.01300000 1705122.60182419 4296.90914611
0.01400000 1702885.95236304 4980.94163147
0.01500000 1700487.40200704 6937.98890913
0.01600000 1697926.50494592 4329.71278117
0.01700000 1695205.51077825 5034.76059286
0.01800000 1692324.30652534 7716.99918500
0.01900000 1689283.63706608 6588.20648183
0.02000000 1686084.67248029 5842.28365442
0.02100000 1682729.47435589 6663.60902057
0.02200000 1679216.45119547 8110.61582776
0.02300000 1675549.07503652 6635.17463917
0.02400000 1671726.80803869 8776.56614239
0.02500000 1667752.36864989 9756.35180218
0.02600000 1663625.43122052 6737.68330461
0.02700000 1659348.29601321 9756.96842744
0.02800000 1654920.92255420 11518.25014920
0.02900000 1650345.93136351 8169.21273533
0.03000000 1645624.48916064 9182.58507160
0.03100000 1640757.08815906 11025.88813976
0.03200000 1635745.18606938 11335.71466156
0.03300000 1630592.68107486 13305.63689097
0.03400000 1625297.37112767 8532.81159213
0.03500000 1619862.87896731 12246.16393050
0.03600000 1614290.62566497 17918.62677297
0.03700000 1608582.07712563 10085.81009002
0.03800000 1602738.99249696 12188.83060203
0.03900000 1596763.41096699 11496.69709137
0.04000000 1590655.00571960 11739.03448619
0.04100000 1584418.36615463 13974.57063744
0.04200000 1578053.77926524 15267.67102270
0.04300000 1571562.57391542 13484.00751009
0.04400000 1564948.03518802 15845.09959216
0.04500000 1558211.62718429 16127.49109072
0.04600000 1551353.38601457 13124.45025580
0.04700000 1544377.84469093 12231.47309881
0.04800000 1537285.03568630 11299.04553802
0.04900000 1530079.24311099 11475.59485749
0.05000000 1522759.62525787 16308.75634595
0.05100000 1515331.43556457 14183.50289761
0.05200000 1507792.13131019 16781.72720353
0.05300000 1500148.45213229 13366.32333161
0.05400000 1492400.03439766 14774.76102954
0.05500000 1484549.79897231 14964.26267171
0.05600000 1476598.61877896 13887.41065766
0.05700000 1468551.89744825 17886.96294586
0.05800000 1460408.07061851 14217.07323130
0.05900000 1452170.30442286 16990.39335530
0.06000000 1443842.59412646 14532.27638881
0.06100000 1435425.70802086 18689.24359181
0.06200000 1426922.13347033 13484.41479160
0.06300000 1418334.98850401 16339.21983151
0.06400000 1409663.46243911 15118.64134171
0.06500000 1400913.60328461 16642.85438554
0.06600000 1392085.89250328 19586.64942395
0.06700000 1383182.83973667 18341.00531325
0.06800000 1374206.86772943 21334.56262015
0.06900000 1365160.92385726 15767.60940877
0.07000000 1356045.69561536 20218.64226843
0.07100000 1346864.49092513 17455.36461996
0.07200000 1337619.46962745 17576.32065430
0.07300000 1328313.92979149 19167.57090500
0.07400000 1318949.79575846 16322.00448743
0.07500000 1309528.78974941 19407.21757375
0.07600000 1300051.70410970 22523.39682961
0.07700000 1290525.04405808 18118.97246815
0.07800000 1280947.87723413 19733.00297420
0.07900000 1271322.83701640 19832.63718768
0.08000000 1261654.02723195 16862.00686497
0.08100000 1251942.72589267 20018.56512626
0.08200000 1242190.40963822 20104.85272342
0.08300000 1232400.20117612 17081.06758995
0.08400000 1222574.81104264 17146.61252971
0.08500000 1212715.58250535 26594.85397284
0.08600000 1202825.41378501 17266.55962557
0.08700000 1192907.98549184 18895.66337749
0.08800000 1182962.34100306 22109.56719170
0.08900000 1172993.76681434 17418.95825536
0.09000000 1163002.94666613 20637.48825805
0.09100000 1152992.10780915 23866.93775295
0.09200000 1142963.77601535 22322.08359442
0.09300000 1132922.09979043 31948.40471541
0.09400000 1122864.55494585 32001.64131995
0.09500000 1112796.93854941 17626.70433513
0.09600000 1102720.41096327 22462.41582723
0.09700000 1092639.57234932 24092.70370297
0.09800000 1082553.71069587 16075.92335969
0.09900000 1072466.18097127 19304.39216522
0.10000000 1062377.63108592 32190.04373571
0.10100000 1052290.33497711 19320.05145884
0.10200000 1042207.55331874 16102.10745616
0.10300000 1032130.38354580 16101.23474073
0.10400000 1022062.56129076 20926.73192693
0.10500000 1012005.85301711 27354.51949407
0.10600001 1001957.77017803 16081.42296805
0.10700001 991926.56212975 16069.21106268
0.10800001 981909.91779439 22475.91907607
0.10900001 971912.06092180 22451.16966397
0.11000001 961933.06062913 17617.80483468
0.11100001 951976.21079815 17592.52120369
0.11200001 942042.10758121 19161.13737025
0.11300001 932133.29137098 15939.48003289
0.11400001 922251.47281707 20681.49025170
0.11500001 912399.08709401 30163.91523969
0.11600001 902576.27359469 15840.21434753
0.11700001 892786.77719863 17382.55937069
0.11800001 883029.08685828 20490.69092562
0.11900001 873306.70619802 17291.47359718
0.12000001 863620.27984005 17242.17969920
0.12100001 853975.09763297 23441.61753432
0.12200001 844368.16743671 17136.45276545
0.12300001 834804.32416051 17080.09727704
0.12400001 825281.27404609 17021.42707921
0.12500001 815802.73002883 21586.14125371
0.12600001 806371.37174763 16897.51289124
0.12700001 796986.44770705 16832.35456882
0.12800001 787649.49762881 18289.22219690
0.12900001 778362.92476536 24284.92439728
0.13000001 769127.50622275 18136.02745157
0.13100001 759943.10980426 15046.87428340
0.13200001 750813.53977409 17974.47698951
0.13300001 741738.21366369 19381.62043674
0.13400001 732717.97817769 17805.04770915
0.13500001 723755.52822986 25099.84290242
0.13600001 714850.78900602 20566.25816942
0.13700001 706005.32116805 18998.60408848
0.13800001 697217.65358189 18898.08539149
0.13900001 688493.53022797 15904.20129828
0.14000001 679829.54403116 17254.07464122
0.14100001 671229.87988032 17156.63653890
0.14200001 662692.86377353 17057.71511806
0.14300001 654221.90198666 15544.31312439
0.14400001 645812.63695966 16855.71061973
0.14500001 637472.66969032 15356.71733725
0.14600001 629198.30696401 13873.82332304
0.14700001 620992.97021317 15164.64904802
0.14800001 612853.68925121 16436.73672118
0.14900001 604783.78797843 14968.39945869
0.15000001 596782.85242648 17572.27191881
0.15100001 588852.55341289 18796.17439184
0.15200001 580993.50786141 14667.18179806
0.15300001 573205.44034884 21185.67407502
0.15400001 565486.59568414 14462.32036711
0.15500001 557841.83345589 14358.84947079
0.15600001 550267.39753216 16846.43717051
0.15700001 542768.92485283 16722.71136397
0.15800001 535339.90031280 15321.42867010
0.15900001 527986.69695558 13938.84945755
0.16000001 520704.81585148 15090.02627566
0.16100001 513499.16059759 14973.63622984
0.16200001 506366.96256429 12380.67281914
0.16300001 499308.91835014 13511.29996839
0.16400001 492326.02644387 18277.60459461
0.16500001 485416.98572240 13295.57186664
0.16600001 478583.77340250 11988.52408975
0.16700001 471823.72595417 13078.95430097
0.16800001 465138.95933083 16507.78244609
0.16900001 458531.04119904 12861.79631294
0.17000001 451996.39877639 12753.07899367
0.17100001 445537.32242650 12644.34980755
0.17200001 439152.43541990 15954.40873222
0.17300001 432843.12524189 12426.92671255
0.17400001 426608.86733282 13438.17995562
0.17500001 420448.11062138 11099.83064462
0.17600001 414360.99700896 12101.41348919
0.17700001 408351.00607091 15264.16132787
0.17800001 402413.17085645 12965.75297739
0.17900001 396548.79081514 12848.18142928
0.18000001 390760.06315253 10609.13621571
0.18100001 385044.79336977 12614.06802664
0.18200001 379400.24535050 14580.35211756
0.18300001 373829.86291760 11349.47517432
0.18400001 368331.40321295 11243.31661422
0.18500001 362906.04120231 11137.58693066
0.18600001 357552.61774516 11032.28654173
0.18700001 352269.47512783 10927.39963473
0.18800001 347056.27813907 9839.04595010
0.18900001 341917.54886076 10719.11566324
0.19000001 336844.80621302 11580.72498478
0.19100001 331844.65652105 10512.83921532
0.19200001 326911.88445724 14196.14925334
0.19300001 322050.20063419 11245.99353755
0.19400001 317255.02927133 12063.62305810
0.19500001 312528.57762936 10107.17467815
0.19600001 307868.01887304 12736.50054266
0.19700001 303276.49088915 9007.31220507
0.19800001 298749.88866020 11592.98997733
0.19900001 294289.33044630 8828.68033063
0.20000001 289892.64383537 13110.39543707
0.20100001 285562.10826136 10383.03874711
0.20200001 281294.10722342 11991.56835770
0.20300001 277090.29917104 11022.65262201
0.20400001 272949.15053482 10071.82413079
0.20500001 268869.66864487 14123.72436150
0.20600001 264851.56697532 12335.46231495
0.20700001 260894.54079524 8139.91005758
0.20800001 256997.30547308 12890.98545189
0.20900001 253162.01264439 11164.44528538
0.21000001 249382.62322202 8682.25643791
0.21100001 245663.07486315 10936.92060993
0.21200001 241999.87118577 10824.65474987
0.21300001 238393.69915489 14539.63239883
0.21400001 234844.34058704 11360.59551299
0.21500001 231351.00040718 9744.50459785
0.21600001 227911.35301175 8160.36638040
0.21700001 224526.53673608 8076.21990824
0.21800001 221195.08181375 8719.51053736
0.21900001 217915.28898258 7191.20487644
0.22000001 214687.61835257 9251.96335036
0.22100001 211512.48746685 9860.71263195
0.22200001 208387.94565507 7667.63482294
0.22300001 205312.52736325 6898.50124560
0.22400001 202285.70878104 7509.85729361
0.22500001 199309.90206060 10134.90899903
0.22600001 196379.73852143 7355.40345414
0.22700001 193497.96491716 6617.63071311
0.22800001 190661.62543242 9168.91800064
0.22900001 187871.15838093 9722.33290599
0.23000001 185126.01733592 8980.46352567
0.23100001 182426.44000172 6983.28445352
0.23200001 179768.60698733 9424.36966702
0.23300001 177155.15928703 8083.59030058
0.23400001 174582.41865530 6154.03054866
0.23500001 172051.80854633 6090.63431060
0.23600001 169562.40087287 6630.73799975
0.23700001 167112.82877298 11335.26371181
0.23800001 164703.08513019 10037.82999804
0.23900001 162332.24514228 7597.14943200
0.24000001 159999.15816222 8097.55777761
0.24100001 157704.70435235 6297.14914265
0.24200001 155447.17506409 7932.46971874
0.24300001 153225.49317925 5608.05331564
0.24400001 151039.14489088 8881.10213969
0.24500001 148887.75131691 6043.35411183
0.24600001 146770.69231945 6525.42528921
0.24700001 144688.57609583 5920.65681392
0.24800001 142638.95074738 9056.86060616
0.24900001 140620.62403638 8437.23784133
0.25000001 138635.76534534 7829.45521828
0.25100001 136681.42081057 7749.83692660
0.25200001 134759.95356018 5625.55452751
0.25300001 132866.63240951 6074.66272116
0.25400001 131004.41709214 6013.10302902
0.25500001 129169.37648984 4960.10429188
0.25600001 127364.66178598 5891.88953298
0.25700001 125587.02680130 6318.28361731
0.25800001 123836.59659712 5292.15720597
0.25900001 122114.55800895 6667.45518276
0.26000001 120417.54924647 6128.65145888
0.26100001 118746.70058916 7000.11833095
0.26200001 117102.02480698 6005.57762639
0.26300001 115481.12396534 4573.05272541
0.26400001 113885.60820459 6337.73439648
0.26500001 112314.00713288 5377.59491598
0.26600001 110765.54252969 4879.77620705
0.26700001 109240.43092967 4391.46553118
0.26800001 107738.31187434 6520.86163477
0.26900001 106257.51939825 5164.11568713
0.27000001 104799.11154483 5538.10931166
0.27100001 103361.85587880 4217.16391942
0.27200001 101946.10260132 4592.16240899
0.27300001 100550.83367978 4545.90340579
0.27400001 99174.08122960  4500.02414876
0.27500001 97819.43210265  5264.64208492
0.27600001 96481.99974424  4008.82727909
0.27700001 95165.56646066  4365.24474014
0.27800001 93866.38258230  4321.13912668
0.27900001 92585.98537366  4666.33388368
0.28000001 91323.16797808  3849.27171246
0.28100001 90078.25449897  4572.37241477
0.28200001 88851.44127332  4526.09263268
0.28300001 87641.20414516  5600.27320994
0.28400001 86447.00646609  5173.85358188
0.28500001 85269.94618899  3658.08086465
0.28600001 84108.75327582  5431.32299986
0.28700001 82964.15706349  5017.67245670
0.28800001 81833.30589916  3547.47397864
0.28900001 80720.03417510  4213.58598338
0.29000001 79620.61434441  3822.98397870
0.29100001 78536.59687620  3783.89341660
0.29200001 77466.86164165  3745.13560334
0.29300001 76411.89701485  5054.64722680
0.29400001 75370.21607427  5336.21155066
0.29500001 74343.64618592  3961.02965629
0.29600001 73329.72739152  3920.20741192
0.29700001 72329.68563539  3556.45081105
0.29800001 71343.35517831  3839.69955746
0.29900001 70370.33226210  3166.66510170
0.30000001 69409.11321495  3447.20377101
0.30100001 68462.13388527  3721.60177418
0.30200001 67526.38786562  3375.98192116
0.30300001 66604.23259764  3340.86846526
0.30400001 65693.88288112  3306.04481251
0.30500001 64796.28070936  4163.80919551
0.30600001 63909.23844572  3825.92674068
0.30700001 63035.00277813  4077.10417271
0.30800001 62172.42220727  3458.03028688
0.30900001 61321.60208398  3421.74555829
0.31000001 60482.37965346  3385.80377330
0.31100001 59653.62697314  3908.50582433
0.31200001 58837.20656519  3867.36977063
0.31300001 58030.98573078  3006.58551306
0.31400001 57237.18938435  3245.34879175
0.31500001 56452.70151712  2943.44399647
0.31600002 55680.66944024  2912.37755297
0.31700002 54918.65372859  2619.61990689
0.31800002 54166.88237944  3628.63962241
0.31900002 53426.37862005  3590.25281326
0.32000002 52696.85230575  2791.08891453
0.32100002 51976.79242721  4016.76670897
0.32200002 51268.20889250  2483.94483846
0.32300002 50568.56102086  2457.63218198
0.32400002 49880.39793264  2674.83646579
0.32500002 49201.47297127  2646.54735644
0.32600002 48532.96460286  2618.59622914
0.32700002 47874.83039990  3062.07429737
0.32800002 47227.46897111  2563.74327450
0.32900002 46588.15932320  2306.11399570
0.33000002 45959.95754488  3422.86800024
0.33100002 45340.57079789  2709.55263919
0.33200002 44732.65164434  3351.59408317
0.33300002 44133.53845393  2211.09038125
0.33400002 43544.56005107  2625.73709542
0.33500002 42965.16984504  2381.98912901
0.33600002 42394.94131624  3000.29013903
0.33700002 41834.24592045  2545.19564233
0.33800002 41284.01481003  2729.07992826
0.33900002 40742.41194139  2493.43572890
0.34000002 40210.36404664  2056.76021839
0.34100002 39688.17814993  2239.60399906
0.34200002 39175.66413034  2015.58801496
0.34300002 38671.77616719  1995.46374473
0.34400002 38177.94144412  2370.85027596
0.34500002 37693.23392064  2543.16261307
0.34600002 37218.40442592  2905.82706318
0.34700002 36751.29494421  2302.10122433
0.34800002 36294.53515138  2090.02090568
0.34900002 35846.34573433  2070.12656420
0.35000002 35407.70541232  2050.63735608
0.35100002 34978.66998446  1846.87386265
0.35200002 34557.17934398  2927.68437269
0.35300002 34146.00375158  2538.41403912
0.35400002 33742.89283497  1976.49004142
0.35500002 33349.22908804  1780.84891765
0.35600002 32964.32212426  1765.23953336
0.35700002 32587.86631401  2099.96220474
0.35800002 32220.79414266  1908.59883144
0.35900002 31862.76599248  2236.76627862
0.36000002 31513.17187230  2047.72600525
0.36100002 31171.68845065  1861.88503935
0.36200002 30840.32024138  1679.25551668
0.36300002 30516.06633778  2332.64822135
0.36400002 30200.80557373  2149.54243853
0.36500002 29893.50413050  1641.15345450
0.36600002 29595.27447423  2117.98591807
0.36700002 29304.92364567  2588.21097899
0.36800002 29023.66151927  1606.45974119
0.36900002 28750.35309063  1595.64467211
0.37000002 28484.55116947  1743.68188244
0.37100002 28227.00593335  2047.58710740
0.37200002 27978.20278572  2661.14688402
0.37300002 27736.98691843  1867.25404780
0.37400002 27503.60569518  2475.32462982
0.37500002 27278.18639747  2000.03672141
0.37600002 27060.84460636  1836.34900198
0.37700002 26851.04073957  1979.19030667
0.37800002 26648.58907085  1817.96683253
0.37900002 26454.79062646  2111.09239200
0.38000002 26267.56134150  1801.42944214
0.38100002 26087.21956570  1494.79775193
0.38200002 25915.38381523  2531.02608022
0.38300002 25750.16821510  2818.09854296
0.38400002 25592.33418228  1477.95736904
0.38500002 25441.05862759  1620.34110075
0.38600002 25297.76040391  1762.24207322
0.38700002 25160.54131384  1903.64664599
0.38800002 25029.93894261  2190.74550974
0.38900002 24906.33046196  1894.12652137
0.39000002 24789.97225558  1599.32513584
0.39100002 24679.18665810  1596.24986867
0.39200002 24575.73377931  1593.61353242
0.39300002 24477.81523348  2025.29452837
0.39400002 24387.46307463  1589.45298119
0.39500002 24301.71655036  1587.87423463
0.39600002 24222.60681176  2019.43882557
0.39700002 24148.71827329  2018.34996891
0.39800002 24081.97838767  1441.30647479
0.39900002 24019.66449545  1585.29793181
0.40000002 23963.61737905  1585.55281901
0.40100002 23912.46534977  1730.30607469
0.40200002 23867.26541624  2308.44202043
0.40300002 23827.17547266  1877.10497267
0.40400002 23792.24744002  1589.91701051
0.40500002 23761.97510137  2025.94609313
0.40600002 23737.36005004  1883.91566963
0.40700002 23717.22502547  1451.49424033
0.40800002 23701.35840718  2035.70977005
0.40900002 23690.05030201  1894.01961139
0.41000002 23683.94185024  2044.16111795
0.41100002 23681.73218037  1463.53111809
0.41200002 23682.80170098  1907.29452536
0.41300002 23689.57387964  1471.12260763
0.41400002 23699.29778418  1622.80949267
0.41500002 23712.84743925  1923.58627542
0.41600002 23729.24649212  1929.54376994
0.41700002 23750.77831823  2084.84341956
0.41800002 23776.22709800  1643.76953831
0.41900002 23802.98895139  1649.54721249
0.42000002 23833.65923462  1956.62434758
0.42100002 23868.49773618  2417.40156527
0.42200002 23905.38073343  1971.83542323
0.42300002 23945.07983812  1979.77929483
0.42400002 23987.37900503  1529.19548403
0.42500002 24032.91319129  1842.84387083
0.42600002 24079.70357194  1850.76610424
0.42700002 24129.81428090  2013.87439531
0.42800002 24181.61019466  1556.08668976
0.42900002 24236.51930509  1563.25556926
0.43000002 24293.23644816  2355.83671620
0.43100002 24350.20893034  2051.26169750
0.43200002 24410.27766377  1743.99237033
0.43300002 24471.31733233  1752.39111721
0.43400002 24534.30257115  2401.29497794
0.43500002 24598.28313250  1769.60057241
0.43600002 24664.07297035  2101.74907777
0.43700002 24730.44719638  1624.79045780
0.43800002 24797.42989191  1796.20191934
0.43900002 24866.32884530  1805.29555972
0.44000002 24935.27527480  1814.41539136
0.44100002 25005.34245503  2320.99599667
0.44200002 25075.91483850  2666.07139197
0.44300002 25146.94082552  2177.22223985
0.44400002 25218.24620136  2693.30882194
0.44500002 25289.41453486  2537.79286884
0.44600002 25360.49888729  2040.50583717
0.44700002 25432.88665427  1709.09006416
0.44800002 25503.74403230  2232.98041457
0.44900002 25575.48833162  1726.34554420
0.45000002 25647.07527151  1908.52719678
0.45100002 25717.43827795  2092.37087746
0.45200002 25787.82986232  1927.51143441
0.45300002 25857.12074354  1760.87000609
0.45400002 25926.17610471  3538.92320601
0.45500002 25994.82948837  2489.26498978
0.45600002 26062.06468538  2679.83192828
0.45700002 26128.79347922  2333.56265623
0.45800002 26194.14720409  2524.85396867
0.45900002 26258.23037481  3261.27236712
0.46000002 26321.77433127  2548.21109378
0.46100002 26383.20607147  2011.19189415
0.46200002 26443.91892021  2203.83630726
0.46300002 26503.40244849  2029.10058763
0.46400002 26560.62146639  2593.64480912
0.46500002 26617.45755248  2604.78451954
0.46600002 26671.63234741  3363.02628208
0.46700002 26724.00640242  1876.02533837
0.46800002 26775.70276062  2260.40493419
0.46900002 26824.40237377  2836.68068548
0.47000002 26871.79346154  2468.03998745
0.47100002 26917.34723210  2477.47275667
0.47200002 26960.94951971  1912.87945909
0.47300002 27002.53349794  2303.85626724
0.47400002 27041.30438272  2119.36233145
0.47500002 27078.40187978  1933.39798585
0.47600002 27113.93524524  2328.00259050
0.47700002 27146.26748995  1946.38747128
