# SAXS profile: number of points = 501, q_min = 0, q_max = 0.5, delta_q = 0.001
#    q    intensity    error
0.00000000 1700912.83420644 306.16431016
0.00100000 1700829.71766650 561.27382016
0.00200000 1700580.30536826 994.83951014
0.00300000 1700164.82841418 1326.12861340
0.00400000 1699583.14942263 1402.15615155
0.00500000 1698835.79691258 1528.95227774
0.00600000 1697922.66279973 1961.10075537
0.00700000 1696844.30884320 2647.07723181
0.00800000 1695600.59664513 2975.77917275
0.00900000 1694192.70694852 3303.67591977
0.01000000 1692620.09437790 3351.38793158
0.01100000 1690883.97926953 4869.74607232
0.01200000 1688984.32466252 3293.51957749
0.01300000 1686922.27165683 3896.79061939
0.01400000 1684697.94285813 4548.68464736
0.01500000 1682312.60608885 5248.81556472
0.01600000 1679765.84275498 5140.08370861
0.01700000 1677059.84783334 5886.48032995
0.01800000 1674194.56790307 5725.74567987
0.01900000 1671170.68716305 6517.56597403
0.02000000 1667989.42305077 6305.00030434
0.02100000 1664652.82002751 8789.36728824
0.02200000 1661159.27053902 6304.09971811
0.02300000 1657512.29218843 7160.45342819
0.02400000 1653711.26913167 8061.84280462
0.02500000 1649758.91933990 8364.27810306
0.02600000 1645654.98844985 9330.86421129
0.02700000 1641401.77199268 11030.22041299
0.02800000 1636999.14720666 8545.13594030
0.02900000 1632449.70362080 7346.02400358
0.03000000 1627754.76406261 10596.68400113
0.03100000 1622914.73713469 12463.98575470
0.03200000 1617930.96227832 12013.13794822
0.03300000 1612807.50313499 9870.38237422
0.03400000 1607542.13639383 11815.43524766
0.03500000 1602138.38810966 9516.70246483
0.03600000 1596597.70623865 11519.45298287
0.03700000 1590921.55555208 9975.07861463
0.03800000 1585111.73151121 10200.19446434
0.03900000 1579170.19871291 12317.52812039
0.04000000 1573096.75884730 13544.36372131
0.04100000 1566895.75647901 10858.58809587
0.04200000 1560567.69617182 13085.36073947
0.04300000 1554113.79944568 12308.58186295
0.04400000 1547537.37952308 13579.64113598
0.04500000 1540839.92385466 12758.15516232
0.04600000 1534021.46410724 10814.85182470
0.04700000 1527086.29885364 16492.53279465
0.04800000 1520034.91303731 11172.25713065
0.04900000 1512871.09956548 19289.10741732
0.05000000 1505594.32053930 13821.35650616
0.05100000 1498209.65674921 12854.63945373
0.05200000 1490714.73248659 17776.77401332
0.05300000 1483116.15239745 15617.21381279
0.05400000 1475413.58931503 20692.67655512
0.05500000 1467610.00591108 18491.88693711
0.05600000 1459706.01559134 12480.48701570
0.05700000 1451707.33228505 15155.82525651
0.05800000 1443612.42654069 16608.76174285
0.05900000 1435424.07022947 15502.58068254
0.06000000 1427146.53161086 14364.23051174
0.06100000 1418780.43780911 14514.12455705
0.06200000 1410328.51127141 15993.12606539
0.06300000 1401793.73285387 14802.94251105
0.06400000 1393175.06912421 14941.80331514
0.06500000 1384478.80109377 20559.51115797
0.06600000 1375705.46067085 16591.00863196
0.06700000 1366857.21051627 20912.91629960
0.06800000 1357936.91178195 15460.11246431
0.06900000 1348947.24049147 15580.34135713
0.07000000 1339888.94051368 14269.81788470
0.07100000 1330765.17515783 25870.07621676
0.07200000 1321578.31476818 18812.66819204
0.07300000 1312331.55677461 17480.25715529
0.07400000 1303026.73294527 16124.95657588
0.07500000 1293665.67760355 14747.78941595
0.07600000 1284249.17100018 16316.38648248
0.07700000 1274783.50914736 16406.46453200
0.07800000 1265268.14444129 23989.48514362
0.07900000 1255705.37685297 21095.85132060
0.08000000 1246099.41530274 16654.11946678
0.08100000 1236451.37631243 18250.02317063
0.08200000 1226762.95827430 16800.51950193
0.08300000 1217037.29456897 21468.53888376
0.08400000 1207276.72797003 16932.05690455
0.08500000 1197483.20246377 21626.54765176
0.08600000 1187659.02934804 15498.95106069
0.08700000 1177807.88201072 20211.18420437
0.08800000 1167929.27620575 15591.85656960
0.08900000 1158028.30178090 21886.73593167
0.09000000 1148105.44797989 18805.96812133
0.09100000 1138163.03406932 21989.31085130
0.09200000 1128203.49640569 18886.12741723
0.09300000 1118231.24744945 22073.88586195
0.09400000 1108243.51588205 18950.96501223
0.09500000 1098246.05948815 18977.69279996
0.09600000 1088240.09543213 17417.28354614
0.09700000 1078230.26043521 15849.98557355
0.09800000 1068215.84179139 20621.90779538
0.09900000 1058200.21974197 20634.90525527
0.10000000 1048183.76699846 25407.97570691
0.10100000 1038169.07856749 17472.38641405
0.10200000 1028159.44783763 17473.57063789
0.10300000 1018155.74500581 17471.55340617
0.10400000 1008161.47208492 28581.37907822
0.10500000 998178.76666686 19045.25176407
0.10600001 988205.19151247 15860.69407008
0.10700001 978248.53303866 15847.62698098
0.10800001 968307.03767072 15831.82081099
0.10900001 958384.55815641 17394.68054923
0.11000001 948481.11754949 20529.87475569
0.11100001 938600.04195599 20499.02588128
0.11200001 928742.26052722 18890.61846844
0.11300001 918909.72377205 17284.69271793
0.11400001 909104.64306788 17250.26141443
0.11500001 899329.17575770 17213.16123454
0.11600001 889583.78529549 18734.63540056
0.11700001 879871.52997925 15573.72681408
0.11800001 870191.65490634 18639.50612598
0.11900001 860547.19086019 18587.82019810
0.12000001 850938.93137073 24711.26773103
0.12100001 841371.87964727 15397.10612287
0.12200001 831843.70364260 16882.26876077
0.12300001 822358.15826140 18355.03495718
0.12400001 812914.09948461 16766.35409186
0.12500001 803514.60299737 22779.64006836
0.12600001 794162.31493381 27231.82706234
0.12700001 784856.70858552 16576.17446650
0.12800001 775599.21668168 19510.19921513
0.12900001 766392.22443508 22416.97362128
0.13000001 757236.50787366 25295.48673782
0.13100001 748132.05012611 23700.82446520
0.13200001 739082.19463627 17693.62857368
0.13300001 730086.86791505 17609.69608428
0.13400001 721146.82988133 14603.22399358
0.13500001 712264.42178800 18889.25335641
0.13600001 703439.90964879 26020.24348478
0.13700001 694674.71302594 17255.72068523
0.13800001 685967.55393639 21453.63626102
0.13900001 677323.56350339 17068.55460521
0.14000001 668739.98783858 18387.00683276
0.14100001 660220.66115723 16875.24089507
0.14200001 651764.23890032 20970.51537570
0.14300001 643373.50749665 13896.86841741
0.14400001 635044.81739846 13812.22542994
0.14500001 626785.11540831 20589.89201243
0.14600001 618591.11033403 19095.90847685
0.14700001 610466.21206494 16262.82065663
0.14800001 602407.09477396 17502.93896442
0.14900001 594417.56956360 16049.27513543
0.15000001 586496.98685367 15940.98885482
0.15100001 578646.59193575 22428.34296171
0.15200001 570867.67180256 14411.55505469
0.15300001 563159.54109615 19513.47901980
0.15400001 555520.79287316 21956.96037448
0.15500001 547955.87829428 12822.16815720
0.15600001 540461.21824868 17819.00720663
0.15700001 533042.23457228 13896.41171117
0.15800001 525692.71459623 12537.77183489
0.15900001 518418.95160913 18663.08313884
0.16000001 511216.32638715 14815.04983801
0.16100001 504089.82795271 15924.19841672
0.16200001 497036.64807836 13367.80128111
0.16300001 490057.51055344 15672.03992734
0.16400001 483153.31494002 17937.06766395
0.16500001 476322.68807785 14232.52259170
0.16600001 469567.55351932 15291.46810231
0.16700001 462885.88943595 13997.66995744
0.16800001 456279.17184172 11566.67755232
0.16900001 449748.83127609 14909.17446078
0.17000001 443291.51859825 15918.59918453
0.17100001 436909.79136286 12399.50046440
0.17200001 430602.21554837 13408.95362539
0.17300001 424369.62645900 13291.25732837
0.17400001 418212.15256279 12075.87647555
0.17500001 412127.82494656 18496.29765714
0.17600001 406116.88707825 12938.88463340
0.17700001 400182.80465910 12821.85766686
0.17800001 394320.70380860 10587.51139733
0.17900001 388531.81848978 12588.43151367
0.18000001 382817.94353193 11432.85842361
0.18100001 377177.58742199 10296.94862301
0.18200001 371607.86684683 10200.63642680
0.18300001 366111.57330346 12125.61588062
0.18400001 360687.33880432 10009.07412466
0.18500001 355335.56590492 13879.40785994
0.18600001 350055.59882914 11782.87201325
0.18700001 344845.70057739 10697.11413729
0.18800001 339705.41335965 13482.90849326
0.18900001 334639.08493917 11444.65724565
0.19000001 329638.50379102 11332.97229580
0.19100001 324710.19936596 14027.48127541
0.19200001 319848.94770531 12037.51571568
0.19300001 315058.44848317 11918.66166931
0.19400001 310334.09683556 10892.72731365
0.19500001 305678.04264814 9885.62836639
0.19600001 301087.70759377 9786.85639783
0.19700001 296565.79289042 12331.20625113
0.19800001 292108.69028822 9591.38929889
0.19900001 287717.20347614 8631.51651221
0.20000001 283389.11477683 8544.18221433
0.20100001 279126.80010197 11840.55941994
0.20200001 274926.94135414 10045.83091188
0.20300001 270790.54077226 9114.81003320
0.20400001 266716.69548725 9841.84652866
0.20500001 262703.97615665 8929.30857163
0.20600001 258752.16144592 12051.38248899
0.20700001 254861.12681444 7951.66753248
0.20800001 251029.50785076 7869.77544313
0.20900001 247259.36682091 11683.00563456
0.21000001 243544.73349782 9249.82941551
0.21100001 239889.50438175 11442.72989995
0.21200001 236290.38348404 9814.32154198
0.21300001 232747.58334201 11206.79666772
0.21400001 229261.30719614 11829.88401060
0.21500001 225830.77610383 8048.60924086
0.21600001 222453.25409166 7964.93913932
0.21700001 219130.25709119 9315.22766937
0.21800001 215860.20560511 9218.31051621
0.21900001 212641.62876690 14736.06557029
0.22000001 209474.28405609 8332.88741375
0.22100001 206359.38068059 9620.47478222
0.22200001 203294.34788490 10880.31401327
0.22300001 200278.09937368 8075.21334859
0.22400001 197310.20948889 7325.14187365
0.22500001 194392.63469983 10543.85700471
0.22600001 191520.39506759 11738.28556878
0.22700001 188695.96367647 11616.12407324
0.22800001 185916.70058144 9579.35845047
0.22900001 183182.61508417 8215.74067506
0.23000001 180493.61778287 7504.92498233
0.23100001 177849.54463683 8664.83022449
0.23200001 175246.88382330 7349.85465515
0.23300001 172688.05790411 7273.62134292
0.23400001 170169.67354431 6598.32940375
0.23500001 167692.71073053 6529.95446469
0.23600001 165256.58003049 6462.35886774
0.23700001 162860.05136619 5814.10410877
0.23800001 160502.58782776 6904.82165494
0.23900001 158183.65221193 6264.07292388
0.24000001 155901.99906588 6763.02903937
0.24100001 153658.54463814 5577.80543420
0.24200001 151451.61272076 8280.61731720
0.24300001 149279.86398008 7102.73626415
0.24400001 147143.19505929 6489.01520907
0.24500001 145040.97212190 6422.41454937
0.24600001 142972.56810984 6356.56067886
0.24700001 140938.55125970 5767.20579037
0.24800001 138936.67044102 5708.21337511
0.24900001 136965.72493779 5649.83642096
0.25000001 135027.67596718 8642.44680914
0.25100001 133119.71308726 5535.11793203
0.25200001 131243.98070647 5478.78023379
0.25300001 129396.15232225 5422.99300039
0.25400001 127578.80734295 6343.85649526
0.25500001 125788.37658111 5796.32866709
0.25600001 124027.67942333 5259.39399478
0.25700001 122293.49930569 5679.31037646
0.25800001 120586.28367241 5153.25507656
0.25900001 118906.87605638 6956.05257842
0.26000001 117252.08566387 6885.62905641
0.26100001 115622.78477376 4998.37322227
0.26200001 114019.54265850 7196.91387314
0.26300001 112439.40398559 6678.90091277
0.26400001 110884.27986456 6611.47549977
0.26500001 109352.61537397 4363.16955988
0.26600001 107843.61707304 4751.05077497
0.26700001 106357.51509735 5130.68677108
0.26800001 104893.97821195 5078.96666536
0.26900001 103451.33083135 6703.64655510
0.27000001 102030.66619668 4147.54677717
0.27100001 100630.58595338 6569.16496191
0.27200001 99251.69091050  5283.66401566
0.27300001 97892.70241450  5230.40733753
0.27400001 96552.03284018  3982.77154314
0.27500001 95232.78263317  3942.63738760
0.27600001 93930.33481068  6634.76951335
0.27700001 92648.46496964  6181.50587532
0.27800001 91383.54720955  4589.28195806
0.27900001 90136.95806317  3785.75241782
0.28000001 88907.58502015  3747.45488596
0.28100001 87695.59668586  4080.47630692
0.28200001 86501.32774625  4039.17969028
0.28300001 85323.12244682  4361.71822592
0.28400001 84160.66998684  3957.65569345
0.28500001 83014.86710306  6054.27454438
0.28600001 81884.54222289  3877.64268050
0.28700001 80770.40109479  4536.06594019
0.28800001 79669.67812502  4835.15299427
0.28900001 78586.01152528  4444.03916211
0.29000001 77515.86969938  4398.63823430
0.29100001 76460.75081460  4018.77725304
0.29200001 75419.53209899  4640.56402971
0.29300001 74392.64815713  3280.71593903
0.29400001 73378.65115996  3896.40656104
0.29500001 72379.56095629  4499.11372202
0.29600001 71392.49122377  4770.80345187
0.29700001 70419.10718410  3777.28108816
0.29800001 69458.90586107  3426.75528287
0.29900001 68511.79353121  3083.03085485
0.30000001 67576.06228250  3356.16529214
0.30100001 66654.14663870  3623.31958281
0.30200001 65743.23118363  3286.83299863
0.30300001 64845.36990162  3844.03370975
0.30400001 63959.11999734  3803.96884193
0.30500001 63085.20174066  3474.73307638
0.30600001 62221.53748647  4871.01329274
0.30700001 61370.34830250  3118.84124839
0.30800001 60530.46143101  3086.14572217
0.30900001 59701.89487978  3331.36589201
0.31000001 58884.55512011  3296.35755169
0.31100001 58077.60536944  2989.83526597
0.31200001 57282.49783989  3765.17876128
0.31300001 56497.34863021  2927.12777112
0.31400001 55724.25265490  2632.97106261
0.31500001 54960.26623432  3647.16343999
0.31600002 54208.28176908  2835.36431218
0.31700002 53465.98485107  2805.36035796
0.31800002 52733.69960918  4541.95376239
0.31900002 52012.41423596  3495.23440215
0.32000002 51301.67034707  3705.26331626
0.32100002 50600.23196857  3421.58784773
0.32200002 49909.96912199  3385.39336584
0.32300002 49228.24722726  3349.49009994
0.32400002 48557.76673384  3077.34861247
0.32500002 47896.34505839  2576.34452269
0.32600002 47245.06063994  2549.10736753
0.32700002 46603.77006837  3668.64895350
0.32800002 45973.05087438  2722.52420170
0.32900002 45350.06350789  2244.82824994
0.33000002 44738.07748992  2665.49478307
0.33100002 44134.51342808  2197.89887280
0.33200002 43542.18801009  2392.42563351
0.33300002 42958.38730569  2797.87989771
0.33400002 42384.64845611  2342.81155436
0.33500002 41820.11140741  3161.60057212
0.33600002 41264.44902625  2711.69339618
0.33700002 40718.17691101  3509.49983416
0.33800002 40182.14057219  2247.58813935
0.33900002 39654.46648856  2831.32904137
0.34000002 39136.10376986  2001.81180263
0.34100002 38627.37361582  2377.90123240
0.34200002 38128.18784918  2942.54303662
0.34300002 37637.43511754  2718.92844166
0.34400002 37156.48373826  2115.13293697
0.34500002 36684.38281521  2855.87933742
0.34600002 36221.94479443  2262.42277901
0.34700002 35767.18149327  2427.16105109
0.34800002 35322.44696633  2034.04320489
0.34900002 34886.08571242  2564.12742130
0.35000002 34459.13241043  2902.83745174
0.35100002 34041.62438387  2696.09677890
0.35200002 33631.48491704  2493.10209498
0.35300002 33231.42703789  2117.50663115
0.35400002 32839.38414285  1748.69728843
0.35500002 32456.58399866  1906.49983438
0.35600002 32082.21196820  2577.00379840
0.35700002 31716.32812128  1703.16690078
0.35800002 31359.43781640  2026.44696768
0.35900002 31011.61604036  2177.01554915
0.36000002 30672.01360255  1993.06753830
0.36100002 30340.39371057  1976.98014782
0.36200002 30018.66507060  1797.96802957
0.36300002 29704.01163635  1621.83911217
0.36400002 29398.18964577  1931.46115122
0.36500002 29100.11307382  1597.59628343
0.36600002 28811.03250720  1903.25689758
0.36700002 28529.73986578  1889.81005823
0.36800002 28257.32327371  2033.25579247
0.36900002 27992.83062848  1864.32260817
0.37000002 27735.68921142  1852.18941328
0.37100002 27486.67248825  1687.13203725
0.37200002 27246.17925772  1829.30856202
0.37300002 27013.31655072  1515.44713028
0.37400002 26788.11583885  1958.88106351
0.37500002 26570.80004521  2098.03047096
0.37600002 26361.41802574  2236.10738996
0.37700002 26159.46524348  1779.89009948
0.37800002 25964.88082073  1771.32425350
0.37900002 25778.68325848  1763.26201841
0.38000002 25599.07183072  2048.18183420
0.38100002 25426.20237832  1893.99790489
0.38200002 25261.78358317  1886.67639629
0.38300002 25103.81951259  1735.17608691
0.38400002 24953.21887607  1729.25815003
0.38500002 24809.12675526  2298.31761149
0.38600002 24672.82868964  1575.48355062
0.38700002 24542.62147363  1856.89482867
0.38800002 24419.03973954  1567.33613994
0.38900002 24302.29679859  2416.86353112
0.39000002 24192.63869382  1560.78815928
0.39100002 24088.62685361  1841.33472393
0.39200002 23991.72345099  2262.89946311
0.39300002 23900.39668779  1412.51351117
0.39400002 23816.54127085  1552.24315087
0.39500002 23737.40926346  1833.00283017
0.39600002 23664.61449877  1550.15064618
0.39700002 23597.11774259  1690.49759517
0.39800002 23536.63970561  1972.13513437
0.39900002 23480.56515180  1549.71737344
0.40000002 23430.73051497  1550.29435797
0.40100002 23385.76198338  1410.16151441
0.40200002 23346.70143214  2399.22388635
0.40300002 23312.64959559  1554.02129567
0.40400002 23283.81275057  1980.28836826
0.40500002 23259.42218001  1558.14876566
0.40600002 23240.83129620  1986.39394500
0.40700002 23226.57076858  1563.61281823
0.40800002 23216.63936386  1994.07724944
0.40900002 23211.12662841  1570.23279081
0.41000002 23210.80607485  1860.23014101
0.41100002 23214.34420178  1721.57584758
0.41200002 23221.19507646  1726.26372378
0.41300002 23233.63083757  1587.08939772
0.41400002 23249.08975891  2170.88385910
0.41500002 23268.41410676  1597.14401997
0.41600002 23290.46962048  1602.50083817
0.41700002 23317.57340002  1608.21311360
0.41800002 23348.57709642  2347.93302407
0.41900002 23380.99415771  1620.30297191
0.42000002 23417.25482998  2661.83948265
0.42100002 23457.52494419  2078.80595906
0.42200002 23500.04776962  1938.40153213
0.42300002 23545.17445796  1497.47316648
0.42400002 23593.00907645  1654.45983988
0.42500002 23644.03094688  1813.02437892
0.42600002 23696.21414154  1821.29110522
0.42700002 23751.92915806  1677.36131663
0.42800002 23809.15576716  1685.33117084
0.42900002 23869.45186662  1847.49566202
0.43000002 23931.52913192  1856.60811803
0.43100002 23993.95036000  2176.73127981
0.43200002 24059.46281579  2343.99327591
0.43300002 24125.83380490  1570.59185513
0.43400002 24194.27534619  1736.54419526
0.43500002 24263.54770259  2062.88692343
0.43600002 24334.76185746  1914.17245842
0.43700002 24406.49213127  1924.20793082
0.43800002 24478.79549058  1611.92875944
0.43900002 24553.04129990  1782.55088285
0.44000002 24627.39511531  2117.83294330
0.44100002 24702.78939579  2292.91302038
0.44200002 24778.66614722  2305.15942092
0.44300002 24855.08609503  1820.88369361
0.44400002 24931.68702282  1997.02822517
0.44500002 25008.17594021  2174.96116459
0.44600002 25084.62653635  2354.69400456
0.44700002 25162.24734064  2705.44496228
0.44800002 25238.49420101  1699.81266499
0.44900002 25315.51679716  1879.67721127
0.45000002 25392.37140245  1889.57340746
0.45100002 25468.01211662  2417.42382468
0.45200002 25543.68619160  1909.26291488
0.45300002 25618.30138440  1744.60640696
0.45400002 25692.56181420  2454.92439769
0.45500002 25766.49696622  1938.67132362
0.45600002 25839.01268817  1771.26440372
0.45700002 25911.02616937  2848.14013152
0.45800002 25981.66012405  1788.83738432
0.45900002 26050.99073764  1797.51844609
0.46000002 26119.79091863  1806.18362763
0.46100002 26186.51211870  1996.19791342
0.46200002 26252.47113604  2187.88104817
0.46300002 26317.16507972  2381.17720927
0.46400002 26379.59076471  2575.96716026
0.46500002 26441.59983689  2217.92149944
0.46600002 26500.99237654  2413.31298515
0.46700002 26558.63241640  1864.41608400
0.46800002 26615.42006140  2246.87386808
0.46900002 26669.39918111  2068.21200452
0.47000002 26721.94720613  2643.06792343
0.47100002 26772.66961915  2085.05560876
0.47200002 26821.44557857  2093.27981939
0.47300002 26868.12020328  2674.45281180
0.47400002 26912.00897747  3067.96916885
0.47500002 26954.27413877  1924.53526473
0.47600002 26994.94619837  3090.38158727
0.47700002 27032.29483860  2132.03719497
