# SAXS profile: number of points = 501, q_min = 0, q_max = 0.5, delta_q = 0.001
#    q    intensity    error
0.00000000 1719190.39626458 335.24212727
0.00100000 1719106.82630027 618.87847217
0.00200000 1718856.06039007 773.48525167
0.00300000 1718438.32953072 1031.06303445
0.00400000 1717853.48020045 1546.06819093
0.00500000 1717102.06549976 1699.93111213
0.00600000 1716183.96494349 1801.99323655
0.00700000 1715099.74400386 2263.93175617
0.00800000 1713849.24838905 3239.17521621
0.00900000 1712433.70056654 3852.97599098
0.01000000 1710852.50402834 4798.94148102
0.01100000 1709106.92395855 3384.03185678
0.01200000 1707196.90112099 3661.93751346
0.01300000 1705123.61861286 4654.98768412
0.01400000 1702887.12142180 4597.79543166
0.01500000 1700488.75662725 4489.29051740
0.01600000 1697928.00599638 6494.57491327
0.01700000 1695207.18494271 5034.76556513
0.01800000 1692326.20769986 6752.38187256
0.01900000 1689285.74658540 5574.64321527
0.02000000 1686087.00961852 6904.52661672
0.02100000 1682732.05711804 7774.22245636
0.02200000 1679219.28888042 9269.29089575
0.02300000 1675552.16937025 7841.58450959
0.02400000 1671730.19197030 7522.78620689
0.02500000 1667756.00063956 6504.24869955
0.02600000 1663629.35900717 8759.00897579
0.02700000 1659352.55407393 8363.13725557
0.02800000 1654925.45978408 10798.38912030
0.02900000 1650350.81240034 11139.86849518
0.03000000 1645629.68260404 12243.48540135
0.03100000 1640762.61124416 10238.35916526
0.03200000 1635751.11617566 11335.75575720
0.03300000 1630598.95733698 8316.05506579
0.03400000 1625304.04363859 8532.84662281
0.03500000 1619869.96906775 8747.29823690
0.03600000 1614298.09197811 11647.16127188
0.03700000 1608589.96136571 15587.23744650
0.03800000 1602747.29834655 12188.89376802
0.03900000 1596772.13085286 15329.01316607
0.04000000 1590664.16854026 10760.84359882
0.04100000 1584427.99945461 12976.46591721
0.04200000 1578063.86042759 10178.51237197
0.04300000 1571573.14283980 12446.85986905
0.04400000 1564959.05393390 14788.86374650
0.04500000 1558223.13355773 18277.95820592
0.04600000 1551365.34109959 13124.55139582
0.04700000 1544390.30118787 13343.53282284
0.04800000 1537298.06642191 13558.96957671
0.04900000 1530092.76175654 11475.69624734
0.05000000 1522773.69303391 16308.90701184
0.05100000 1515345.96872492 16547.57874933
0.05200000 1507807.22735493 15583.18842091
0.05300000 1500164.15534686 14581.59626973
0.05400000 1492416.27080080 13543.67828911
0.05500000 1484566.58966777 21199.61188940
0.05600000 1476616.03662711 16412.58801299
0.05700000 1468569.81099675 15331.86954248
0.05800000 1460426.62455383 15509.73147695
0.05900000 1452189.41951754 20911.52861774
0.06000000 1443862.34726222 17174.74342307
0.06100000 1435446.06590580 17354.54374780
0.06200000 1426943.16119786 14833.07485400
0.06300000 1418356.62042173 17701.09145048
0.06400000 1409685.68619299 13744.43608316
0.06500000 1400936.50476916 15256.19925059
0.06600000 1392109.40616342 15389.77020520
0.06700000 1383207.05428479 15519.58387538
0.06800000 1374231.74857905 15645.62918993
0.06900000 1365186.47637065 18634.79627492
0.07000000 1356071.93626613 14442.16679754
0.07100000 1346891.36609447 16001.07017866
0.07200000 1337646.96142719 19041.40538794
0.07300000 1328342.13846894 23591.35748460
0.07400000 1318978.76362756 14838.51178620
0.07500000 1309558.41488088 17914.75995528
0.07600000 1300081.99076711 15015.94769732
0.07700000 1290555.99299026 15099.50582598
0.07800000 1280979.54486693 18215.52998225
0.07900000 1271355.25894547 21358.76935209
0.08000000 1261687.14821089 18395.39948386
0.08100000 1251976.50089618 18479.17402024
0.08200000 1242224.88773221 17012.27063580
0.08300000 1232435.42396265 17081.55577779
0.08400000 1222610.75885398 20264.77427921
0.08500000 1212752.26262706 21902.30689125
0.08600000 1202862.75311893 18836.83159826
0.08700000 1192946.01965532 18896.26583867
0.08800000 1183001.25276381 20530.98770593
0.08900000 1173033.34393608 20586.73615303
0.09000000 1163043.22798687 19050.64896934
0.09100000 1153033.17347228 17503.04439562
0.09200000 1143005.51400553 15944.92766958
0.09300000 1132964.52017704 22364.72067926
0.09400000 1122907.79859157 22402.01163474
0.09500000 1112840.89047558 17627.40053367
0.09600000 1102765.07640513 19254.27913913
0.09700000 1092685.10359540 16062.47177799
0.09800000 1082599.85045047 24114.91280261
0.09900000 1072513.08184794 20914.00607946
0.10000000 1062425.23157516 16095.74301530
0.10100000 1052338.65118186 19320.93854440
0.10200000 1042256.68372061 17713.15317299
0.10300000 1032180.20573575 20932.61555701
0.10400000 1022113.07852545 17708.10991853
0.10500000 1012057.12460214 20919.22174976
0.10600001 1002009.71598608 16082.25669830
0.10700001 991979.20795377 20891.08310259
0.10800001 981963.26622319 19266.12019000
0.10900001 971966.11851965 24056.16256558
0.11000001 961987.82982630 28830.77661695
0.11100001 952031.69838495 17593.54661434
0.11200001 942098.25676176 19162.27944464
0.11300001 932190.06562785 22316.63122182
0.11400001 922308.91496034 19091.79543861
0.11500001 912457.29438712 20639.78497092
0.11600001 902635.09378031 15841.24664183
0.11700001 892846.30370287 23705.07047970
0.11800001 883089.30340612 20492.08825068
0.11900001 873367.53878808 26725.04794571
0.12000001 863681.76858568 23513.73725736
0.12100001 854037.23290661 20317.54672797
0.12200001 844430.92892994 17137.72651001
0.12300001 834867.68139352 20187.10148720
0.12400001 825345.25860093 18570.26919350
0.12500001 815867.34681403 24671.82973020
0.12600001 806436.60582841 16898.87987147
0.12700001 797052.15371452 15303.40207251
0.12800001 787715.88568796 16766.53341706
0.12900001 778429.90423016 16697.32223272
0.13000001 769195.02605802 24183.49275915
0.13100001 760011.15690940 18057.86593937
0.13200001 750882.18794427 19474.13046235
0.13300001 741807.44351993 16401.36334943
0.13400001 732787.67262923 16322.84617737
0.13500001 723825.81291634 16242.65200765
0.13600001 714921.40598532 16160.79914429
0.13700001 706076.43928260 16077.36128056
0.13800001 697289.29982155 17446.17910422
0.13900001 688565.63361008 15905.86688648
0.14000001 679902.09843119 15817.92306598
0.14100001 671302.87623357 17158.50232578
0.14200001 662766.40210428 21324.50999348
0.14300001 654295.74374201 16959.34647772
0.14400001 645886.95123197 15452.84603713
0.14500001 637547.35737887 16754.74534227
0.14600001 629273.33391100 22200.76426769
0.14700001 621068.44256346 19302.80810551
0.14800001 612929.42402767 24658.15189197
0.14900001 604859.93998991 17692.15407943
0.15000001 596859.35470021 16222.63802618
0.15100001 588929.37185206 17455.86740535
0.15200001 581070.53347407 13335.56937250
0.15300001 573282.84319630 13242.83430275
0.15400001 565564.25058298 18409.11722522
0.15500001 557919.61231794 15666.38345323
0.15600001 550345.59169558 22033.08680338
0.15700001 542847.19725063 19298.21877307
0.15800001 535418.35853636 15323.67414457
0.15900001 528065.51020653 15208.28741179
0.16000001 520783.73664363 15092.31340033
0.16100001 513578.24342248 14975.94228513
0.16200001 506446.20539278 14859.13236767
0.16300001 499388.27772369 14741.94265434
0.16400001 492405.47143140 12187.03599327
0.16500001 485496.53307102 15715.52351746
0.16600001 478663.36481566 16786.72499664
0.16700001 471903.35250800 11891.96504468
0.16800001 465218.64810368 18869.26925802
0.16900001 458610.80338534 11694.57603852
0.17000001 452076.14080278 11595.75355914
0.17100001 445616.95312779 13796.30152032
0.17200001 439232.03370771 14817.49335685
0.17300001 432922.76229148 13559.14155529
0.17400001 426688.36053909 17920.91198898
0.17500001 420527.50224377 12212.11924191
0.17600001 414440.26419863 13204.06744098
0.17700001 408430.11479213 16357.62687001
0.17800001 402492.20209085 14048.99097754
0.17900001 396627.56384832 10708.94472973
0.18000001 390838.69758643 15916.90671104
0.18100001 385123.17650800 13668.02217990
0.18200001 379478.44657787 12500.02062075
0.18300001 373907.71554472 15479.78015481
0.18400001 368409.08920451 10223.35270838
0.18500001 362983.42740387 10127.23810300
0.18600001 357629.68014551 12037.81560241
0.18700001 352346.22082906 13910.62945554
0.18800001 347132.70111285 10825.33379566
0.18900001 341993.51944549 13645.54207059
0.19000001 336920.38493644 15444.43117522
0.19100001 331919.87402055 9559.29282347
0.19200001 326986.63204643 10412.88978954
0.19300001 322124.58373832 11248.59099567
0.19400001 317328.85445417 13922.80414708
0.19500001 312601.94281504 10109.54730837
0.19600001 307940.84242224 11829.54802067
0.19700001 303348.84174714 11712.29933335
0.19800001 298821.62312715 8919.82587189
0.19900001 294360.53322705 10596.97969699
0.20000001 289963.11573535 9616.62718786
0.20100001 285632.05332147 9520.11678715
0.20200001 281363.34598707 10281.01714828
0.20300001 277158.88894033 10177.27488291
0.20400001 273017.14137340 10913.86074225
0.20500001 268936.90602712 8310.15078903
0.20600001 264918.13024217 11515.99166597
0.20700001 260960.34839463 8141.96325478
0.20800001 257062.27637153 12088.35411779
0.20900001 253226.24527155 10369.61523405
0.21000001 249446.03293983 8684.46404734
0.21100001 245725.68159280 8595.48474845
0.21200001 242061.69182903 7733.87141955
0.21300001 238454.61865284 10716.15106887
0.21400001 234904.35479415 8333.23238029
0.21500001 231410.13936952 13495.83996608
0.21600001 227969.50437280 8162.44848998
0.21700001 224583.74564574 8078.27771281
0.21800001 221251.38531764 10175.35169185
0.21900001 217970.61513836 8631.63676760
0.22000001 214741.88530132 9254.30198463
0.22100001 211565.75014189 9158.68175670
0.22200001 208440.21447366 9761.25570536
0.22300001 205363.75064840 6900.22234807
0.22400001 202335.86776440 6828.83585996
0.22500001 199358.88558661 7434.09319506
0.22600001 196427.66723272 8694.87110122
0.22700001 193544.77250064 6619.23153254
0.22800001 190707.30467698 8516.03509307
0.22900001 187915.65150468 6483.09028350
0.23000001 185169.27777119 8340.95051166
0.23100001 182468.45547331 8254.87331601
0.23200001 179809.55728544 7541.21318920
0.23300001 177194.80582551 8707.35317008
0.23400001 174620.76903487 9233.07359940
0.23500001 172088.97403931 6091.94996912
0.23600001 169598.25853332 9043.82756404
0.23700001 167147.46812224 7160.59787304
0.23800001 164736.25238117 6496.37441992
0.23900001 162364.16975322 6429.62142635
0.24000001 160029.69767092 6363.58122888
0.24100001 157733.95542759 6298.31713814
0.24200001 155475.03095260 6800.47817554
0.24300001 153251.92527967 6169.92280361
0.24400001 151064.28378505 6661.93523005
0.24500001 148911.41263922 5494.83138632
0.24600001 146792.96895745 7614.15166001
0.24700001 144709.45049736 6459.83017579
0.24800001 142658.35586852 6926.77679688
0.24900001 140638.56229375 7383.52486972
0.25000001 138652.24121392 7308.35998013
0.25100001 136696.40849704 6717.26183133
0.25200001 134773.46400901 7671.97980167
0.25300001 132878.68053461 5568.94576467
0.25400001 131014.98261147 6013.58798638
0.25500001 129178.34366674 6448.58322094
0.25600001 127372.14245995 5401.21595656
0.25700001 125592.98180570 6318.58321360
0.25800001 123841.02695152 4811.22412471
0.25900001 122117.35430570 8096.38097355
0.26000001 120418.86039289 6128.71818968
0.26100001 118746.41271011 6533.42793645
0.26200001 117100.12487991 5543.52017412
0.26300001 115477.71339907 5944.79296708
0.26400001 113880.60099424 6337.45574521
0.26500001 112307.45071569 6273.49449383
0.26600001 110757.33594745 5322.99781752
0.26700001 109230.59744229 6586.60533745
0.26800001 107726.93170640 6520.17285007
0.26900001 106244.53807315 5593.77519426
0.27000001 104784.51625571 5963.28710231
0.27100001 103345.64083422 6746.40375292
0.27200001 101928.26822528 5008.75533762
0.27300001 100531.41456235 4958.20960086
0.27400001 99153.03183876  7362.11296244
0.27500001 97796.80155582  4858.54533123
0.27600001 96457.78994779  4809.38563441
0.27700001 95139.64831871  6347.71763624
0.27800001 93838.83932131  5105.30229490
0.27900001 92556.90639497  4276.12927783
0.28000001 91292.48523447  4617.57412170
0.28100001 90045.91709201  4189.83672059
0.28200001 88817.43929571  3770.30047655
0.28300001 87605.63737260  5598.00049306
0.28400001 86409.81689127  5171.62778572
0.28500001 85231.21516588  6215.91281626
0.28600001 84068.40050811  3981.05929449
0.28700001 82922.21703216  3582.23994535
0.28800001 81789.80997315  4609.26495921
0.28900001 80674.94968540  3509.36047743
0.29000001 79573.98233453  3473.40449331
0.29100001 78488.37272910  5156.68633239
0.29200001 77417.08709250  4763.47359428
0.29300001 76360.54749272  3704.25033422
0.29400001 75317.36497409  3332.79355787
0.29500001 74289.32780344  4287.98020379
0.29600001 73273.80039811  5549.39153585
0.29700001 72272.32069295  3876.68746548
0.29800001 71284.42858467  3516.81745071
0.29900001 70309.95687752  3796.73785112
0.30000001 69347.32311577  3131.03178690
0.30100001 68398.79621630  4337.85186139
0.30200001 67461.62253416  4599.19633400
0.30300001 66537.99285616  4247.78566503
0.30400001 65626.25547779  3602.88159630
0.30500001 64727.22226782  3565.17557129
0.30600001 63838.76102899  3233.75259302
0.30700001 62963.20763654  3199.79036358
0.30800001 62099.27937582  5468.77329714
0.30900001 61247.08437454  3132.78851408
0.31000001 60406.48309482  3381.55508375
0.31100001 59576.49236623  3066.99797222
0.31200001 58758.69233958  2758.72073596
0.31300001 57951.20255384  3548.35230037
0.31400001 57156.22394423  3780.88439292
0.31500001 56370.40952304  3206.34904548
0.31600002 55597.21044083  2643.64748163
0.31700002 54833.95233946  3923.36947565
0.31800002 54080.99996958  2846.55356818
0.31900002 53339.35616085  3072.34706034
0.32000002 52608.73974522  2533.11093867
0.32100002 51887.55823052  3007.40301744
0.32200002 51177.86017004  2975.48093118
0.32300002 50477.12464748  2698.50721143
0.32400002 49787.93018372  2912.59405366
0.32500002 49107.98551830  2881.65672667
0.32600002 48438.45825078  2851.08778765
0.32700002 47779.32330885  3526.11422716
0.32800002 47130.98736030  3023.68863728
0.32900002 46490.74583999  2991.67963647
0.33000002 45861.65172649  2732.43733926
0.33100002 45241.36857611  2928.92634031
0.33200002 44632.59912098  2452.33827483
0.33300002 44032.64866146  2647.24296289
0.33400002 43442.83643418  3056.20368787
0.33500002 42862.69678664  2160.28002035
0.33600002 42291.73887151  2351.63225132
0.33700002 41730.32537364  2750.44587563
0.33800002 41179.35706766  2303.36744666
0.33900002 40637.13065010  2279.74313743
0.34000002 40104.41934506  2666.74349064
0.34100002 39581.62529919  2233.59122141
0.34200002 39068.54306473  2412.09196305
0.34300002 38564.10142391  2586.88004603
0.34400002 38069.75382778  2364.13182467
0.34500002 37584.54645518  2145.70185875
0.34600002 37109.23072046  1931.53555048
0.34700002 36641.65671226  2869.04185645
0.34800002 36184.54537380  2841.39156005
0.34900002 35735.94138436  2063.75071269
0.35000002 35297.01714254  2230.06564869
0.35100002 34867.67640018  2393.31742146
0.35200002 34445.84746807  1823.90770982
0.35300002 34034.47702567  1987.95389723
0.35400002 33631.12204091  1969.94306685
0.35500002 33237.32956379  1774.87348277
0.35600002 32852.23715993  2287.00859821
0.35700002 32475.61181947  2267.12256850
0.35800002 32108.51438349  2247.75665588
0.35900002 31750.42250563  2228.87976547
0.36000002 31400.79421231  2210.45901328
0.36100002 31059.32588918  1855.17362323
0.36200002 30728.03192476  1673.14141755
0.36300002 30403.79782214  2822.08064752
0.36400002 30088.68088781  1976.82642797
0.36500002 29781.51464870  1962.00627799
0.36600002 29483.44023797  2272.28884677
0.36700002 29193.30363481  2256.05861176
0.36800002 28912.25161775  1600.29320285
0.36900002 28639.19696071  2225.26570926
0.37000002 28373.71410150  2210.59617036
0.37100002 28116.52114540  1882.68234508
0.37200002 27868.07569108  1715.14079965
0.37300002 27627.24336843  1704.87726903
0.37400002 27394.32609492  1695.02400742
0.37500002 27169.38472007  1685.58870788
0.37600002 26952.51084288  1828.99747244
0.37700002 26743.24932526  1971.24500115
0.37800002 26541.35869458  1508.87631327
0.37900002 26348.16881973  2102.58397142
0.38000002 26161.59346227  2242.70270580
0.38100002 25981.87346962  1637.63756237
0.38200002 25810.72892444  1631.10909165
0.38300002 25646.26496373  1477.22493189
0.38400002 25489.17982785  1619.20022527
0.38500002 25338.69994098  1907.24403491
0.38600002 25196.22459961  1462.64090730
0.38700002 25059.82407012  1750.17819597
0.38800002 24930.16053823  1600.14242995
0.38900002 24807.41678293  1596.35734561
0.39000002 24692.00946197  1882.64235062
0.39100002 24582.14341217  2023.60214156
0.39200002 24479.73952452  1731.69685601
0.39300002 24382.82076855  1441.02477569
0.39400002 24293.54785806  2015.14989030
0.39500002 24208.92321127  2157.01516032
0.39600002 24130.87163642  1580.69282143
0.39700002 24058.14739759  1579.89861445
0.39800002 23992.58579548  1435.95632789
0.39900002 23931.49340069  1723.06760649
0.40000002 23876.66165472  1867.03564655
0.40100002 23826.76591802  1867.78026881
0.40200002 23782.86667731  1437.67435876
0.40300002 23744.05846454  1870.55701446
0.40400002 23710.50526967  1584.45458972
0.40500002 23681.59549621  1730.65108086
0.40600002 23658.40003153  2022.08354650
0.40700002 23639.65484216  2604.14450080
0.40800002 23625.21696996  1594.34784276
0.40900002 23615.38987897  1888.05051028
0.41000002 23610.74694706  1601.16288008
0.41100002 23610.08673263  2042.74480090
0.41200002 23612.65639081  1755.36495927
0.41300002 23620.96392537  1613.54812220
0.41400002 23632.23997744  1912.43911079
0.41500002 23647.45714702  1623.16153548
0.41600002 23665.43077742  1776.32731832
0.41700002 23688.63400806  1633.80516495
0.41800002 23715.72752429  1937.69360919
0.41900002 23744.16573394  1795.05901454
0.42000002 23776.51117658  2252.23012792
0.42100002 23813.07466659  1507.36769782
0.42200002 23851.73687359  1513.39277634
0.42300002 23893.15534800  2431.36760342
0.42400002 23937.21792541  1525.99771506
0.42500002 23984.54200657  1685.87353753
0.42600002 24033.11225760  1539.32091304
0.42700002 24085.05993471  1700.88701319
0.42800002 24138.67413462  1553.32375417
0.42900002 24195.45506109  2028.78900301
0.43000002 24254.00070896  1724.82334215
0.43100002 24312.86776461  1733.02129638
0.43200002 24374.76306535  2216.39731056
0.43300002 24437.71526922  1749.98487336
0.43400002 24502.66447036  2238.31850544
0.43500002 24568.49582589  2249.49158442
0.43600002 24636.22382073  1937.88545757
0.43700002 24704.50927926  1947.70360388
0.43800002 24773.44781033  1794.46477718
0.43900002 24844.28768336  1967.66767777
0.44000002 24915.24183507  2142.58632314
0.44100002 24987.23353629  1656.65366196
0.44200002 25059.78116926  1998.26704513
0.44300002 25132.79441661  2175.99744371
0.44400002 25206.04711768  2187.25484229
0.44500002 25279.23632998  1860.29908968
0.44600002 25352.31180250  1699.87258692
0.44700002 25426.66601754  2050.40644483
0.44800002 25499.53515689  2060.87252905
0.44900002 25573.23566173  2071.43218677
0.45000002 25646.83454423  2255.51097089
0.45100002 25719.21216715  1743.76266757
0.45200002 25791.61010476  2453.55598555
0.45300002 25862.85550162  2818.01686901
0.45400002 25933.89973290  1946.98761472
0.45500002 26004.55989375  1956.58317913
0.45600002 26073.75548971  2323.56283059
0.45700002 26142.48669569  1975.58781322
0.45800002 26209.81972789  2345.91002593
0.45900002 26275.89856194  1994.34079537
0.46000002 26341.37237586  1821.50598612
0.46100002 26404.78333607  1829.85157192
0.46200002 26467.43007250  2205.79572679
0.46300002 26528.86004117  1846.40874638
0.46400002 26588.03942505  2410.87058913
0.46500002 26646.78189794  2607.65420012
0.46600002 26702.87107104  2244.64344862
0.46700002 26757.18849896  2817.53208248
0.46800002 26810.72714760  2451.97516750
0.46900002 26861.38535679  3029.96441186
0.47000002 26910.56921888  2471.60134705
0.47100002 26958.00444929  2672.07752766
0.47200002 27003.46879472  2299.07544215
0.47300002 27046.90456766  2115.33850650
0.47400002 27087.46566970  2508.97662657
0.47500002 27126.39773403  1936.82489001
0.47600002 27163.68392729  2915.34251568
0.47700002 27197.77295588  3900.16082673
