# SAXS profile: number of points = 501, q_min = 0, q_max = 0.5, delta_q = 0.001
#    q    intensity    error
0.00000000 1700912.83420644 280.65061764
0.00100000 1700829.78477183 663.32363181
0.00200000 1700580.57782796 841.78741268
0.00300000 1700165.43750555 2142.20852757
0.00400000 1699584.23771077 1529.62587206
0.00500000 1698837.48364454 1834.74455496
0.00600000 1697925.10287734 1782.82143060
0.00700000 1696847.63926077 2239.83897691
0.00800000 1695604.92511044 3662.50679287
0.00900000 1694198.17862742 4066.07580252
0.01000000 1692626.85503960 3351.40131769
0.01100000 1690892.16139222 3347.96662532
0.01200000 1688994.04850387 3622.89239288
0.01300000 1686933.67192684 3896.81695402
0.01400000 1684711.14011852 5685.90034996
0.01500000 1682327.74866253 5248.86280955
0.01600000 1679783.03893950 5996.82571709
0.01700000 1677079.24484256 4980.92558062
0.01800000 1674216.32812307 7157.27512479
0.01900000 1671194.85913173 5013.58480362
0.02000000 1668016.22309018 8406.80214466
0.02100000 1664682.30021444 7690.83257568
0.02200000 1661191.58280942 6877.33346528
0.02300000 1657547.56901631 5967.17152007
0.02400000 1653749.57041198 7441.87340619
0.02500000 1649800.41476888 7077.64410260
0.02600000 1645699.83786986 7331.59311304
0.02700000 1641449.99855551 7583.49934066
0.02800000 1637050.94873162 9969.64073498
0.02900000 1632505.23559516 8080.90128722
0.03000000 1627814.07315610 8326.26936691
0.03100000 1622977.84596855 9348.35282293
0.03200000 1617998.10874278 10411.81830931
0.03300000 1612878.76965076 10693.38673575
0.03400000 1607617.61927624 10971.99075781
0.03500000 1602218.27555828 9517.17699630
0.03600000 1596681.94301294 9747.74371257
0.03700000 1591010.32027269 9975.63516946
0.03800000 1585205.12949045 11128.14052403
0.03900000 1579268.28649491 10423.17117356
0.04000000 1573199.62715095 10642.69597085
0.04100000 1567003.61275409 10859.33553990
0.04200000 1560680.56362777 13086.30713313
0.04300000 1554231.78546503 12309.51631227
0.04400000 1547660.57275439 16714.73496201
0.04500000 1540968.38795784 13822.48708224
0.04600000 1534155.25646374 14060.53357912
0.04700000 1527225.59797426 15394.43474354
0.04800000 1520179.78361769 14525.31850830
0.04900000 1513021.59012910 14751.96119043
0.05000000 1505750.43780428 19582.28535552
0.05100000 1498371.51366028 14024.75802119
0.05200000 1490882.41083833 13037.76729036
0.05300000 1483289.80674034 14417.57759363
0.05400000 1475593.24487337 14608.37380549
0.05500000 1467795.53028767 14795.37963549
0.05600000 1459897.76118399 13730.33908465
0.05700000 1451905.23772304 13894.73377360
0.05800000 1443816.37063429 12777.77547674
0.05900000 1435634.36936673 14212.78092055
0.06000000 1427363.16808765 20896.59775707
0.06100000 1419003.50856543 13196.73324636
0.06200000 1410557.94344868 17328.70514527
0.06300000 1402029.64345301 17497.33076839
0.06400000 1393417.59717647 14944.40442862
0.06500000 1384727.80630978 20563.20888560
0.06600000 1375961.04457746 16594.09097402
0.06700000 1367119.45856384 15339.08104294
0.06800000 1358205.70477798 16868.91564296
0.06900000 1349222.67369389 15583.52261077
0.07000000 1340171.03608382 17127.38664320
0.07100000 1331054.10946709 20125.53907778
0.07200000 1321874.06336789 20264.33034075
0.07300000 1312633.88485310 18941.30784594
0.07400000 1303335.93568382 17595.03595631
0.07500000 1293981.57230698 16226.52967731
0.07600000 1284572.08506389 22255.21241707
0.07700000 1275113.12101933 16410.70663699
0.07800000 1265604.61617301 17996.89848597
0.07900000 1256048.61546544 15072.58409255
0.08000000 1246449.44339799 25745.41446113
0.08100000 1236808.20420729 18255.28995061
0.08200000 1227126.60530428 16805.49964824
0.08300000 1217407.75900696 30678.67696679
0.08400000 1207654.00138768 20016.86601257
0.08500000 1197867.19882518 24723.98014442
0.08600000 1188049.75351614 18604.86001359
0.08700000 1178205.39254393 18662.77429426
0.08800000 1168333.42957650 18716.70242082
0.08900000 1158439.09514894 15638.92851907
0.09000000 1148522.99061833 18812.80747007
0.09100000 1138587.14746426 25140.00539712
0.09200000 1128634.09440617 17318.89099242
0.09300000 1118668.44032011 17350.54832470
0.09400000 1108687.04966304 18958.54944024
0.09500000 1098696.10443573 20567.59204177
0.09600000 1088696.68106906 19008.64494502
0.09700000 1078693.00443514 19028.14549280
0.09800000 1068684.90672012 20630.96309425
0.09900000 1058675.61000647 23820.20234523
0.10000000 1048665.32100503 15887.28036036
0.10100000 1038656.89416782 15891.45122817
0.10200000 1028653.20976828 19071.23140614
0.10300000 1018655.44306311 22247.43592303
0.10400000 1008667.18415643 17475.15978763
0.10500000 998690.38583294 17467.09567003
0.10600001 988722.46962770 17455.89602264
0.10700001 978771.63536933 23784.15185870
0.10800001 968835.62506651 19008.55585838
0.10900001 958918.61844557 25315.45271845
0.11000001 949020.84743985 22121.67699508
0.11100001 939144.99017923 15777.63657772
0.11200001 929292.54756972 20476.96224970
0.11300001 919465.29199997 17295.14295679
0.11400001 909665.32607651 17260.90037502
0.11500001 899894.87001757 18789.80577074
0.11600001 890154.27129470 17184.42901658
0.11700001 880447.07369400 17142.30533214
0.11800001 870771.68697125 21760.58548230
0.11900001 861131.90587560 17050.41253944
0.12000001 851527.99034963 21637.32725401
0.12100001 841965.43181293 20030.35856642
0.12200001 832441.42269546 19966.10846398
0.12300001 822960.12352303 19899.17672432
0.12400001 813520.10192992 18304.20315587
0.12500001 804124.30214826 24316.72004278
0.12600001 794776.06193384 22710.72703997
0.12700001 785474.05734150 21113.54365634
0.12800001 776220.06672307 19525.81669866
0.12900001 767016.50318465 16452.50476875
0.13000001 757864.18897863 25316.45442612
0.13100001 748762.83801004 23720.80782630
0.13200001 739715.99118784 20660.26860781
0.13300001 730723.60002170 16156.29955814
0.13400001 721786.27585861 17539.40733027
0.13500001 712906.52955235 14543.29388856
0.13600001 704084.50332317 20256.51211572
0.13700001 695321.63669289 14393.15855823
0.13800001 686616.68070102 14315.95846770
0.13900001 677974.84919825 15661.21975503
0.14000001 669393.15423351 14157.66587972
0.14100001 660875.65107661 19707.31284456
0.14200001 652420.68426060 18192.75163867
0.14300001 644031.69051542 19475.51923980
0.14400001 635704.20856688 17974.53734509
0.14500001 627445.76742720 21985.70072776
0.14600001 619252.95595033 13654.52832285
0.14700001 611128.71710198 17637.17560762
0.14800001 603070.35276001 16174.34762411
0.14900001 595081.42083877 16067.19912071
0.15000001 587161.21959845 17288.96292682
0.15100001 579311.18354834 17170.78429058
0.15200001 571532.29089529 18363.33337298
0.15300001 563824.16839980 14326.77279511
0.15400001 556185.23075137 18103.83011530
0.15500001 548619.91032115 16689.01845957
0.15600001 541124.66259934 20389.57824903
0.15700001 533704.96899319 20238.09337940
0.15800001 526354.72648061 13808.91690098
0.15900001 519079.99176413 13703.71242940
0.16000001 511876.16041584 14834.17182906
0.16100001 504748.27191744 13491.92194523
0.16200001 497693.68173624 14602.33331146
0.16300001 490712.79217680 15692.99583465
0.16400001 483806.67249878 20356.16670639
0.16500001 476974.10829822 13064.32144307
0.16600001 470217.03387551 12956.83098017
0.16700001 463532.90909295 14017.23583279
0.16800001 456923.70302541 13899.61970232
0.16900001 450390.79751979 14930.45564277
0.17000001 443930.69139064 12525.50504904
0.17100001 437546.09061231 11288.68967086
0.17200001 431235.29894745 12309.61218975
0.17300001 424999.44631945 12201.73468005
0.17400001 418838.44634225 12093.96070928
0.17500001 412750.60092620 13075.93965489
0.17600001 406735.91072926 14038.49062185
0.17700001 400798.00385539 12841.56865004
0.17800001 394931.68894643 10603.91634906
0.17900001 389138.63674703 14709.44116382
0.18000001 383420.51388337 12491.84093237
0.18100001 377775.49072245 11344.59852227
0.18200001 372201.04111108 15325.37859169
0.18300001 366699.98327209 12145.10401970
0.18400001 361270.78741013 17042.95020119
0.18500001 355913.76888437 10922.99408309
0.18600001 350628.49703173 12785.66874830
0.18700001 345413.15760838 10714.71665523
0.18800001 340267.21075005 10611.23346858
0.18900001 335195.10520305 16240.20361440
0.19000001 330188.68338721 11351.88747122
0.19100001 325254.30631781 11240.78935747
0.19200001 320386.99179188 10202.72423571
0.19300001 315590.15266728 10102.04126423
0.19400001 310859.20323577 10001.89533674
0.19500001 306196.66020624 9002.18223546
0.19600001 301599.60738629 8912.26881943
0.19700001 297070.96813590 9705.30898765
0.19800001 292606.71781896 12228.03531554
0.19900001 288208.01366308 9510.86490036
0.20000001 283872.73410158 12838.14500649
0.20100001 279603.09828025 12707.96141745
0.20200001 275395.58463793 12578.69392285
0.20300001 271251.64577789 10790.39097905
0.20400001 267169.98630405 9037.02521388
0.20500001 263149.36852905 8944.44745908
0.20600001 259189.58455135 9657.40437687
0.20700001 255290.41489180 9558.07358535
0.20800001 251450.54388966 9459.56990828
0.20900001 247672.00605838 9362.00227156
0.21000001 243949.00308243 10809.38083757
0.21100001 240285.27906369 8405.17945899
0.21200001 236677.28482521 9074.20752918
0.21300001 233125.88620267 8231.67543097
0.21400001 229630.62077969 8146.14665728
0.21500001 226191.17900394 10992.89181931
0.21600001 222804.66952031 8702.75080292
0.21700001 219472.39083306 8612.09702347
0.21800001 216193.15419168 7812.13999608
0.21900001 212965.20910729 7027.85223283
0.22000001 209788.47262735 9736.28347499
0.22100001 206664.05725420 9634.67880475
0.22200001 203589.48252913 8172.08221513
0.22300001 200563.61055659 6738.93763335
0.22400001 197585.96419563 6668.52660693
0.22500001 194658.55895415 7918.71055271
0.22600001 191776.46257281 8488.98551721
0.22700001 188942.18534639 9046.55226219
0.22800001 186153.03361090 9591.53551039
0.22900001 183408.75208810 8225.88292016
0.23000001 180709.68382959 6261.59084082
0.23100001 178055.39566837 8055.22648099
0.23200001 175442.64346604 6131.72067913
0.23300001 172873.50460418 10315.36250759
0.23400001 170344.84535933 6004.65608291
0.23500001 167857.63033804 7130.59247401
0.23600001 165411.10065365 8820.54735954
0.23700001 163004.08785852 8146.94469650
0.23800001 160636.18080290 5758.80735417
0.23900001 158306.88251286 6838.85764803
0.24000001 156014.61148995 7331.90701377
0.24100001 153760.67785207 6697.81544405
0.24200001 151543.16743323 6076.12358565
0.24300001 149360.83607747 7653.24960263
0.24400001 147213.64526854 6492.12206344
0.24500001 145100.77771684 5889.64084613
0.24600001 143021.93829123 5828.85937079
0.24700001 140977.27099963 7866.53209391
0.24800001 138964.80719109 5709.36937354
0.24900001 136983.10319044 6164.23993518
0.25000001 135034.54670454 6100.86110873
0.25100001 133115.93608255 7044.49567076
0.25200001 131229.67479132 4980.16639394
0.25300001 129371.26984564 5914.85473718
0.25400001 127543.50992236 4878.53948534
0.25500001 125742.42961834 5311.36047837
0.25600001 123971.25884733 5257.00148014
0.25700001 122226.58871739 5203.18612788
0.25800001 120508.98816687 5149.95185298
0.25900001 118819.08309838 5097.33890610
0.26000001 117153.93427046 8255.83813867
0.26100001 115514.38477832 5447.65864391
0.26200001 113900.81900585 5841.40377911
0.26300001 112310.48838699 4892.24510563
0.26400001 110745.07681167 4842.32871272
0.26500001 109203.33519531 4792.93460852
0.26600001 107684.15852837 6037.85105439
0.26700001 106188.12615224 5549.39173531
0.26800001 104714.56194635 4647.75605192
0.26900001 103262.03610165 4600.32392602
0.27000001 101831.50059976 6623.12111243
0.27100001 100421.67538324 4097.20454953
0.27200001 99033.05448972  5272.02490525
0.27300001 97664.41403356  4415.40836741
0.27400001 96314.17184045  3972.95977644
0.27500001 94985.44553397  4718.87715745
0.27600001 93673.64297978  5059.78206501
0.27700001 92382.47527412  5008.05422162
0.27800001 91108.39976577  4194.17538172
0.27900001 89852.67657455  4528.57511368
0.28000001 88614.20419324  5229.12443693
0.28100001 87393.33677003  4066.41215237
0.28200001 86190.09571784  4390.52368367
0.28300001 85003.28151044  6518.05193472
0.28400001 83832.12332801  5375.73516285
0.28500001 82677.81659760  3546.87849992
0.28600001 81539.05719310  4212.30789397
0.28700001 80416.66683641  3821.40018894
0.28800001 79307.78702002  3781.79200305
0.28900001 78215.96581317  4763.35254349
0.29000001 77137.88815843  5724.01726174
0.29100001 76074.96475596  3665.29197544
0.29200001 75025.90984616  4286.60556197
0.29300001 73991.49082439  4241.93236976
0.29400001 72970.09093966  4520.49734770
0.29500001 71963.55534443  3514.70020940
0.29600001 70969.34853290  3477.85308949
0.29700001 69988.87397747  3441.35309638
0.29800001 69021.71096204  3095.62388319
0.29900001 68067.78615079  3981.96567832
0.30000001 67125.47414341  4546.07295157
0.30100001 66196.92196611  3298.59277773
0.30200001 65279.67808691  2966.96150951
0.30300001 64375.55772073  3522.63068524
0.30400001 63483.15122209  2904.35430591
0.30500001 62603.31092224  5172.28579326
0.30600001 61733.83575152  2842.84327095
0.30700001 60877.08813359  3375.02592591
0.30800001 60031.61995210  2782.46571651
0.30900001 59197.74483801  3578.50384488
0.31000001 58375.14581853  3812.48095391
0.31100001 57563.18712566  2963.35301353
0.31200001 56763.15217754  3997.54518137
0.31300001 55973.28526334  3163.61023287
0.31400001 55195.73342714  3129.59823349
0.31500001 54427.19723676  3353.80405252
0.31600002 53671.02566290  3317.67460844
0.31700002 52924.54857754  3029.40130401
0.31800002 52188.39174441  2497.21466321
0.31900002 51463.38506476  2717.26686008
0.32000002 50748.95322331  2932.27465608
0.32100002 50044.07182476  2658.84166195
0.32200002 49350.59943008  2630.14032116
0.32300002 48665.74071204  2365.15511060
0.32400002 47992.21554551  2573.58268049
0.32500002 47328.12744614  3008.64920422
0.32600002 46674.24695947  2518.30911395
0.32700002 46030.49748370  2491.17064178
0.32800002 45397.55733887  2688.44347291
0.32900002 44772.42317017  2659.48206224
0.33000002 44158.38804438  3069.44969832
0.33100002 43553.12839157  2602.73507593
0.33200002 42959.21429624  2360.39414128
0.33300002 42373.97356458  2547.52341134
0.33400002 41798.93764253  2100.39671600
0.33500002 41233.26281876  3117.23481672
0.33600002 40676.70511918  3495.55281995
0.33700002 40129.75631050  2238.03661542
0.33800002 39592.99588338  2415.96472322
0.33900002 39064.90370683  2390.77222008
0.34000002 38546.28912274  2168.80706020
0.34100002 38037.35038008  2146.44778360
0.34200002 37538.29224719  3283.28688689
0.34300002 37047.70245809  3440.99076727
0.34400002 36567.19532573  2460.05818205
0.34500002 36095.59451074  1873.36144383
0.34600002 35633.84388113  2411.16416041
0.34700002 35179.99842101  2203.67520546
0.34800002 34736.27336709  2363.97719596
0.34900002 34301.13799726  2521.13376220
0.35000002 33875.54285551  2318.61164056
0.35100002 33459.55799832  2649.99711898
0.35200002 33051.05381060  1925.05872037
0.35300002 32652.82474539  2427.41110654
0.35400002 32262.74444014  2576.98683421
0.35500002 31882.09081073  1872.75410292
0.35600002 31509.92250636  2193.56335918
0.35700002 31146.41887459  1672.56277279
0.35800002 30792.23008463  1823.97783546
0.35900002 30447.13357241  1972.97434894
0.36000002 30110.37327734  2282.66750628
0.36100002 29781.73087769  1778.86286958
0.36200002 29463.20628541  2566.83465317
0.36300002 29151.75554793  2387.52889247
0.36400002 28849.46682244  1737.45922168
0.36500002 28554.88841480  2037.96248270
0.36600002 28269.57938666  1867.48850274
0.36700002 27992.05521607  2163.22612957
0.36800002 27723.66005045  1687.95512213
0.36900002 27463.19541312  2133.89038468
0.37000002 27210.32409711  2271.38191160
0.37100002 26965.68895498  2106.55972095
0.37200002 26729.73652023  2093.74036081
0.37300002 26501.50028496  2676.12162554
0.37400002 26280.90892497  1921.79155617
0.37500002 26068.48816655  1911.34164291
0.37600002 25864.08217825  1901.39809141
0.37700002 25667.17590521  1600.86183704
0.37800002 25477.74801636  2317.45606935
0.37900002 25296.96890844  1586.12002570
0.38000002 25122.70686275  2010.06787131
0.38100002 24955.30755696  1858.92094798
0.38200002 24796.49194043  1567.01438241
0.38300002 24644.27772003  1845.36360310
0.38400002 24499.47104066  1697.81342355
0.38500002 24361.21535654  1692.61732316
0.38600002 24231.05175232  1969.25766920
0.38700002 24106.83036459  1683.62111242
0.38800002 23989.43116116  1399.78337457
0.38900002 23878.91937332  1676.30021942
0.39000002 23775.58882271  1533.88218557
0.39100002 23677.92740208  1809.94085636
0.39200002 23587.62668605  1668.58879082
0.39300002 23502.86755151  1666.82344572
0.39400002 23425.68964083  2081.95826547
0.39500002 23353.27297849  2080.77672097
0.39600002 23287.20391501  2080.12958826
0.39700002 23226.55291155  1802.61285687
0.39800002 23172.99185693  1386.90362835
0.39900002 23123.96285591  1387.43783709
0.40000002 23081.08001672  1388.32702878
0.40100002 23043.19980302  1528.45551535
0.40200002 23011.28025097  1808.34154420
0.40300002 22984.39763788  1392.85456285
0.40400002 22962.72120632  1813.48099319
0.40500002 22945.64253171  1816.60660531
0.40600002 22934.43283343  1540.16190990
0.40700002 22927.36941564  1824.10159714
0.40800002 22924.89817287  1687.73108345
0.40900002 22926.80615089  1832.99823861
0.41000002 22933.84631264  1696.64603060
0.41100002 22944.91968841  2126.99415590
0.41200002 22959.23180476  2275.71916432
0.41300002 22979.23360588  1569.71152199
0.41400002 23002.16831084  1718.26205424
0.41500002 23029.02085293  1437.01096931
0.41600002 23058.58338096  1442.31445882
0.41700002 23093.32388255  2316.72236167
0.41800002 23131.86216842  1453.83760617
0.41900002 23171.85255437  2043.75749214
0.42000002 23215.66416150  1905.89003965
0.42100002 23263.49385954  2208.86884663
0.42200002 23313.60930112  1627.17343828
0.42300002 23366.32711187  1634.70832221
0.42400002 23421.66877338  1941.07089157
0.42500002 23480.27771209  1650.42879859
0.42600002 23540.01538411  1960.05947384
0.42700002 23603.19952625  1515.32548139
0.42800002 23667.87522221  1675.33062699
0.42900002 23735.64348937  1684.04398537
0.43000002 23805.20049308  2000.70817025
0.43100002 23875.05624282  1701.81408963
0.43200002 23947.89272270  2644.20670028
0.43300002 24021.68063195  2189.33607654
0.43400002 24097.46023936  1886.83122616
0.43500002 24173.93955511  2055.26843837
0.43600002 24252.50049450  1589.75148275
0.43700002 24331.34972758  1918.28370343
0.43800002 24410.87095823  2089.69270741
0.43900002 24492.24391859  1939.78581028
0.44000002 24573.65716630  2275.76649802
0.44100002 24656.07417268  2125.10713365
0.44200002 24738.91766303  2465.85173492
0.44300002 24822.25238307  2479.74313058
0.44400002 24905.72705278  1828.70309551
0.44500002 24988.95294614  1838.93713446
0.44600002 25072.16682781  1849.19775202
0.44700002 25156.45794391  2028.61686474
0.44800002 25239.35112986  1869.85741707
0.44900002 25322.79167085  2222.07507443
0.45000002 25406.15878997  2062.47206832
0.45100002 25488.21265766  2419.34126012
0.45200002 25570.21119894  2953.74308663
0.45300002 25651.13810943  1921.52684684
0.45400002 25731.58112746  1931.79854470
0.45500002 25811.62593293  3177.92753548
0.45600002 25890.15013531  2307.20083865
0.45700002 25968.10398326  2319.21147666
0.45800002 26044.53428405  2151.79952453
0.45900002 26119.71799347  2162.71275236
0.46000002 26194.20850617  2173.59552486
0.46100002 26266.46026762  2002.29236110
0.46200002 26338.02703756  1829.17606445
0.46300002 26408.02355323  2573.19793698
0.46400002 26475.82785418  2031.35798839
0.46500002 26543.12761875  2411.97412103
0.46600002 26607.63237124  2050.25120954
0.46700002 26670.32748851  2059.48278627
0.46800002 26732.11913650  1880.60467039
0.46900002 26791.02397145  2266.52073541
0.47000002 26848.17559366  2086.50606515
0.47100002 26903.55205887  2095.24873365
0.47200002 26956.92670046  2486.37225206
0.47300002 27008.06244735  3072.43732964
0.47400002 27056.27095693  2313.31127646
0.47500002 27102.80972097  3289.73919986
0.47600002 27147.69203424  2136.65920283
0.47700002 27189.06811088  2144.40190355
