# SAXS profile: number of points = 501, q_min = 0, q_max = 0.5, delta_q = 0.001
#    q    intensity    error
0.00000000 1664650.74656090 274.66737318
0.00100000 1664568.82705387 749.05598996
0.00200000 1664323.00076876 973.62898628
0.00300000 1663913.50572095 1098.18295290
0.00400000 1663340.20561399 1497.00624194
0.00500000 1662603.59128065 1496.34329138
0.00600000 1661703.60838285 2442.70440377
0.00700000 1660640.79364515 2590.59974575
0.00800000 1659415.00155141 2464.23138134
0.00900000 1658027.38589070 3233.15354070
0.01000000 1656477.45104914 3006.50670347
0.01100000 1654766.33943352 3276.43749473
0.01200000 1652894.06423707 4512.40099321
0.01300000 1650861.78688889 5200.21485805
0.01400000 1648669.52016287 4451.40790177
0.01500000 1646318.68275747 5531.63102038
0.01600000 1643808.67260202 5449.22599328
0.01700000 1641141.73995874 6203.51605533
0.01800000 1638317.91728422 7937.65066642
0.01900000 1635337.76518237 5887.21622030
0.02000000 1632202.56652676 6169.72598056
0.02100000 1628914.31204949 8063.12621021
0.02200000 1625471.39512542 5607.87656796
0.02300000 1621877.35520484 7590.38636786
0.02400000 1618131.43900784 6067.99317297
0.02500000 1614236.44073409 8184.17912830
0.02600000 1610192.22913113 7825.53459150
0.02700000 1606000.89448966 10117.80609869
0.02800000 1601662.40486466 8360.67813681
0.02900000 1597179.29209537 8624.76857331
0.03000000 1592552.84972300 7405.37109160
0.03100000 1587783.34892918 9907.76855321
0.03200000 1582872.39861045 9402.26248080
0.03300000 1577823.86015820 9656.28246933
0.03400000 1572635.77208059 9081.97200281
0.03500000 1567311.23568633 9309.82916989
0.03600000 1561851.76318106 9535.10545487
0.03700000 1556259.07017994 11531.88024335
0.03800000 1550534.71274857 9977.69133830
0.03900000 1544680.60340960 11121.70085960
0.04000000 1538696.78021524 11355.58276419
0.04100000 1532587.28074706 12551.89041131
0.04200000 1526352.75845820 12798.46847343
0.04300000 1519994.28650612 12038.35530792
0.04400000 1513515.37819896 12259.47513277
0.04500000 1506917.35743610 16636.36839910
0.04600000 1500200.27043484 15864.61859734
0.04700000 1493368.25974179 11827.47716723
0.04800000 1486422.13569222 18572.84544963
0.04900000 1479365.15847574 13314.28704603
0.05000000 1472197.13345976 12388.53945495
0.05100000 1464922.85076356 12569.03864507
0.05200000 1457540.40710449 13904.93613176
0.05300000 1450056.12703452 15269.09172949
0.05400000 1442469.32730795 15470.48425683
0.05500000 1434783.36381866 14462.61698196
0.05600000 1426998.58275366 19521.34152302
0.05700000 1419120.86310336 16050.25771090
0.05800000 1411148.63259187 18732.99897235
0.05900000 1403084.47769716 21467.19351141
0.06000000 1394932.64364163 16592.72457131
0.06100000 1386694.18292173 15475.50780460
0.06200000 1378371.17688153 14328.16905343
0.06300000 1369967.18176021 15782.02267177
0.06400000 1361480.60281541 14601.88014808
0.06500000 1352917.47601413 18751.43709471
0.06600000 1344279.42947949 14861.00978822
0.06700000 1335567.27347033 14985.06550962
0.06800000 1326784.77876794 13732.22310304
0.06900000 1317934.23862317 13838.31015344
0.07000000 1309016.53649353 22305.64282639
0.07100000 1300034.54878277 16848.44854137
0.07200000 1290991.02393741 15549.98761179
0.07300000 1281888.33651722 15651.85732225
0.07400000 1272729.25452633 25772.76861198
0.07500000 1263514.83840596 18725.29078288
0.07600000 1254246.63890951 17383.85923025
0.07700000 1244930.02484200 16022.25017098
0.07800000 1235564.97878217 24890.45766484
0.07900000 1226153.62061463 16185.22855126
0.08000000 1216700.26048391 17739.49063003
0.08100000 1207205.52611663 14848.62866791
0.08200000 1197671.46508929 19384.31357208
0.08300000 1188101.69398004 26946.14768410
0.08400000 1178497.41073400 27046.51684587
0.08500000 1168861.32415134 19601.80532623
0.08600000 1159195.62039004 19665.75462325
0.08700000 1149503.43321550 24277.51364953
0.08800000 1139784.90914786 19780.96802725
0.08900000 1130044.89383385 15255.60678331
0.09000000 1120283.71723735 21408.62284209
0.09100000 1110503.62206704 16857.44577496
0.09200000 1100707.09045761 19961.32402337
0.09300000 1090898.82690854 19996.17643690
0.09400000 1081075.72829831 18486.39582271
0.09500000 1071243.39300958 20053.67725972
0.09600000 1061403.13582633 18532.09962268
0.09700000 1051559.52777016 20095.30352042
0.09800000 1041711.88734600 20110.24893075
0.09900000 1031863.97547427 20121.34846790
0.10000000 1022015.11369808 17031.88267074
0.10100000 1012169.31796586 21680.66781051
0.10200000 1002328.45304001 18583.17039345
0.10300000 992494.03989186 24772.65240102
0.10400000 982669.34609899 23215.56439377
0.10500000 972856.69396479 20108.94881037
0.10600001 963053.60571334 17002.71220891
0.10700001 953267.44788280 23164.40007361
0.10800001 943496.78695472 18511.40783123
0.10900001 933745.57024804 18488.16316107
0.11000001 924013.57090452 16923.30934769
0.11100001 914303.87741327 19968.39762269
0.11200001 904617.94273743 19933.25730662
0.11300001 894957.16840304 18364.52196025
0.11400001 885324.27196607 16799.02885153
0.11500001 875720.67164381 16761.29444452
0.11600001 866147.56216206 18241.06851813
0.11700001 856607.39039843 21226.73213374
0.11800001 847099.72673257 19656.95008464
0.11900001 837627.41374413 19600.48240483
0.12000001 828191.23367687 22547.50739895
0.12100001 818796.05759774 14983.96855991
0.12200001 809440.25326027 19414.42538909
0.12300001 800125.90234258 22323.51372712
0.12400001 790853.83277973 22242.76509495
0.12500001 781625.55422965 19204.54077235
0.12600001 772444.74044257 20601.10219840
0.12700001 763310.13646981 26379.99955959
0.12800001 754223.25608776 21891.33103967
0.12900001 745186.82740235 15984.25820115
0.13000001 736201.39237890 17359.62965054
0.13100001 727267.11365699 17279.86743502
0.13200001 718386.37240873 15764.98968568
0.13300001 709560.32722109 18540.81222436
0.13400001 700789.29553620 19867.37746511
0.13500001 692075.15721680 19765.66742203
0.13600001 683418.43677934 18257.52439942
0.13700001 674820.72097575 18159.42645773
0.13800001 666280.87099276 18059.54385987
0.13900001 657803.03104132 15195.25073363
0.14000001 649385.41007246 13734.50207076
0.14100001 641031.58939566 15019.37084790
0.14200001 632740.06561165 13572.27504751
0.14300001 624513.47894462 14838.44095962
0.14400001 616348.70215247 16086.70188499
0.14500001 608251.86168169 13320.71639920
0.14600001 600220.58065861 14558.35087066
0.14700001 592257.14690307 13148.10928153
0.14800001 584358.75986362 15672.50267895
0.14900001 576529.74929787 15566.30396547
0.15000001 568768.95171211 14170.87910053
0.15100001 561077.41552033 15351.07881298
0.15200001 553456.51193361 13972.01030306
0.15300001 545905.61807417 12610.42037259
0.15400001 538423.58329682 15022.01868289
0.15500001 531014.31661282 19881.17695224
0.15600001 523674.76299637 16032.30362578
0.15700001 516409.78201276 14686.69489361
0.15800001 509213.81749885 13359.22513262
0.15900001 502092.47087256 18075.32980458
0.16000001 495041.32810058 16737.34809312
0.16100001 488065.54149011 14231.99186166
0.16200001 481162.35297013 17646.63012821
0.16300001 474331.94699012 17502.84967021
0.16400001 467575.50968606 15044.24273438
0.16500001 460891.92763576 13771.45144792
0.16600001 454282.49742101 12517.75480744
0.16700001 447746.08212325 15796.48252313
0.16800001 441283.67986916 12305.19599416
0.16900001 434896.23933725 15525.79647744
0.17000001 428580.81524788 17588.95748832
0.17100001 422339.96631419 13075.64597454
0.17200001 416172.76906818 14039.58902751
0.17300001 410078.90076526 13913.97776005
0.17400001 404059.47616571 14849.18645036
0.17500001 398112.08063607 11561.17536768
0.17600001 392237.00507489 14579.45016721
0.17700001 386437.70890148 12381.46477799
0.17800001 380709.30386092 18399.68152465
0.17900001 375053.31840538 13164.37209783
0.18000001 369470.71574039 11034.24344679
0.18100001 363960.72371395 11923.35387209
0.18200001 358520.53015504 10825.52791941
0.18300001 353152.28399879 10721.70384869
0.18400001 347855.32633788 10618.28433808
0.18500001 342629.58088203 11471.23890986
0.18600001 337474.31627832 9466.15501882
0.18700001 332388.55821103 10310.69356283
0.18800001 327371.03603576 14849.55089617
0.18900001 322426.22719600 11026.97749110
0.19000001 317545.79696035 10007.45626405
0.19100001 312736.75881334 10808.18289528
0.19200001 307993.82792420 13374.63260958
0.19300001 303320.11614296 13239.92369526
0.19400001 298711.48732877 10484.77370069
0.19500001 294170.22573775 9513.46554992
0.19600001 289693.50673967 8560.44352869
0.19700001 285283.95281012 8472.93379887
0.19800001 280937.83285852 10063.19364857
0.19900001 276656.47359671 11619.57244020
0.20000001 272437.24200267 10678.17820496
0.20100001 268282.77665738 16257.93703382
0.20200001 264189.39263778 9653.48086324
0.20300001 260158.47953852 11145.18979020
0.20400001 256189.19236851 8665.59984145
0.20500001 252279.57285791 9354.52700373
0.20600001 248429.73657456 10027.86679083
0.20700001 244639.74425996 9159.31245805
0.20800001 240907.71754304 8307.70303218
0.20900001 237236.23432673 8220.23590800
0.21000001 233619.28806416 9612.26606179
0.21100001 230060.25325261 10973.87459892
0.21200001 226556.48387319 8686.17600233
0.21300001 223107.91988807 9310.29393708
0.21400001 219714.47750827 9211.52990502
0.21500001 216375.91756024 8412.69607247
0.21600001 213089.20628843 7629.65939188
0.21700001 209855.78808276 8920.96997318
0.21800001 206674.29968860 8147.10127892
0.21900001 203543.54746133 8060.32486057
0.22000001 200462.55703450 7309.86748789
0.22100001 197433.13832381 7889.42858046
0.22200001 194452.23613602 9106.19864883
0.22300001 191519.27044889 7722.05734964
0.22400001 188633.66165348 8912.94093459
0.22500001 185797.00338763 7558.22245522
0.22600001 183005.12805686 6854.45739550
0.22700001 180259.61787452 9247.31883426
0.22800001 177558.63060517 6709.05317469
0.22900001 174901.28429178 6637.50405277
0.23000001 172288.22487589 9551.65963884
0.23100001 169719.29748893 7087.47819832
0.23200001 167190.56512298 7011.97263288
0.23300001 164704.67851288 10406.04208059
0.23400001 162258.62833084 5719.61691917
0.23500001 159852.63301694 8488.17521466
0.23600001 157486.42755686 6158.50704089
0.23700001 155159.46583205 7754.87046907
0.23800001 152870.21638342 6576.47701987
0.23900001 150618.62596027 5964.49787014
0.24000001 148403.29003649 5364.77918858
0.24100001 146225.42489594 5838.78149228
0.24200001 144083.03682810 5777.00963489
0.24300001 141974.99416795 6235.54203881
0.24400001 139901.39294901 7197.92700771
0.24500001 137861.08392574 6613.19650875
0.24600001 135854.09154670 8053.43092786
0.24700001 133880.19972678 7968.54986470
0.24800001 131937.67795595 6899.02150669
0.24900001 130025.64057117 5363.55792730
0.25000001 128145.39088029 4824.67419489
0.25100001 126294.44951420 8115.68170973
0.25200001 124474.95354185 5196.20718144
0.25300001 122682.74655315 4674.21286481
0.25400001 120920.27512963 6937.80111380
0.25500001 119183.86317926 6864.99084392
0.25600001 117476.30184185 4528.71165027
0.25700001 115794.60169913 7618.12720622
0.25800001 114139.39999319 7094.90543927
0.25900001 112510.77241634 4387.92033185
0.26000001 110906.71475244 5644.59751440
0.26100001 109326.95522058 5585.51440650
0.26200001 107772.95593710 4676.80764418
0.26300001 106241.15914618 5048.58012151
0.26400001 104733.91300758 4995.80788685
0.26500001 103249.43822278 4531.61805803
0.26600001 101786.96103666 6522.50877187
0.26700001 100346.77850952 4437.33475567
0.26800001 98928.48751455  5588.47052415
0.26900001 97530.70813872  6319.99018646
0.27000001 96154.31799431  3908.67321144
0.27100001 94797.76866121  5414.84880217
0.27200001 93461.87476756  5740.89592928
0.27300001 92145.56443147  4923.33774057
0.27400001 90846.85121665  4496.91934804
0.27500001 89569.19789015  4078.98146496
0.27600001 88307.69108361  4403.02168581
0.27700001 87066.23784723  3630.66229006
0.27800001 85841.37830409  3592.46185205
0.27900001 84634.52476159  4621.04527069
0.28000001 83444.28530762  4572.32982983
0.28100001 82271.09715984  3480.06757457
0.28200001 81114.95728097  3787.66310950
0.28300001 79974.60474867  4769.68565296
0.28400001 78849.60285468  4044.98481790
0.28500001 77740.86948129  4002.10015032
0.28600001 76647.14254024  3629.62560679
0.28700001 75569.28886829  3264.59343363
0.28800001 74504.61192212  3875.73009564
0.28900001 73456.24185167  3834.41600615
0.29000001 72421.50461989  4741.79823944
0.29100001 71401.38610996  4065.59511755
0.29200001 70394.65676025  3712.61437327
0.29300001 69401.98591763  3366.69049623
0.29400001 68422.06024295  3027.67630907
0.29500001 67456.67014852  3294.58392601
0.29600001 66502.88533727  4444.05552303
0.29700001 65562.85639618  3516.79178357
0.29800001 64635.40987335  3768.56775106
0.29900001 63720.87387477  3440.92735213
0.30000001 62817.72733266  3403.46462800
0.30100001 61927.84747952  2805.33162363
0.30200001 61048.98751739  3329.61193682
0.30300001 60182.86338727  4116.50805057
0.30400001 59328.11100237  2985.68732754
0.30500001 58485.48376930  3489.82898173
0.30600001 57653.07608033  3185.90913503
0.30700001 56832.92027722  4463.65776990
0.30800001 56023.74445735  2856.37074639
0.30900001 55225.88399656  3852.00559113
0.31000001 54438.89448789  2539.57454810
0.31100001 53662.30937307  2511.39619756
0.31200001 52897.56010697  2980.24867753
0.31300001 52142.50370854  2701.50324505
0.31400001 51399.41540699  2914.34699156
0.31500001 50665.54627684  3362.16581012
0.31600002 49943.26684714  2374.80245102
0.31700002 49230.53495061  2583.12629116
0.31800002 48527.84407453  2322.05744891
0.31900002 47836.08505075  2296.13219116
0.32000002 47154.65844311  2724.59629385
0.32100002 46482.73158555  2694.13925027
0.32200002 45821.74706240  2442.07012532
0.32300002 45169.15484097  2414.74313214
0.32400002 44527.52582899  2604.86038434
0.32500002 43895.50286209  2146.49019160
0.32600002 43273.41518356  2759.32944984
0.32700002 42661.05555815  3568.17085585
0.32800002 42059.36699578  2905.88180334
0.32900002 41465.26557306  3899.80841182
0.33000002 40882.23858476  2638.74421441
0.33100002 40307.68748888  2408.78751840
0.33200002 39744.33266869  1985.22951081
0.33300002 39189.49286833  2945.09052852
0.33400002 38644.79100816  2136.09092413
0.33500002 38108.99044254  2304.83185111
0.33600002 37582.27690937  2089.76260651
0.33700002 37064.95477028  1879.19329585
0.33800002 36557.84719228  2416.65660309
0.33900002 36059.09812539  2206.81690978
0.34000002 35569.77250766  2001.33334492
0.34100002 35089.80430028  2340.13915961
0.34200002 34619.74325292  2493.66022460
0.34300002 34158.12431311  2115.07115764
0.34400002 33706.28288917  2616.45033319
0.34500002 33263.17295000  2244.26638523
0.34600002 32829.68939817  2221.42103834
0.34700002 32404.11565267  2706.39186749
0.34800002 31988.53536459  2344.43986791
0.34900002 31581.49555002  1823.83145439
0.35000002 31183.70413904  2955.27978122
0.35100002 30795.54974473  1788.60561389
0.35200002 30414.65147202  1932.54704606
0.35300002 30043.97743046  2871.60349881
0.35400002 29681.48949349  1738.59332943
0.35500002 29328.24931684  2192.58002278
0.35600002 28983.21133094  1552.05104028
0.35700002 28646.86028209  2153.67105802
0.35800002 28319.48106251  1830.00495294
0.35900002 28001.32293060  1965.69296283
0.36000002 27691.37894604  1499.48824095
0.36100002 27389.36511707  1487.24259630
0.36200002 27097.26816961  1918.08021824
0.36300002 26812.48623920  1610.35799980
0.36400002 26536.50285062  1888.73567986
0.36500002 26268.17901166  2451.60926328
0.36600002 26009.03139239  1431.79724597
0.36700002 25757.55655220  1421.81718903
0.36800002 25515.13248892  1694.71518019
0.36900002 25280.61083303  2104.61095154
0.37000002 25053.54828661  1533.65303101
0.37100002 24834.57253623  1662.92305580
0.37200002 24624.16746296  1515.49445830
0.37300002 24421.33939707  1507.04092558
0.37400002 24226.31032772  1499.00302254
0.37500002 24039.17687624  1355.80964005
0.37600002 23859.99116689  1619.13907729
0.37700002 23688.03225991  2014.66723914
0.37800002 23523.79039722  1604.79305692
0.37900002 23367.77400101  1598.35581739
0.38000002 23218.37642027  1592.31633033
0.38100002 23075.76955564  1851.13832145
0.38200002 22941.57876837  1449.79313895
0.38300002 22813.67585707  1445.47457078
0.38400002 22693.32787026  1441.59372125
0.38500002 22579.54367045  1830.29789664
0.38600002 22473.44414196  1826.41689194
0.38700002 22373.41487822  1562.55936912
0.38800002 22280.07340647  1950.06351729
0.38900002 22193.52237806  1557.98534475
0.39000002 22114.07256713  1815.78658451
0.39100002 22040.18630007  1555.15561901
0.39200002 21973.20487680  1554.38458663
0.39300002 21912.04105428  1424.50185643
0.39400002 21858.17333264  1424.60651445
0.39500002 21809.05269171  2072.73246602
0.39600002 21766.30864423  1425.80211529
0.39700002 21728.66156255  1816.08161944
0.39800002 21697.93549264  1558.34580091
0.39900002 21671.83151375  1820.43393340
0.40000002 21651.67925640  1432.58342587
0.40100002 21636.48674558  1435.14823383
0.40200002 21627.11546488  1307.35919179
0.40300002 21622.52973550  1572.39043686
0.40400002 21623.03253166  1576.31914624
0.40500002 21628.12504273  2239.15989177
0.40600002 21638.94204432  1849.48046416
0.40700002 21653.93198991  1590.26484069
0.40800002 21673.18431110  1595.57990458
0.40900002 21696.59259857  1467.77455884
0.41000002 21725.22228115  1607.23202051
0.41100002 21757.55712277  1479.07880329
0.41200002 21793.33768683  1485.10706704
0.41300002 21834.34075250  1627.09514997
0.41400002 21878.31723495  2179.08049985
0.41500002 21926.01215347  1368.18322321
0.41600002 21976.50538193  1512.09352445
0.41700002 22031.83939864  2348.37387278
0.41800002 22090.78491803  1527.24648768
0.41900002 22151.06050810  1953.72362939
0.42000002 22215.15571756  1683.46458005
0.42100002 22282.90601351  1974.71122449
0.42200002 22353.02459741  1560.12942570
0.42300002 22425.54362334  1568.89110623
0.42400002 22500.59628633  1864.73700559
0.42500002 22578.52025773  1587.04426412
0.42600002 22657.56733849  1886.58243384
0.42700002 22740.04041734  1751.89279677
0.42800002 22823.82365509  1762.45574616
0.42900002 22910.52701679  2068.82068765
0.43000002 22998.71323542  2527.67369792
0.43100002 23087.12576213  1645.65040231
0.43200002 23178.51466951  1655.98905904
0.43300002 23270.53988407  2120.87710554
0.43400002 23364.41887657  2286.79260591
0.43500002 23458.90664358  1534.21256719
0.43600002 23555.20608568  2161.66136492
0.43700002 23651.78774284  1553.92252834
0.43800002 23748.78045127  2189.40017356
0.43900002 23847.50881769  1573.93565656
0.44000002 23946.11150536  1742.43888626
0.44100002 24045.57622695  2072.48831322
0.44200002 24145.24890161  2406.67779832
0.44300002 24245.34054251  1776.21373232
0.44400002 24345.34062984  1787.55672046
0.44500002 24444.95183200  2125.97756158
0.44600002 24544.37951016  1974.84086898
0.44700002 24644.73204135  2152.96389316
0.44800002 24743.58080261  1833.12827064
0.44900002 24842.70141603  2179.94715257
0.45000002 24941.60444609  2024.75954489
0.45100002 25038.98623490  1867.40768190
0.45200002 25136.14255709  2391.20135478
0.45300002 25232.19959888  3264.79446083
0.45400002 25327.51644056  2247.18400269
0.45500002 25422.16952833  2086.65177378
0.45600002 25515.26771163  1749.07168453
0.45700002 25607.51586104  1759.23642303
0.45800002 25698.21751813  3007.84801196
0.45900002 25787.47262673  2491.06997380
0.46000002 25875.81920174  2326.10687738
0.46100002 25961.85860553  2158.98826396
0.46200002 26046.93999596  2170.75208215
0.46300002 26130.22535228  2364.26290193
0.46400002 26211.21846818  2376.70234725
0.46500002 26291.54107021  2021.55668870
0.46600002 26368.84688141  2031.85159275
0.46700002 26444.27177447  2042.02676321
0.46800002 26518.50637902  2238.69241462
0.46900002 26589.81422396  1874.58199164
0.47000002 26659.21353570  2071.82087812
0.47100002 26726.55092332  2081.46388456
0.47200002 26791.76015286  2090.96302024
0.47300002 26854.50514904  2100.29094725
0.47400002 26914.35113648  3068.23617499
0.47500002 26972.24168213  2118.39996212
0.47600002 27028.18069813  2707.41298886
0.47700002 27080.66843859  1941.68401908
