# SAXS profile: number of points = 501, q_min = 0, q_max = 0.5, delta_q = 0.001
#    q    intensity    error
0.00000000 1664650.74656090 274.66737318
0.00100000 1664568.82333366 599.24479063
0.00200000 1664322.98979106 823.83990603
0.00300000 1663913.47718299 1497.52218281
0.00400000 1663340.16186351 1497.00620256
0.00500000 1662603.51498408 2094.88051180
0.00600000 1661703.50336614 2617.18312435
0.00700000 1660640.65120926 2989.15329641
0.00800000 1659414.81157323 3136.29412629
0.00900000 1658027.12773636 2984.44895750
0.01000000 1656477.15031834 3006.50615765
0.01100000 1654765.98357617 5361.44202022
0.01200000 1652893.64735763 3545.45702903
0.01300000 1650861.28509799 5200.21327741
0.01400000 1648668.93428715 4080.45579325
0.01500000 1646318.00711392 4346.27973232
0.01600000 1643807.91049225 5030.05243097
0.01700000 1641140.89269655 5317.29673086
0.01800000 1638316.98871736 6069.96471633
0.01900000 1635336.67410867 6377.81331681
0.02000000 1632201.40575324 7712.15199105
0.02100000 1628913.02669519 5912.95455499
0.02200000 1625469.95022125 10094.16884948
0.02300000 1621875.83859528 8174.25459860
0.02400000 1618129.75810488 10922.37636524
0.02500000 1614234.62957936 7554.61841146
0.02600000 1610190.26094835 6521.27085511
0.02700000 1605998.78246640 9443.27327341
0.02800000 1601660.13948880 8360.66631155
0.02900000 1597176.86084139 9343.48506492
0.03000000 1592550.28223157 8886.43098332
0.03100000 1587780.59276625 9145.61663515
0.03200000 1582869.45586371 7835.20416740
0.03300000 1577820.76464101 8046.88627063
0.03400000 1572632.49394548 12384.48146125
0.03500000 1567307.82026873 10156.15514433
0.03600000 1561848.14460202 9535.08336345
0.03700000 1556255.22399230 13305.98278050
0.03800000 1550530.67894558 9070.60489162
0.03900000 1544676.36970009 10194.86451214
0.04000000 1538692.32042538 12301.84567186
0.04100000 1532582.67562788 10620.79843455
0.04200000 1526347.89637287 9844.94438834
0.04300000 1519989.22469910 12038.31521841
0.04400000 1513510.09976256 12259.43237743
0.04500000 1506911.84044716 17676.07670976
0.04600000 1500194.48861448 12691.64596367
0.04700000 1493362.34457836 17203.53500964
0.04800000 1486415.98157038 12017.67377016
0.04900000 1479358.82849940 11095.19173020
0.05000000 1472190.46638014 11262.25759225
0.05100000 1464916.00620759 15996.88353299
0.05200000 1457533.31976432 17381.08564817
0.05300000 1450048.76854842 14094.47468734
0.05400000 1442461.83909899 16660.43501853
0.05500000 1434775.52141504 14462.53793053
0.05600000 1426990.51172797 21961.38500030
0.05700000 1419112.59255987 16050.16417105
0.05800000 1411140.13982424 12488.59082057
0.05900000 1403075.68468808 16415.98627757
0.06000000 1394923.67781853 20421.68359734
0.06100000 1386684.92114848 14185.78740627
0.06200000 1378361.70452562 19538.27807494
0.06300000 1369957.39692472 14466.75078792
0.06400000 1361470.66590031 15929.20753599
0.06500000 1352907.28675207 17411.91759499
0.06600000 1344268.91483025 17562.87419400
0.06700000 1335556.58629770 20434.01672665
0.06800000 1326773.79231383 13732.10939324
0.06900000 1317923.05200004 17989.65050206
0.07000000 1309005.07259563 16729.08561117
0.07100000 1300022.87114097 21060.37149890
0.07200000 1290979.12568221 15549.84429730
0.07300000 1281876.09164159 18497.47286910
0.07400000 1272716.84956160 14318.06522857
0.07500000 1263502.21145294 15844.31847428
0.07600000 1254233.82418924 15935.04148337
0.07700000 1244916.95698792 17478.63489566
0.07800000 1235551.68343635 19033.67457594
0.07900000 1226139.98779597 22070.52081552
0.08000000 1216686.41972321 17739.28883173
0.08100000 1207191.49283781 19302.99287614
0.08200000 1197657.24056960 14910.83334479
0.08300000 1188087.20975858 17963.87945463
0.08400000 1178482.75517862 18030.78700057
0.08500000 1168846.50548489 19601.55681718
0.08600000 1159180.46688847 21178.22812440
0.08700000 1149488.15799322 18207.89327761
0.08800000 1139769.43986237 19780.69955779
0.08900000 1130029.17664871 15255.39460130
0.09000000 1120267.89372427 18349.98896120
0.09100000 1110487.55690741 16857.20190583
0.09200000 1100690.73076887 15354.63641569
0.09300000 1090882.30231012 19995.87354099
0.09400000 1081058.97672618 15405.09114235
0.09500000 1071226.52305797 15425.66265708
0.09600000 1061386.16541316 23164.75414907
0.09700000 1051542.21825564 18549.20560208
0.09800000 1041694.47115903 18562.99634884
0.09900000 1031846.43531145 15477.69725747
0.10000000 1021997.39944918 18579.91359575
0.10100000 1012151.53046870 15485.91914450
0.10200000 1002310.55324572 23228.54816405
0.10300000 992475.82927523 18579.14839801
0.10400000 982651.05538686 20119.78130558
0.10500000 972838.43208404 23202.19769685
0.10600001 963035.10758257 21639.39988559
0.10700001 953248.78135610 18531.15718160
0.10800001 943478.10069737 16968.45443961
0.10900001 933726.76595239 15406.49236333
0.11000001 923994.61615258 16922.96219139
0.11100001 914284.81448096 16895.98416696
0.11200001 904598.81971952 19932.83593090
0.11300001 894938.05407136 24485.50631219
0.11400001 885305.04575095 18325.81530991
0.11500001 875701.38212621 15237.20476649
0.11600001 866128.12341866 19760.71406636
0.11700001 856587.97213872 16677.76860298
0.11800001 847080.22158225 19656.49746760
0.11900001 837608.00157178 16584.63921228
0.12000001 828171.65800116 19540.71119100
0.12100001 818776.44962380 25472.13654774
0.12200001 809420.58306247 19413.95359937
0.12300001 800106.29835530 17858.37342068
0.12400001 790834.22975526 14828.14250658
0.12500001 781605.84438801 22158.52673252
0.12600001 772425.13706967 16186.16951004
0.12700001 763290.38858402 21982.76422719
0.12800001 754203.58310944 21890.76003145
0.12900001 745167.16879922 21796.14071467
0.13000001 736181.86593149 15912.57178215
0.13100001 727247.54302032 15839.45223362
0.13200001 718366.87656719 15764.56184941
0.13300001 709540.89899104 19966.48183889
0.13400001 700769.83314742 14190.58979026
0.13500001 692055.78280652 16941.52636187
0.13600001 683399.12635844 15448.23797973
0.13700001 674801.57470189 16762.07190598
0.13800001 666261.71131024 15280.71306947
0.13900001 657784.08806917 13813.46650087
0.14000001 649366.52223154 16480.92311149
0.14100001 641012.79677079 15018.93053668
0.14200001 632721.36392148 23072.18562360
0.14300001 624494.97474279 20233.63813604
0.14400001 616330.13570468 16086.21730068
0.14500001 608233.45279042 22644.53251558
0.14600001 600202.45199940 15881.35762910
0.14700001 592239.11531460 15777.25077630
0.14800001 584340.88157239 18284.02704702
0.14900001 576512.04770581 15565.82602246
0.15000001 568751.50330506 12882.22215768
0.15100001 561059.96608588 14071.38461339
0.15200001 553439.33024078 12701.43322837
0.15300001 545888.60497003 16393.03558082
0.15400001 538406.74572870 18776.93614339
0.15500001 530997.73016925 14910.41696682
0.15600001 523658.33236476 13565.36974013
0.15700001 516393.54910498 13462.38046055
0.15800001 509197.90258934 18216.55582493
0.15900001 502076.75078981 19279.74814034
0.16000001 495025.74953217 15541.33414015
0.16100001 488050.22006379 16603.46927032
0.16200001 481147.31569558 14116.86290891
0.16300001 474317.10031277 11668.20121852
0.16400001 467560.82781590 13886.55724171
0.16500001 460877.56760994 11475.85197528
0.16600001 454268.48644140 14793.25395940
0.16700001 447732.33498792 18052.56859906
0.16800001 441270.08037682 12304.81677230
0.16900001 434882.89198944 16634.27140403
0.17000001 428567.73802037 15389.86819902
0.17100001 422327.36893672 11985.65129640
0.17200001 416160.34743755 10799.36152598
0.17300001 410066.78283846 11773.01789127
0.17400001 404047.67119178 11666.87705664
0.17500001 398100.53266795 14713.79638230
0.17600001 392225.79241335 12496.31433648
0.17700001 386426.80733393 13412.87511606
0.17800001 380698.68855536 12266.11232461
0.17900001 375042.99595547 11138.77750600
0.18000001 369460.76139943 12037.03217496
0.18100001 363951.08104450 9935.86498185
0.18200001 358511.21730019 15745.81340762
0.18300001 353143.24897320 12670.78037172
0.18400001 347846.72385133 13513.84586003
0.18500001 342621.26628719 12426.87391531
0.18600001 337466.34235667 9465.93135031
0.18700001 332380.92186125 11247.77092718
0.18800001 327363.65371927 14849.21603427
0.18900001 322419.19674387 11945.63180376
0.19000001 317539.13596499 9097.49667524
0.19100001 312730.41051812 9006.63624849
0.19200001 307987.96248668 11591.12751588
0.19300001 303314.60433805 10591.74648397
0.19400001 298706.26193783 12232.02200436
0.19500001 294165.24624264 11242.99624268
0.19600001 289689.00126984 9416.34143126
0.19700001 285279.83354702 13556.49833080
0.19800001 280934.12200243 10063.06072569
0.19900001 276652.96477998 9129.54826920
0.20000001 272434.17938491 9856.66907598
0.20100001 268280.02942104 9754.66233078
0.20200001 264187.04792134 10457.84478624
0.20300001 260156.46272889 8756.86694934
0.20400001 256187.54671344 10241.09766392
0.20500001 252278.30795907 9354.48010128
0.20600001 248428.74232413 8485.08409515
0.20700001 244639.19043780 8396.01741270
0.20800001 240907.51713133 9062.94122289
0.20900001 237236.41844108 8220.24228756
0.21000001 233619.81845785 8133.47436410
0.21100001 230061.20815310 11705.51482419
0.21200001 226557.55125056 7962.36551512
0.21300001 223109.42804841 7877.99427683
0.21400001 219716.37613982 8503.02415860
0.21500001 216378.22676499 7010.65487863
0.21600001 213091.76858303 6936.13739531
0.21700001 209858.65822189 8234.85413797
0.21800001 206677.55702309 10184.03710382
0.21900001 203547.11151971 11418.99349616
0.22000001 200466.41845832 7974.55450333
0.22100001 197437.34526978 7889.59669003
0.22200001 194456.78251398 12358.70139705
0.22300001 191524.09659783 10296.33591997
0.22400001 188638.88048370 7003.21876911
0.22500001 185802.56069726 10077.93136878
0.22600001 183010.92740885 8100.97908483
0.22700001 180265.74541520 8631.12429864
0.22800001 177565.15474982 7319.23602491
0.22900001 174908.03291479 8448.05838930
0.23000001 172295.28751017 6567.03519402
0.23100001 169726.60993328 7087.78356601
0.23200001 167198.19148780 8765.36560329
0.23300001 164712.64007789 6937.69672820
0.23400001 162266.88767431 6863.88967325
0.23500001 159861.19694086 7356.81263117
0.23600001 157495.27118700 7278.64430217
0.23700001 155168.45222016 7201.36820815
0.23800001 152879.50586336 5480.73054443
0.23900001 150628.18957113 5964.87658915
0.24000001 148413.06443406 8047.69879960
0.24100001 146235.49467650 5308.34870785
0.24200001 144093.34733858 6302.64331072
0.24300001 141985.49004052 7275.33685382
0.24400001 139912.15188374 6684.30337244
0.24500001 137872.05129718 5087.47893353
0.24600001 135865.36233628 7047.33667776
0.24700001 133891.62440615 5478.84552988
0.24800001 131949.27273432 8870.95002558
0.24900001 130037.38264217 7314.60311966
0.25000001 128157.41904426 6755.17787740
0.25100001 126306.60548831 7161.58486999
0.25200001 124487.32966972 7086.44157671
0.25300001 122695.26955673 5142.15899040
0.25400001 120933.04050597 5088.25792002
0.25500001 119196.73811207 5950.30144807
0.25600001 117489.27604100 5435.05416680
0.25700001 115807.76576810 5826.28897145
0.25800001 114152.69507951 4878.31565504
0.25900001 112524.24041495 4827.29014220
0.26000001 110920.22601044 5211.03246453
0.26100001 109340.66023112 5156.50578049
0.26200001 107786.80614769 4252.18970373
0.26300001 106255.07427702 5470.01148261
0.26400001 104747.99442930 5829.22616582
0.26500001 103263.55230433 5768.30230467
0.26600001 101801.10083712 4484.84770960
0.26700001 100360.99053862 4437.96321162
0.26800001 98942.83730830  5190.04677660
0.26900001 97545.07937544  5925.86385248
0.27000001 96168.75922645  5472.96434657
0.27100001 94812.26867330  6963.01334088
0.27200001 93476.44899790  5359.00507466
0.27300001 92160.03310070  4166.55529366
0.27400001 90861.51040730  4497.64497801
0.27500001 89583.75579207  4079.64443184
0.27600001 88322.34051489  4403.75210648
0.27700001 87080.89897640  3994.40102509
0.27800001 85856.06322852  4311.69169940
0.27900001 84649.14846008  4266.31728430
0.28000001 83458.87276185  4221.34998408
0.28100001 82285.72533738  5221.02951976
0.28200001 81129.49974739  3443.94742728
0.28300001 79989.15673073  4770.55353321
0.28400001 78864.06960571  4720.01478930
0.28500001 77755.23602937  5670.68963202
0.28600001 76661.50456026  4620.38909854
0.28700001 75583.63291132  4897.81964448
0.28800001 74518.86850251  4522.55034348
0.28900001 73470.44883260  3835.15761059
0.29000001 72435.59712398  4742.72094619
0.29100001 71415.36760449  4691.98987371
0.29200001 70408.53751002  3094.45537004
0.29300001 69415.74137520  3367.35777351
0.29400001 68435.74923417  3936.76666105
0.29500001 67470.18098734  4493.51426647
0.29600001 66516.34981765  3555.96422958
0.29700001 65576.11028350  3810.62794896
0.29800001 64648.62350230  3479.38908160
0.29900001 63733.83539632  3441.62727432
0.30000001 62830.65573400  3971.52593696
0.30100001 61940.55378041  4208.86082863
0.30200001 61061.55255470  4717.92108149
0.30300001 60195.25037275  2744.90354694
0.30400001 59340.29626338  4072.22802386
0.30500001 58497.53160031  3759.05155860
0.30600001 57664.96048862  4779.84880119
0.30700001 56844.65688062  3151.46792666
0.30800001 56035.25308431  3895.85115513
0.30900001 55237.19671976  3082.23572289
0.31000001 54449.96568946  3302.11832557
0.31100001 53673.22006896  3516.66954542
0.31200001 52908.20023623  2732.44413057
0.31300001 52152.94444025  3193.32493927
0.31400001 51409.70481737  2672.01953439
0.31500001 50675.54711040  2882.42525611
0.31600002 49953.07930166  2850.32283991
0.31700002 49240.10684773  3288.25449098
0.31800002 48537.23079080  3019.25858430
0.31900002 47845.19846530  2526.22659858
0.32000002 47163.44488663  3633.47196611
0.32100002 46491.31732649  2694.63687983
0.32200002 45830.09083324  3330.70200902
0.32300002 45177.17648293  3073.85523345
0.32400002 44535.38044049  2388.20988921
0.32500002 43903.09493245  3005.60602140
0.32600002 43280.71479606  2759.79490965
0.32700002 42668.11765514  2309.19863684
0.32800002 42066.15008204  3529.13982825
0.32900002 41471.78042782  2052.85322839
0.33000002 40888.46328699  2639.14598783
0.33100002 40313.64644453  2609.90559441
0.33200002 39750.01110732  2382.61577860
0.33300002 39194.90689530  3338.23037836
0.33400002 38649.89613130  2913.23605886
0.33500002 38113.82718744  2881.40547182
0.33600002 37586.83017937  2280.01722665
0.33700002 37069.29170509  2443.23713199
0.33800002 36561.81196874  2231.00187199
0.33900002 36062.79309675  2574.88354905
0.34000002 35573.21488734  2729.35504149
0.34100002 35092.92349090  2160.32047241
0.34200002 34622.60543413  2137.59976074
0.34300002 34160.68562767  1938.96060805
0.34400002 33708.52391777  2093.29943443
0.34500002 33265.16331730  3452.92411587
0.34600002 32831.37639490  2563.30983343
0.34700002 32405.51350447  1691.56788505
0.34800002 31989.67781862  1842.12568443
0.34900002 31582.34982820  2155.49547786
0.35000002 31184.25677474  2134.40655604
0.35100002 30795.79822449  1951.22186792
0.35200002 30414.61810706  2576.72656807
0.35300002 30043.68835031  2073.91590505
0.35400002 29680.90976467  1896.61022379
0.35500002 29327.39118533  1879.29931617
0.35600002 28981.97620470  1551.98489927
0.35700002 28645.38315371  1845.90857786
0.35800002 28317.72639407  1677.40060240
0.35900002 27999.33132816  1663.16035967
0.36000002 27689.15231355  1949.17796944
0.36100002 27386.82872650  2230.65730543
0.36200002 27094.50692466  2212.94395789
0.36300002 26809.40752337  1756.55246413
0.36400002 26533.22737480  1888.50254785
0.36500002 26264.57531735  2162.88787983
0.36600002 26005.23037841  2147.38200021
0.36700002 25753.46132280  1563.75024559
0.36800002 25510.78221402  1694.42623492
0.36900002 25275.98913798  1823.66270269
0.37000002 25048.71491228  2090.94157635
0.37100002 24829.53682344  1524.03704242
0.37200002 24618.95203252  2479.37477664
0.37300002 24415.83509061  1369.72841347
0.37400002 24220.52126954  1634.88526314
0.37500002 24033.22033701  1626.56842946
0.37600002 23853.79927584  1888.50537813
0.37700002 23681.62722455  1342.74832724
0.37800002 23517.14850034  1871.72993781
0.37900002 23360.97937180  1464.73347600
0.38000002 23211.33450662  1459.18061288
0.38100002 23068.53631611  1718.37535159
0.38200002 22934.16242272  1449.32446296
0.38300002 22806.05295258  1707.71732599
0.38400002 22685.57821351  1834.12908545
0.38500002 22571.51168673  1960.33588286
0.38600002 22465.33225722  1825.75763904
0.38700002 22365.10462915  1561.97898130
0.38800002 22271.64084333  1689.41539621
0.38900002 22184.88787129  1557.37920235
0.39000002 22105.31151608  1426.12424002
0.39100002 22031.24033678  1424.98069249
0.39200002 21964.13542692  1294.78584476
0.39300002 21902.85799045  1423.90486542
0.39400002 21848.85177990  1553.45343515
0.39500002 21799.62097029  1812.85656578
0.39600002 21756.72110767  1943.41920502
0.39700002 21718.98953102  1296.62373643
0.39800002 21688.19813121  1557.64646358
0.39900002 21661.95696149  1429.68922720
0.40000002 21641.72647386  2082.79985453
0.40100002 21626.41561242  1304.07292322
0.40200002 21616.93704799  1437.41829711
0.40300002 21612.30992482  2095.52966960
0.40400002 21612.75386974  2100.75977567
0.40500002 21617.81425554  1448.17744559
0.40600002 21628.58622419  1452.46777670
0.40700002 21643.45420721  1986.86919036
0.40800002 21662.68942793  1461.90666531
0.40900002 21686.06361971  1733.80086855
0.41000002 21714.66145276  1606.45073039
0.41100002 21746.98344418  1612.75636864
0.41200002 21782.72526156  2024.15984084
0.41300002 21823.71951868  2168.40487412
0.41400002 21867.71843533  1497.39209081
0.41500002 21915.41073118  1367.52169442
0.41600002 21965.85901673  1373.96454660
0.41700002 22021.24896499  1656.87885064
0.41800002 22080.17729866  2081.60881347
0.41900002 22140.48762527  1952.79110108
0.42000002 22204.58249747  1542.44139627
0.42100002 22272.37597059  1409.84146574
0.42200002 22342.60550987  1984.69374149
0.42300002 22415.12796732  1710.72264753
0.42400002 22490.24712306  2150.62998305
0.42500002 22568.23461931  1730.53231261
0.42600002 22647.38138137  1595.62133083
0.42700002 22729.86911477  1897.03496621
0.42800002 22813.74876485  1761.67776310
0.42900002 22900.55349918  2363.33723311
0.43000002 22988.82501730  1783.47312936
0.43100002 23077.32782949  1644.95200564
0.43200002 23168.79498694  1805.77596685
0.43300002 23260.94941972  2422.86060637
0.43400002 23354.93362445  1828.69138945
0.43500002 23449.51747216  1840.31821843
0.43600002 23545.97231116  2006.47012558
0.43700002 23642.62926212  2174.64914258
0.43800002 23739.79577297  1875.91875088
0.43900002 23838.65016532  1730.68608402
0.44000002 23937.44042946  1583.46175945
0.44100002 24037.01243162  1753.01939971
0.44200002 24136.87197665  1603.89521886
0.44300002 24237.13231765  1614.19308885
0.44400002 24337.27198875  2274.31817513
0.44500002 24437.06847480  2125.29194597
0.44600002 24536.65112130  2138.73729635
0.44700002 24637.19974574  1986.74388165
0.44800002 24736.17442151  1832.57956887
0.44900002 24835.47457002  2179.31299680
0.45000002 24934.60889630  2024.19164613
0.45100002 25032.18690134  2206.33705805
0.45200002 25129.55358691  2049.06389659
0.45300002 25225.81230281  2233.24126901
0.45400002 25321.34181526  2073.81799295
0.45500002 25416.17700161  2086.15990716
0.45600002 25509.47756132  2448.14467759
0.45700002 25601.97715124  1758.85591365
0.45800002 25692.85399529  2476.53431398
0.45900002 25782.35356197  2668.47372013
0.46000002 25870.88983588  2146.76654033
0.46100002 25957.14205743  2518.36204177
0.46200002 26042.50590437  1808.65212078
0.46300002 26126.00181262  2363.88075604
0.46400002 26207.25264888  2741.93393834
0.46500002 26287.78183383  2021.26764100
0.46600002 26365.38475483  2400.96387649
0.46700002 26441.03840970  2041.77708277
0.46800002 26515.49717728  2424.97490928
0.46900002 26587.10480114  1874.39097732
0.47000002 26656.69641579  2071.62526014
0.47100002 26724.30704884  1892.08102874
0.47200002 26789.77465208  2090.80806182
0.47300002 26852.73335328  2672.92120467
0.47400002 26912.83293503  2301.04732501
0.47500002 26970.98435528  2310.87404909
0.47600002 27027.23561379  2513.93843977
0.47700002 27079.93609547  2912.44726511
