# SAXS profile: number of points = 501, q_min = 0, q_max = 0.5, delta_q = 0.001
#    q    intensity    error
0.00000000 1682732.95097188 302.89193117
0.00100000 1682650.51444228 605.75419959
0.00200000 1682403.14708974 757.08144016
0.00300000 1681991.07201186 1110.11414707
0.00400000 1681414.16239366 2017.69707154
0.00500000 1680672.91986669 1966.38739408
0.00600000 1679767.27154206 2292.88241900
0.00700000 1678697.76010579 3424.54357294
0.00800000 1677464.24769133 2717.49219599
0.00900000 1676067.89210722 3771.15291845
0.01000000 1674508.18894572 4144.40794659
0.01100000 1672786.28292310 3914.32007247
0.01200000 1670902.21303900 3584.08540411
0.01300000 1668857.09643163 4205.52006849
0.01400000 1666650.99938061 5249.95088078
0.01500000 1664285.31602553 4393.71342995
0.01600000 1661759.41728704 5084.98404421
0.01700000 1659075.59963387 4927.45475195
0.01800000 1656233.90192098 5192.29351616
0.01900000 1653234.88683779 6447.61634960
0.02000000 1650079.77639157 6237.30183691
0.02100000 1646770.66979980 6521.21214807
0.02200000 1643305.91323677 9637.98961901
0.02300000 1639688.98067263 7083.45671893
0.02400000 1635919.23637095 9202.04612418
0.02500000 1631999.51526105 8274.23792026
0.02600000 1627929.45610072 9230.36043827
0.02700000 1623711.33770214 9547.42310297
0.02800000 1619345.09674886 8452.98179268
0.02900000 1614833.33300651 8720.10039861
0.03000000 1610177.23052861 9733.52180595
0.03100000 1605377.09324092 8476.39144234
0.03200000 1600434.67662908 11091.01281987
0.03300000 1595353.69814247 10577.19550630
0.03400000 1590132.09035427 10017.83263146
0.03500000 1584773.27336461 10269.33128562
0.03600000 1579278.52607126 9641.49584723
0.03700000 1573649.64426539 10763.76406457
0.03800000 1567888.16266772 11923.79002892
0.03900000 1561996.00952768 13120.76708766
0.04000000 1555973.30583375 12440.00715660
0.04100000 1549824.04321887 10740.28111750
0.04200000 1543548.86755174 15929.42505215
0.04300000 1537148.82768708 15217.77410048
0.04400000 1530627.53049837 13431.25720390
0.04500000 1523986.22157531 11567.05595922
0.04600000 1517224.92969109 10696.43625157
0.04700000 1510347.95801750 14136.85754452
0.04800000 1503356.04587122 12154.63419640
0.04900000 1496252.36232520 13466.27188775
0.05000000 1489036.88619897 14808.47252282
0.05100000 1481714.22824735 16180.32012621
0.05200000 1474282.73211655 14064.65791982
0.05300000 1466748.56633397 15444.86312350
0.05400000 1459111.03301882 12037.66658377
0.05500000 1451373.53272955 14629.84589239
0.05600000 1443536.63495286 16044.91044622
0.05700000 1435605.80362104 16236.70239686
0.05800000 1427579.69230340 13897.48895348
0.05900000 1419461.03903901 14052.66494283
0.06000000 1411253.88534187 15495.56838499
0.06100000 1402959.52173179 16961.78141038
0.06200000 1394579.78092768 14496.65750037
0.06300000 1386118.22620310 19960.10339057
0.06400000 1377573.54707185 17460.74552572
0.06500000 1368951.69697041 16263.14692076
0.06600000 1360253.90735299 15037.60764937
0.06700000 1351481.80550303 17920.64957964
0.06800000 1342638.35267698 13896.30760068
0.06900000 1333726.36477743 16804.95298299
0.07000000 1324746.44758727 22573.68052398
0.07100000 1315701.69788714 18472.45270354
0.07200000 1306594.74566723 20030.09838942
0.07300000 1297427.98641475 17281.74158879
0.07400000 1288204.28057650 18839.98848635
0.07500000 1278924.75603403 14579.74290218
0.07600000 1269590.59934659 16130.14932089
0.07700000 1260207.52848762 22116.64316197
0.07800000 1250775.68481339 19268.20032816
0.07900000 1241296.75841835 16385.11797965
0.08000000 1231775.38565734 17959.28596537
0.08100000 1222212.05555431 15033.20898865
0.08200000 1212609.02339295 19626.07796457
0.08300000 1202969.42744228 30314.83099428
0.08400000 1193295.24376754 21300.32110106
0.08500000 1183588.42282826 22902.43705689
0.08600000 1173851.70726892 22978.14824865
0.08700000 1164088.04075495 15365.96285952
0.08800000 1154297.60742267 15409.87378280
0.08900000 1144485.02870179 26265.93264241
0.09000000 1134651.14371893 15487.98883932
0.09100000 1124797.81684516 20178.87378223
0.09200000 1114927.57265666 20219.21248016
0.09300000 1105045.18109034 17139.25156412
0.09400000 1095147.52311902 17166.43823167
0.09500000 1085240.35650345 15627.46186818
0.09600000 1075324.92336202 17210.57620744
0.09700000 1065405.91454034 17227.61444804
0.09800000 1055482.35034591 18808.69636751
0.09900000 1045558.16909431 18820.04792866
0.10000000 1035632.80680278 21965.77286528
0.10100000 1025710.02499889 17262.70053263
0.10200000 1015791.94559081 23540.97944635
0.10300000 1005880.09464957 23537.59532203
0.10400000 995977.66765108 18823.97880418
0.10500000 986087.03753163 20382.42002476
0.10600001 976205.56787903 17234.91011187
0.10700001 966341.15536701 15654.72745362
0.10800001 956491.65106304 18766.36707703
0.10900001 946661.33927983 18743.89539993
0.11000001 936850.31639275 17158.41435237
0.11100001 927061.39793361 18689.55866212
0.11200001 917295.80504853 23322.24694130
0.11300001 907555.40097282 23278.79713094
0.11400001 897842.51586545 17036.56254070
0.11500001 888159.11488801 21635.55705745
0.11600001 878505.65324641 26210.21739888
0.11700001 868885.38686704 18455.12648620
0.11800001 859297.07913514 23007.68037747
0.11900001 849744.08937855 27531.70979265
0.12000001 840227.35401857 18300.15263255
0.12100001 830751.54057300 15202.75390866
0.12200001 821314.85197292 19699.23765263
0.12300001 811919.83276058 21142.39344120
0.12400001 802566.60769525 16552.93706365
0.12500001 793257.33689554 17991.07724854
0.12600001 783995.46480383 14935.11430831
0.12700001 774779.82365073 25288.81463573
0.12800001 765611.86571619 19258.96738975
0.12900001 756494.30026989 16226.80350559
0.13000001 747427.83527684 20561.74071764
0.13100001 738412.34746643 16082.62168592
0.13200001 729450.68965222 16007.79613903
0.13300001 720543.81550485 24620.98333651
0.13400001 711691.50327485 14411.75362077
0.13500001 702896.50590272 20074.72515507
0.13600001 694158.84661850 17117.95796474
0.13700001 685480.29055125 15608.38695184
0.13800001 676859.51983996 18346.27815039
0.13900001 668301.40744129 18244.62928353
0.14000001 659803.16085826 18141.28876335
0.14100001 651368.86819683 18036.40481102
0.14200001 642997.00536224 13792.28641554
0.14300001 634690.44407100 21934.90278171
0.14400001 626445.38877466 16350.22541826
0.14500001 618268.83133791 21664.14087202
0.14600001 610157.53324730 17490.16651562
0.14700001 602114.59336079 21387.11136514
0.14800001 594136.97455043 17262.65060999
0.14900001 586228.52013059 14509.15655779
0.15000001 578388.62611541 18340.70419949
0.15100001 570618.37937208 16913.12956263
0.15200001 562918.78246979 18086.58133421
0.15300001 555289.60282207 19240.78564574
0.15400001 547729.29481949 12734.70670552
0.15500001 540242.00348891 16434.16252171
0.15600001 532824.62492171 15057.62461093
0.15700001 525482.05276831 18680.88785759
0.15800001 518208.73442146 12359.27889929
0.15900001 511010.33735143 15943.52327791
0.16000001 503882.54872185 15819.39336384
0.16100001 496830.14605918 16902.16236679
0.16200001 489850.80768452 20360.64978255
0.16300001 482944.37964007 17820.64844999
0.16400001 476112.24343218 12962.15643938
0.16500001 469353.28512319 12855.58708645
0.16600001 462669.18662845 15066.82277391
0.16700001 456057.76560972 17238.98435398
0.16800001 449520.70290535 14813.95546371
0.16900001 443059.30850331 12427.81419034
0.17000001 436670.15371957 11200.58997180
0.17100001 430355.96957916 24427.00598679
0.17200001 424115.35982556 12106.37351792
0.17300001 417949.00364889 15271.85731454
0.17400001 411857.03363654 10811.24764353
0.17500001 405837.67630243 12856.93819246
0.17600001 399890.85154122 13802.23339281
0.17700001 394020.26924325 12624.41002281
0.17800001 388220.88110398 13550.85049497
0.17900001 382494.08950399 11360.07499485
0.18000001 376841.52689890 16369.99670173
0.18100001 371261.77428265 14189.62568335
0.18200001 365751.97142293 11043.88129881
0.18300001 360314.87226923 11933.62913329
0.18400001 354949.26562918 10834.82684518
0.18500001 349655.22914288 10730.91948935
0.18600001 344432.23145364 11593.58945845
0.18700001 339278.88904972 12437.96466019
0.18800001 334194.25147230 10421.84822456
0.18900001 329182.75625797 15010.73439458
0.19000001 324236.27035859 11147.24350162
0.19100001 319361.48496285 11037.13344182
0.19200001 314553.21099463 10016.94747744
0.19300001 309814.77388911 11720.29345004
0.19400001 305141.57022221 13388.08702614
0.19500001 300536.45318708 9719.34935536
0.19600001 295996.00014431 12245.35510464
0.19700001 291523.33480817 13853.18952475
0.19800001 287114.53019654 9427.40604453
0.19900001 282770.86237030 10179.75152643
0.20000001 278489.84976551 10075.76324071
0.20100001 274274.04154487 10803.65500706
0.20200001 270119.81386770 8225.14872102
0.20300001 266028.47481602 13024.75474260
0.20400001 261999.06131282 10473.41297101
0.20500001 258029.89402171 9567.74892256
0.20600001 254121.04994559 12624.73435804
0.20700001 250272.39825435 9370.19903356
0.20800001 246482.31746202 9272.66522124
0.20900001 242753.07073906 10705.41092565
0.21000001 239078.82434959 9836.89869288
0.21100001 235463.04108854 8985.27007270
0.21200001 231902.98996534 12595.81149543
0.21300001 228398.55334611 8064.75329992
0.21400001 224949.67250342 7980.09000933
0.21500001 221556.29875628 7896.26686099
0.21600001 218215.18199337 7813.19496067
0.21700001 214927.78622734 7730.95283611
0.21800001 211692.90746168 6954.11233891
0.21900001 208509.01311691 9633.11686147
0.22000001 205375.41200246 7489.01475277
0.22100001 202293.84933278 6736.38550130
0.22200001 199261.36839778 8664.88101449
0.22300001 196277.27512767 9232.88345859
0.22400001 193340.86034406 9135.35608323
0.22500001 190453.98186742 8393.30737779
0.22600001 187612.37464844 7027.02182475
0.22700001 184817.59748353 7584.91455941
0.22800001 182067.69615994 11257.24618592
0.22900001 179361.98437828 6806.78762906
0.23000001 176701.07239019 6122.69244787
0.23100001 174084.56872589 7269.77193380
0.23200001 171508.99875641 7193.08774803
0.23300001 168976.55016668 8303.50806790
0.23400001 166484.24009003 6455.42671480
0.23500001 164032.79837959 7548.78973846
0.23600001 161621.41030161 6320.20554877
0.23700001 159249.60617431 6253.73233025
0.23800001 156916.08551507 5625.44193179
0.23900001 154620.74135567 6679.61634251
0.24000001 152361.96415838 5507.88526485
0.24100001 150141.22486672 8720.20275274
0.24200001 147956.37063557 5393.00996477
0.24300001 145806.28567849 6403.81236992
0.24400001 143690.97277291 7392.90089888
0.24500001 141609.47963340 5747.92905022
0.24600001 139561.66865755 5687.83607520
0.24700001 137547.61161140 6140.12567280
0.24800001 135565.18261707 7595.03971542
0.24900001 133613.47022011 5511.55590732
0.25000001 131694.28982386 7437.43536965
0.25100001 129804.81665207 7359.93345236
0.25200001 127947.15365826 6797.83259547
0.25300001 126116.98458235 6727.08027588
0.25400001 124317.17214993 5706.15847165
0.25500001 122543.62152218 5176.24281799
0.25600001 120799.63463394 5588.19136256
0.25700001 119081.82111972 4608.46669538
0.25800001 117390.75679848 5016.69422914
0.25900001 115726.93852293 5416.02097913
0.26000001 114087.73588129 4913.18857820
0.26100001 112473.51514028 4862.23028958
0.26200001 110885.20987713 6124.19043129
0.26300001 109319.79634877 5194.87696830
0.26400001 107778.90970557 4284.21186352
0.26500001 106261.48617219 4239.83349889
0.26600001 104766.26658105 5874.24484517
0.26700001 103293.88684208 4982.89733705
0.26800001 101843.70948473 5342.21203382
0.26900001 100414.21858969 4473.45364986
0.27000001 99006.65533935  4829.54487600
0.27100001 97619.26189310  4381.15268109
0.27200001 96252.84736219  5912.33142901
0.27300001 94906.30971874  4680.77941684
0.27400001 93577.87360791  4246.09621590
0.27500001 92270.58697405  4202.00272966
0.27600001 90980.02646674  6048.35244575
0.27700001 89709.86301334  6359.53248999
0.27800001 88456.54401297  4812.47850479
0.27900001 87221.51700115  5494.95583114
0.28000001 86003.41454999  3987.54850433
0.28100001 84802.77525660  4304.58907576
0.28200001 83619.39146276  4614.53633628
0.28300001 82452.34992936  3512.47027324
0.28400001 81300.70597516  4518.28694842
0.28500001 80165.67511711  3783.01838783
0.28600001 79046.00776802  4083.51695458
0.28700001 77942.56758976  5050.67861888
0.28800001 76852.46192404  4664.17613494
0.28900001 75779.18879229  3626.03435534
0.29000001 74719.58513818  3587.66105023
0.29100001 73674.88662214  3872.35222416
0.29200001 72643.95815889  3831.24253465
0.29300001 71627.41119534  3790.52277989
0.29400001 70623.78625638  4687.65403466
0.29500001 69634.93618062  4637.68696916
0.29600001 68658.12934023  3670.46376828
0.29700001 67694.95658964  3631.15764336
0.29800001 66744.94289453  5088.96841190
0.29900001 65808.18020148  4145.91554896
0.30000001 64882.79687755  4394.18762655
0.30100001 63970.97230793  4057.03925583
0.30200001 63070.52228113  3726.52198540
0.30300001 62182.97124371  3402.65234754
0.30400001 61307.00530684  3646.23431324
0.30500001 60443.46485014  3051.79068476
0.30600001 59590.29894664  3292.96007569
0.30700001 58749.61382338  4071.34843071
0.30800001 57920.16891084  4026.89993417
0.30900001 57102.28361343  2920.78194511
0.31000001 56295.42382486  2626.18164577
0.31100001 55499.19333560  3636.30731951
0.31200001 54714.94449474  2568.86676565
0.31300001 53940.66532729  4064.96873153
0.31400001 53178.56151105  4271.56815562
0.31500001 52425.67114823  2981.97231610
0.31600002 51684.78974161  3194.89542915
0.31700002 50953.57083740  2430.48544402
0.31800002 50232.58438998  2643.99220456
0.31900002 49522.67208473  2852.50604714
0.32000002 48823.29217277  2350.84162943
0.32100002 48133.51949502  3254.78874237
0.32200002 47454.99343453  2759.03344892
0.32300002 46784.99718696  2728.50116514
0.32400002 46126.21652573  2248.65316211
0.32500002 45476.91285463  2890.96748706
0.32600002 44837.86470972  2859.08657860
0.32700002 44208.74549005  2392.57741922
0.32800002 43590.47550821  2151.19006820
0.32900002 42979.91402694  2127.50584508
0.33000002 42380.44472257  2314.60809813
0.33100002 41789.67661911  2497.35119302
0.33200002 41210.16356574  2058.44776759
0.33300002 40639.36944981  2443.23900702
0.33400002 40078.84807678  2618.15087460
0.33500002 39527.52620247  2191.40615644
0.33600002 38985.15261155  2167.76951362
0.33700002 38452.48232897  2339.44913568
0.33800002 37930.01107283  3085.98584703
0.33900002 37416.03467178  2099.03964449
0.34000002 36911.68771627  2454.44279093
0.34100002 36416.79276212  2054.99971289
0.34200002 35931.87656080  2403.30367759
0.34300002 35455.36390799  2378.34592358
0.34400002 34988.97911337  2353.88368133
0.34500002 34531.27856094  1971.39078641
0.34600002 34083.48841632  2128.85478731
0.34700002 33643.62027362  1931.81676760
0.34800002 33213.86228007  1912.62034998
0.34900002 32792.62681379  2754.58078282
0.35000002 32380.81175912  1875.33480185
0.35100002 31978.75500795  1857.32617883
0.35200002 31584.05951751  2174.08883986
0.35300002 31199.63520969  2153.71092053
0.35400002 30823.32153418  2954.41550898
0.35500002 30456.50404569  1626.37739307
0.35600002 30098.01304239  1934.09840971
0.35700002 29748.26144245  2555.97074420
0.35800002 29407.53430565  1900.31495684
0.35900002 29076.12356877  1727.12182179
0.36000002 28752.97192808  1868.36820438
0.36100002 28437.84146763  2007.42732428
0.36200002 28132.78012468  2757.29391062
0.36300002 27834.90250101  1671.76432340
0.36400002 27546.09284554  1960.59325115
0.36500002 27264.79130605  1796.20453632
0.36600002 26992.96092732  1485.96256944
0.36700002 26728.73974936  1622.96915446
0.36800002 26473.74750664  2491.04738963
0.36900002 26226.57834858  1601.13268402
0.37000002 25986.98455961  1446.17575925
0.37100002 25755.55183203  1580.87584634
0.37200002 25532.68854176  1999.97558821
0.37300002 25317.62630535  1420.31890301
0.37400002 25110.28549392  1412.45362594
0.37500002 24910.89506438  1685.96945782
0.37600002 24719.48623660  1677.46441548
0.37700002 24535.46445989  1669.39308093
0.37800002 24359.05299509  1661.77467405
0.37900002 24191.05515701  1654.66825113
0.38000002 24029.72501516  1510.62873464
0.38100002 23875.11771849  1778.45760310
0.38200002 23729.09361244  1635.88379114
0.38300002 23589.42867504  1630.50138726
0.38400002 23457.26649176  2167.45152652
0.38500002 23331.69869655  1485.99596038
0.38600002 23213.97301030  1751.84255622
0.38700002 23102.26410109  1747.91738470
0.38800002 22997.37318354  1744.46582548
0.38900002 22899.26145204  1741.48891593
0.39000002 22808.22172918  1605.24272135
0.39100002 22722.85099024  1469.71407168
0.39200002 22644.63363668  1868.86170258
0.39300002 22571.98684196  1734.20583123
0.39400002 22506.86062891  1333.53155544
0.39500002 22446.51757083  1333.32320688
0.39600002 22392.38786055  1466.81343630
0.39700002 22343.60417592  1867.47852550
0.39800002 22301.78927596  1468.23836655
0.39900002 22264.50352775  1603.04432995
0.40000002 22233.27453412  1872.26413722
0.40100002 22207.10473014  1606.90617441
0.40200002 22186.68232975  1475.30351142
0.40300002 22171.16504185  1477.92993171
0.40400002 22160.84691260  1480.89866510
0.40500002 22155.00065941  1888.93544572
0.40600002 22155.07963852  1487.82444362
0.40700002 22159.18132175  1491.75615726
0.40800002 22167.76299215  1767.99002121
0.40900002 22180.54360117  2046.15524416
0.41000002 22198.52489331  1505.39303697
0.41100002 22220.29537586  1922.50004701
0.41200002 22245.43292121  1378.10463477
0.41300002 22275.99438252  2213.34290672
0.41400002 22309.53417812  1527.64542523
0.41500002 22346.78075819  1812.77094100
0.41600002 22386.89583574  1680.36048105
0.41700002 22431.81829998  1547.12258146
0.41800002 22480.60992158  1695.48768062
0.41900002 22530.60948508  1845.25700426
0.42000002 22584.51886838  1854.07616435
0.42100002 22642.13999538  1433.24752962
0.42200002 22702.13303204  1872.58553188
0.42300002 22764.56563539  1882.17437592
0.42400002 22829.56816836  2037.53905558
0.42500002 22897.68070159  2048.42661263
0.42600002 22966.83280577  1618.12828201
0.42700002 23039.45347260  1922.87287794
0.42800002 23113.37909993  1636.08061712
0.42900002 23190.23395004  1495.77016066
0.43000002 23268.85913181  1955.63135841
0.43100002 23347.57804996  1664.21544226
0.43200002 23429.32858473  1673.90846006
0.43300002 23511.83259645  1989.80648693
0.43400002 23596.29633103  2617.41929455
0.43500002 23681.26385763  1858.50567562
0.43600002 23768.31191150  2337.01937945
0.43700002 23855.44750947  1724.03327321
0.43800002 23943.23200970  1891.99428307
0.43900002 24032.75553328  1903.39432844
0.44000002 24122.18814097  2074.38766749
0.44100002 24212.56802166  2407.94000387
0.44200002 24303.25195276  1937.94140255
0.44300002 24394.33833159  2112.06191284
0.44400002 24485.44547430  1797.84391915
0.44500002 24576.13933053  1808.55817904
0.44600002 24666.80365515  2150.08204250
0.44700002 24758.40111883  2495.64695105
0.44800002 24848.58082757  2510.32799707
0.44900002 24939.16483522  2356.75118862
0.45000002 25029.49373003  1862.56986419
0.45100002 25118.41850397  1873.33174081
0.45200002 25207.20705787  1884.11278083
0.45300002 25294.82597639  2411.60882288
0.45400002 25381.90240543  2771.70387403
0.45500002 25468.42053715  1916.24405203
0.45600002 25553.37045205  1751.68362751
0.45700002 25637.58057075  2465.82261616
0.45800002 25720.26889640  2125.00871693
0.45900002 25801.57055651  2314.40098861
0.46000002 25882.11447145  2326.67279068
0.46100002 25960.29037479  2158.85784989
0.46200002 26037.69658025  2169.98173584
0.46300002 26113.36293915  2180.98817605
0.46400002 26186.80024406  1826.52940359
0.46500002 26259.63453461  2019.10339506
0.46600002 26329.55275592  2028.82378376
0.46700002 26397.62261964  2038.42451530
0.46800002 26464.61998508  2047.96471461
0.46900002 26528.73507045  2431.35868444
0.47000002 26591.01114283  2254.38603154
0.47100002 26651.31769700  2452.98739710
0.47200002 26709.63391625  3221.58264750
0.47300002 26765.49483692  2093.32945041
0.47400002 26818.53155193  2484.06660274
0.47500002 26869.71903223  1918.49802983
0.47600002 26919.09037664  2311.27320929
0.47700002 26964.93354078  2126.72440916
