# SAXS profile: number of points = 501, q_min = 0, q_max = 0.5, delta_q = 0.001
#    q    intensity    error
0.00000000 1700912.83420644 280.65061764
0.00100000 1700829.92894487 510.24899080
0.00200000 1700581.16149647 1147.89232036
0.00300000 1700166.75181253 1428.14012240
0.00400000 1699586.56500075 1529.62796662
0.00500000 1698841.12304560 1528.95707126
0.00600000 1697930.34550696 1961.10962890
0.00700000 1696854.75889524 2036.22579530
0.00800000 1695614.22854732 3204.71102726
0.00900000 1694209.95257358 3049.57804499
0.01000000 1692641.37659378 4747.85926636
0.01100000 1690909.69776582 3652.36510620
0.01200000 1689014.88890807 3952.29501333
0.01300000 1686958.15051055 5313.91840848
0.01400000 1684739.47705038 5685.99598711
0.01500000 1682360.30121559 4037.66490271
0.01600000 1679819.98636231 5568.60350373
0.01700000 1677120.86233613 4981.04918458
0.01800000 1674262.92901774 4771.64956241
0.01900000 1671246.74926361 5515.11452143
0.02000000 1668073.61374782 6305.31854519
0.02100000 1664745.50295532 7691.12457236
0.02200000 1661260.84668541 6304.48519960
0.02300000 1657623.12475638 6564.18787283
0.02400000 1653831.72667485 6822.05618360
0.02500000 1649889.40234280 10295.31034081
0.02600000 1645795.86194609 8665.11560947
0.02700000 1641553.38143688 8962.88187316
0.02800000 1637161.89334422 7833.82001891
0.02900000 1632624.01939548 9550.85095198
0.03000000 1627940.89559300 8326.91806371
0.03100000 1623112.90742575 8570.03654554
0.03200000 1618141.73700096 9611.76236049
0.03300000 1613031.16524280 8226.45932198
0.03400000 1607778.93755784 10129.00777397
0.03500000 1602388.77902907 8652.89980633
0.03600000 1596861.84387097 11521.35873597
0.03700000 1591199.89500765 9976.82380310
0.03800000 1585404.52962196 15766.84877677
0.03900000 1579477.71333390 9476.86671888
0.04000000 1573419.32052599 10644.18219660
0.04100000 1567233.69737506 11848.28730152
0.04200000 1560921.29536911 10067.94282221
0.04300000 1554483.25700425 11285.54896970
0.04400000 1547923.05621435 11493.32922616
0.04500000 1541242.02810415 11698.02753686
0.04600000 1534440.19784319 11899.58428745
0.04700000 1527522.06237778 15397.42310487
0.04800000 1520487.92633160 12293.14545637
0.04900000 1513341.47235172 11350.06157095
0.05000000 1506082.32211443 17282.29545103
0.05100000 1498715.40549273 12858.97877815
0.05200000 1491238.63437282 15411.95200446
0.05300000 1483658.42849817 15622.92398039
0.05400000 1475974.27056902 14612.14596005
0.05500000 1468189.20374762 12332.78988680
0.05600000 1460304.19316236 12485.60143417
0.05700000 1452324.52398077 21479.88071232
0.05800000 1444248.64142397 14059.76118075
0.05900000 1436079.64710259 23264.49136965
0.06000000 1427821.53457856 20903.30824281
0.06100000 1419475.17730875 13201.11976588
0.06200000 1411043.01573440 17334.66425858
0.06300000 1402528.11229714 13464.27050758
0.06400000 1393929.50108763 16308.97592544
0.06500000 1385253.27259896 23313.81366841
0.06600000 1376500.06953035 19367.35688446
0.06700000 1367672.23483174 15345.28319296
0.06800000 1358772.12963746 16875.95064005
0.06900000 1349802.92549891 22676.69021008
0.07000000 1340765.11532517 17134.97897626
0.07100000 1331661.89486757 23011.11862110
0.07200000 1322495.72817744 17377.59468234
0.07300000 1313269.33078643 18950.47733118
0.07400000 1303985.29769745 20537.76940122
0.07500000 1294644.82620768 20662.53239478
0.07600000 1285249.10417820 14844.62784918
0.07700000 1275804.06971228 20897.67164175
0.07800000 1266309.24847358 16506.34182794
0.07900000 1256767.10417544 21113.68834046
0.08000000 1247181.79709884 16668.58550017
0.08100000 1237554.28155499 24355.06940370
0.08200000 1227886.40982787 21402.06112760
0.08300000 1218181.22941325 19953.80947426
0.08400000 1208441.15821400 16948.38803949
0.08500000 1198667.74115441 23194.22188019
0.08600000 1188863.99391138 18617.61101878
0.08700000 1179032.99785416 18675.88356299
0.08800000 1169174.50317232 17169.32838542
0.08900000 1159293.36195981 18780.55334587
0.09000000 1149390.45929216 15689.18050635
0.09100000 1139467.73628094 18869.58659933
0.09200000 1129527.70691834 15756.91225188
0.09300000 1119574.91546061 17364.60775479
0.09400000 1109606.49070227 26880.21850056
0.09500000 1099628.19301465 22168.50541315
0.09600000 1089641.17664404 19025.13583853
0.09700000 1079650.17060625 19045.02990485
0.09800000 1069654.28760555 15884.36691779
0.09900000 1059657.21261877 17484.34483037
0.10000000 1049658.82273953 17492.56510358
0.10100000 1039662.36087268 17497.51835643
0.10200000 1029670.40324558 28635.13526115
0.10300000 1019684.27969127 19088.49061376
0.10400000 1009707.35182262 17493.18069330
0.10500000 999741.80744185 20664.66413208
0.10600001 989784.98882372 23829.07472717
0.10700001 979845.02988604 17460.83925424
0.10800001 969919.66706663 25373.09968456
0.10900001 960013.14003757 15840.21755615
0.11000001 950125.77171795 18983.51381247
0.11100001 940260.09482221 25274.19253856
0.11200001 930417.54554449 22078.80939518
0.11300001 920599.98206798 17316.48647797
0.11400001 910809.52753436 20424.90461665
0.11500001 901048.46271102 21949.54158520
0.11600001 891316.86209252 21899.65633290
0.11700001 881618.48267778 17165.11266613
0.11800001 871951.75192133 17120.77345533
0.11900001 862320.36630623 23282.65098692
0.12000001 852724.60572275 21667.73325207
0.12100001 843169.91406099 16973.01116961
0.12200001 833653.73725532 15380.91217698
0.12300001 824179.88570195 18395.69591557
0.12400001 814747.01769814 18331.80876196
0.12500001 805358.16287754 22831.90499343
0.12600001 796016.65195391 16680.52972774
0.12700001 786721.09352666 15105.04570756
0.12800001 777473.23312401 15044.10776997
0.12900001 768275.59495412 20973.92473079
0.13000001 759128.81790930 20883.63476503
0.13100001 750032.88703342 16335.71704961
0.13200001 740991.19101215 19217.60744482
0.13300001 732003.75289487 17655.93135218
0.13400001 723070.95415731 23427.50001920
0.13500001 714195.45669187 14569.58800344
0.13600001 705377.37186860 18844.15737799
0.13700001 696618.11262886 21629.99341705
0.13800001 687916.59996748 17211.67414282
0.13900001 679277.92993965 17117.80464172
0.14000001 670699.10863429 17022.34417992
0.14100001 662184.14414317 15514.97522901
0.14200001 653731.56825646 18229.30564062
0.14300001 645344.39927764 18121.27158645
0.14400001 637018.63818237 15240.67163741
0.14500001 628761.59669012 13769.87961707
0.14600001 620569.85916868 17788.63585224
0.14700001 612446.49259425 14955.94405472
0.14800001 604388.64002454 14858.89541603
0.14900001 596399.85495687 18786.59631751
0.15000001 588479.60023760 13329.06357429
0.15100001 580629.31505022 15886.01880936
0.15200001 572849.70951276 18405.66203515
0.15300001 565140.66391532 13054.74995248
0.15400001 557500.36306201 15554.26086345
0.15500001 549933.39829010 14155.28634002
0.15600001 542436.45916695 19161.56882440
0.15700001 535014.60509343 13947.83141308
0.15800001 527661.77972659 21394.04786879
0.15900001 520384.38510543 16235.99358164
0.16000001 513177.48782536 12393.23691597
0.16100001 506046.29154115 13526.61801141
0.16200001 498988.16250889 18300.39172390
0.16300001 492003.32714354 16944.59538674
0.16400001 485093.00066579 13206.65756661
0.16500001 478255.98150557 13099.43195188
0.16600001 471494.12792738 16535.29984709
0.16700001 464804.93525658 11713.08492150
0.16800001 458190.39310340 11615.12701360
0.16900001 451651.91710016 12668.83687286
0.17000001 445185.91163161 12560.92108981
0.17100001 438795.09040103 12453.00525363
0.17200001 432477.82246797 16834.20003453
0.17300001 426235.40879546 11124.74469492
0.17400001 420067.35549664 18745.50662431
0.17500001 413972.24348654 15300.41484186
0.17600001 407950.10527693 18412.82887130
0.17700001 402004.32416695 15026.92234709
0.17800001 396130.08603960 18081.35863130
0.17900001 390328.69831735 14754.42549330
0.18000001 384602.05927708 10441.94640260
0.18100001 378948.30402812 11379.81810751
0.18200001 373364.80981566 12298.63741629
0.18300001 367854.39863326 13198.61644645
0.18400001 362415.71248594 16091.25839454
0.18500001 357048.99901883 12950.16780621
0.18600001 351753.75311039 12826.70121315
0.18700001 346528.18298068 10749.30474391
0.18800001 341371.78948963 13549.04696498
0.18900001 336289.04145839 10542.66194783
0.19000001 331271.74433631 14236.40388551
0.19100001 326326.29439318 13157.47681162
0.19200001 321447.68305641 12097.68412346
0.19300001 316639.41365661 11057.04884736
0.19400001 311896.68663831 11859.87206985
0.19500001 307222.35730127 11742.03905093
0.19600001 302613.19729472 11624.88652343
0.19700001 298072.22456841 10623.29458565
0.19800001 293595.44492880 11392.97177888
0.19900001 289184.19606642 9543.07892120
0.20000001 284836.03506688 12881.71029470
0.20100001 280553.45912315 11051.00127716
0.20200001 276332.80849394 9255.76785796
0.20300001 272175.54220459 10827.14358064
0.20400001 268080.40613720 8243.47287835
0.20500001 264046.17039612 8974.92975598
0.20600001 260072.67745880 8882.78271848
0.20700001 256159.65013990 9590.61775458
0.20800001 252305.69136650 8700.76217806
0.20900001 248513.01987708 10959.42469465
0.21000001 244775.74533615 9296.58324734
0.21100001 241097.58532756 9200.28429103
0.21200001 237475.21684322 9863.53359788
0.21300001 233909.10837713 10511.87582742
0.21400001 230399.08031144 8916.44482959
0.21500001 226944.81041900 13235.42196937
0.21600001 223543.37240214 8731.60453885
0.21700001 220196.16891292 7200.41506389
0.21800001 216901.75459492 7837.74527286
0.21900001 213658.67137432 10576.10473308
0.22000001 210466.62194510 10465.45327105
0.22100001 207326.94133609 7594.38622023
0.22200001 204237.01416962 8198.07413641
0.22300001 201195.72419143 7436.19431774
0.22400001 198202.55632366 7358.27025146
0.22500001 195259.54575526 7943.15869693
0.22600001 192361.98018465 7204.91830852
0.22700001 189512.08894198 7777.57649797
0.22800001 186707.22256991 7054.73273842
0.22900001 183947.30873908 8250.03718710
0.23000001 181232.48240207 6907.67639343
0.23100001 178562.49978927 9320.96292981
0.23200001 175934.06339623 7378.67496780
0.23300001 173349.26055354 7301.47119983
0.23400001 170804.81561527 8429.21804928
0.23500001 168301.92393191 8936.83258346
0.23600001 165839.64324330 7074.71951537
0.23700001 163416.98398026 7584.18258524
0.23800001 161033.41202315 6927.65771291
0.23900001 158688.50506508 10283.01561460
0.24000001 156380.61131571 5653.15936646
0.24100001 154111.16916066 7831.92998720
0.24200001 151878.14014495 5535.95847015
0.24300001 149680.33503700 9860.94093869
0.24400001 147517.77023401 6505.53397506
0.24500001 145389.52106353 5901.36093913
0.24600001 143295.35535800 5309.09316716
0.24700001 141235.50213321 6304.75311348
0.24800001 139207.79613446 8838.99943370
0.24900001 137211.02932554 5145.41384312
0.25000001 135247.43188093 5601.27265633
0.25100001 133313.99667780 6551.05010667
0.25200001 131412.89847990 5485.83170658
0.25300001 129539.68465904 5922.55466281
0.25400001 127697.31877888 5372.86494182
0.25500001 125881.70699086 7734.17244344
0.25600001 124096.08901122 5262.29490349
0.25700001 122337.13972575 5207.89228453
0.25800001 120605.29097716 4685.51577615
0.25900001 118901.27459905 6492.00990028
0.26000001 117222.17431486 4589.24834157
0.26100001 115568.79173312 7266.96596802
0.26200001 113941.47563597 5393.98971183
0.26300001 112337.62655786 5783.14128884
0.26400001 110758.75575564 4842.92682457
0.26500001 109203.75165140 4357.22989707
0.26600001 107671.39596165 4312.23961232
0.26700001 106162.41088699 5121.27494353
0.26800001 104675.97659842 5068.41102674
0.26900001 103210.74116576 5016.04225802
0.27000001 101767.72257451 4964.22974210
0.27100001 100345.48688269 5731.73448198
0.27200001 98944.63499772  5267.31789337
0.27300001 97564.02025609  7217.78656012
0.27400001 96201.87073947  4761.99282696
0.27500001 94861.37159066  5105.43926063
0.27600001 93538.15927256  4663.81284205
0.27700001 92235.60751542  5769.33752313
0.27800001 90950.27324633  4186.89602705
0.27900001 89683.64379280  5650.06982635
0.28000001 88434.39581886  4100.26095620
0.28100001 87202.97232704  7377.37180803
0.28200001 85989.24834203  4380.29251786
0.28300001 84792.25343648  4695.79521757
0.28400001 83611.05696132  5718.99656684
0.28500001 82446.91507686  3536.97282421
0.28600001 81298.51045832  4549.87135315
0.28700001 80166.66910883  6926.40053885
0.28800001 79048.52780949  4454.77999556
0.28900001 77947.70078825  3390.72514478
0.29000001 76860.74228256  5032.45733916
0.29100001 75789.21698398  5975.22214985
0.29200001 74731.78006555  5255.13902296
0.29300001 73689.13134383  3574.65993070
0.29400001 72659.68410705  3536.71029133
0.29500001 71645.36602494  3181.05440209
0.29600001 70643.56599246  5035.47362231
0.29700001 69655.65766840  3113.60804517
0.29800001 68681.34707123  4620.53784295
0.29900001 67720.47546356  3961.64800216
0.30000001 66771.37014084  4522.09125686
0.30100001 65836.24290560  3280.62013929
0.30200001 64912.75263037  2950.28474672
0.30300001 64002.48329042  3794.06738907
0.30400001 63104.17436875  2887.01611405
0.30500001 62218.61827434  2855.83471399
0.30600001 61343.65759449  3107.36312256
0.30700001 60481.63093132  3632.52692571
0.30800001 59631.10905901  3316.68244289
0.30900001 58792.44140127  3827.38811643
0.31000001 57965.19025027  2974.48387852
0.31100001 57148.72063840  3744.38435351
0.31200001 56344.47972834  2909.91079334
0.31300001 55550.59074852  3139.71953776
0.31400001 54769.19468517  3364.19794282
0.31500001 53997.10974524  3583.24837235
0.31600002 53237.50801139  2784.58798838
0.31700002 52487.87869572  3505.14070526
0.31800002 51748.66275331  2476.17362999
0.31900002 51020.80276835  2448.99864884
0.32000002 50303.82893556  2664.34242573
0.32100002 49596.57777081  2395.51481976
0.32200002 48900.90372036  3316.94845641
0.32300002 48214.02890650  3046.16249055
0.32400002 47538.73115459  2549.26457888
0.32500002 46872.90253737  3667.33606818
0.32600002 46217.60398878  2720.36829960
0.32700002 45572.61552996  2242.17279025
0.32800002 44938.61432701  2217.72072205
0.32900002 44312.56693078  2412.81938364
0.33000002 43697.84416803  2386.55787225
0.33100002 43092.00081651  3004.37443920
0.33200002 42497.75001523  2335.03898516
0.33300002 41912.36352742  2729.75236581
0.33400002 41337.33926670  2492.64167582
0.33500002 40771.85849572  2671.37229515
0.33600002 40215.60483063  2236.18881251
0.33700002 39669.10754029  3217.95815606
0.33800002 39132.98524591  2188.90363339
0.33900002 38605.70857312  2362.66947657
0.34000002 38088.11446465  2532.66929127
0.34100002 37580.31941433  2313.44457271
0.34200002 37082.49139676  2289.47312726
0.34300002 36593.32092520  2454.68008391
0.34400002 36114.36588979  1868.91852331
0.34500002 35644.46319054  2959.91636352
0.34600002 35184.58045204  2197.62899912
0.34700002 34732.64823229  3626.08864719
0.34800002 34291.07689846  2154.16555279
0.34900002 33858.21197386  1955.31183410
0.35000002 33434.95718842  2816.56092695
0.35100002 33021.48277543  2964.00843431
0.35200002 32615.53445167  1726.99263101
0.35300002 32220.12329859  2224.15521665
0.35400002 31832.82357693  1864.60772933
0.35500002 31455.14285996  2687.52753325
0.35600002 31086.07356195  2164.05711351
0.35700002 30725.71833056  1979.96538300
0.35800002 30374.78785277  2126.38712435
0.35900002 30033.03165718  2108.31892220
0.36000002 29699.74158228  2251.53751600
0.36100002 29374.64797723  2392.56519107
0.36200002 29059.72836145  2215.22319792
0.36300002 28751.99374353  2354.78839913
0.36400002 28453.47281804  1557.82771058
0.36500002 28162.76051436  1700.74918802
0.36600002 27881.38589956  1534.87036647
0.36700002 27607.87673109  2133.53681484
0.36800002 27343.57797303  2421.54738000
0.36900002 27087.24780956  1954.34502204
0.37000002 26838.55314384  2240.34832981
0.37100002 26598.21116711  1632.59827877
0.37200002 26366.55116681  1917.77118996
0.37300002 26142.65011940  1759.92328941
0.37400002 25926.50761864  2041.71257169
0.37500002 25718.54919467  2175.78936494
0.37600002 25518.60498245  1587.38489813
0.37700002 25326.22467012  2010.39580955
0.37800002 25141.36480365  1572.21532248
0.37900002 24965.09190137  1707.61236695
0.38000002 24795.51676217  1842.18300511
0.38100002 24632.75624664  1552.60269978
0.38200002 24478.60714475  1687.55525650
0.38300002 24330.99864277  1681.75870586
0.38400002 24190.87804615  1816.13025535
0.38500002 24057.33382715  2089.37954187
0.38600002 23931.84073357  1667.09210448
0.38700002 23812.35265889  1524.46688944
0.38800002 23699.69263011  1382.87713048
0.38900002 23593.88949407  1932.33964111
0.39000002 23495.26011302  1515.79677800
0.39100002 23402.26868736  1926.47484961
0.39200002 23316.66690414  1511.96933703
0.39300002 23236.53390935  1373.27921910
0.39400002 23164.01439856  2058.70187721
0.39500002 23096.20523124  1509.10612131
0.39600002 23034.77965558  1508.89331283
0.39700002 22978.72330167  1783.37879994
0.39800002 22929.69772267  1509.57672109
0.39900002 22885.24475559  1510.42622543
0.40000002 22846.83339528  1786.50822199
0.40100002 22813.39594684  1925.90697708
0.40200002 22785.92856868  1377.40944724
0.40300002 22763.41120996  1517.40906315
0.40400002 22746.06676371  1520.00598350
0.40500002 22733.34185556  1522.90664306
0.40600002 22726.35623380  1803.67734796
0.40700002 22723.52646450  1668.81586262
0.40800002 22725.16773859  1394.18910682
0.40900002 22731.17570987  1537.76410963
0.41000002 22742.28733081  1402.06208038
0.41100002 22757.36636106  2250.24849240
0.41200002 22775.62364516  1693.13994201
0.41300002 22799.49899011  1557.43384981
0.41400002 22826.23261696  1705.11965728
0.41500002 22856.84803050  1711.52086162
0.41600002 22890.12786245  1861.31083533
0.41700002 22928.47519734  1437.61546299
0.41800002 22970.60075817  1732.44279127
0.41900002 23014.00636447  1594.87071663
0.42000002 23061.25419997  1456.31827173
0.42100002 23112.46143267  1609.32076581
0.42200002 23165.81533900  2498.78078995
0.42300002 23221.75743462  1772.28461139
0.42400002 23280.23170155  1632.52632543
0.42500002 23341.87097596  1640.70018865
0.42600002 23404.55740628  1499.06197291
0.42700002 23470.61275764  1808.17609253
0.42800002 23538.09529218  1817.61180459
0.42900002 23608.61332001  1827.30675756
0.43000002 23680.80348825  1837.15682168
0.43100002 23753.19033406  2000.96884856
0.43200002 23828.53809168  1702.42998463
0.43300002 23904.72169905  2645.53567580
0.43400002 23982.84625540  1721.36887155
0.43500002 24061.56394909  2203.07689958
0.43600002 24142.26383330  2215.53565697
0.43700002 24223.16874781  1909.75471458
0.43800002 24304.65545724  2560.73862033
0.43900002 24387.93879926  1931.52484444
0.44000002 24471.17117956  1780.64485526
0.44100002 24555.31254535  1790.81902880
0.44200002 24639.83158243  2455.97532937
0.44300002 24724.71864755  1811.33297396
0.44400002 24809.64837346  1656.04410741
0.44500002 24894.29714557  2498.14283695
0.44600002 24978.80775440  2177.27788110
0.44700002 25064.34860341  2358.05402836
0.44800002 25148.38123002  1863.11791172
0.44900002 25232.90434863  1873.54323668
0.45000002 25317.23465389  2397.79540771
0.45100002 25400.18115875  2066.55883701
0.45200002 25482.98696684  2424.19666504
0.45300002 25564.60090671  1740.94940426
0.45400002 25645.73179439  1925.35340571
0.45500002 25726.36106452  1935.65149823
0.45600002 25805.37245420  1945.85420213
0.45700002 25883.71171285  2489.49551053
0.45800002 25960.51693751  1787.38167586
0.45900002 26035.97212287  2335.42681011
0.46000002 26110.65164337  2527.77230540
0.46100002 26183.05650142  2177.38308185
0.46200002 26254.62563699  2552.73737167
0.46300002 26324.62241874  2198.63256862
0.46400002 26392.35766236  1840.86703420
0.46500002 26459.47673960  2034.46926293
0.46600002 26523.74492797  3158.58031445
0.46700002 26586.16536202  1866.34889687
0.46800002 26647.59948453  2437.05632636
0.46900002 26706.07997006  2824.16809069
0.47000002 26762.74146785  2647.10288405
0.47100002 26817.56156974  2278.42013895
0.47200002 26870.35410458  2859.67757112
0.47300002 26920.81865410  2105.47732673
0.47400002 26968.33602729  1921.49403302
0.47500002 27014.08824002  2700.32838846
0.47600002 27058.07295756  2516.80677544
0.47700002 27098.63877070  2525.86423954
