# SAXS profile: number of points = 501, q_min = 0, q_max = 0.5, delta_q = 0.001
#    q    intensity    error
0.00000000 1682732.95097188 302.89193117
0.00100000 1682650.56551541 555.27469981
0.00200000 1682403.34926332 984.20599048
0.00300000 1681991.52575450 1513.79242711
0.00400000 1681414.96964492 1387.16740267
0.00500000 1680674.17971554 1512.60682161
0.00600000 1679769.08961357 2645.63642385
0.00700000 1678700.23762298 2215.88440576
0.00800000 1677467.47108551 2943.95553605
0.00900000 1676071.97037369 3519.75128825
0.01000000 1674513.22144979 3868.12570857
0.01100000 1672792.38306950 3613.23170475
0.01200000 1670909.45731831 4887.41037694
0.01300000 1668865.58073283 4205.54144893
0.01400000 1666660.82852640 4124.98573347
0.01500000 1664296.56121121 4393.74311725
0.01600000 1661772.22813168 5932.52711963
0.01700000 1659090.08190560 4927.49776430
0.01800000 1656250.10930501 5192.34432631
0.01900000 1653252.88274238 6447.68653363
0.02000000 1650099.75655611 7276.94025559
0.02100000 1646792.60968967 5434.41585836
0.02200000 1643329.91149896 6236.43729747
0.02300000 1639715.25656156 6493.27271155
0.02400000 1635947.73395801 6134.80428207
0.02500000 1632030.40228813 10183.87017538
0.02600000 1627962.81208929 7252.57465958
0.02700000 1623747.18598800 9547.63389090
0.02800000 1619383.61660336 7748.75096080
0.02900000 1614874.56904379 7993.62948379
0.03000000 1610221.29490558 10482.54111167
0.03100000 1605424.05959090 9247.24300874
0.03200000 1600484.55747583 11883.59838659
0.03300000 1595406.65055015 8950.23172220
0.03400000 1590188.11884552 11687.88321280
0.03500000 1584832.51760797 9413.90558931
0.03600000 1579341.06184350 9641.87762814
0.03700000 1573715.46678543 9867.19643308
0.03800000 1567957.40559469 11007.06149668
0.03900000 1562068.79099388 10309.65449800
0.04000000 1556049.60898442 11483.64664645
0.04100000 1549903.98411538 9764.39555267
0.04200000 1543632.49591760 9956.43006058
0.04300000 1537236.25505936 11160.33572977
0.04400000 1530718.80184729 10332.35239232
0.04500000 1524081.36528867 14722.62667277
0.04600000 1517323.95583477 17115.41501746
0.04700000 1510451.05968058 14137.82257613
0.04800000 1503463.19134632 14365.59146172
0.04900000 1496363.66984475 12345.00085085
0.05000000 1489152.24352723 12531.21671281
0.05100000 1481833.99459290 15025.79740513
0.05200000 1474406.63862102 15237.99332026
0.05300000 1466876.74997224 17822.55334301
0.05400000 1459243.69334259 16854.26544409
0.05500000 1451510.46577582 14631.22617756
0.05600000 1443678.10178963 13577.79318093
0.05700000 1435751.84124751 14989.24992230
0.05800000 1427730.15797754 12635.41248808
0.05900000 1419616.09373473 17887.16361649
0.06000000 1411413.65094317 16788.76616232
0.06100000 1403123.85194089 14353.95767614
0.06200000 1394748.69074504 14498.41331800
0.06300000 1386291.84169851 14639.24253280
0.06400000 1377751.87749205 25522.85472416
0.06500000 1369134.82312601 14909.87892129
0.06600000 1360441.72461874 19141.41596098
0.06700000 1351674.46141232 16544.49618195
0.06800000 1342835.77561061 16678.02111377
0.06900000 1333928.60297049 18208.12628303
0.07000000 1324953.43357642 15521.83020121
0.07100000 1315913.58390323 18475.42758335
0.07200000 1306811.48691596 18602.46238771
0.07300000 1297649.53755602 15844.30159595
0.07400000 1288430.69200999 18843.29975372
0.07500000 1279156.03353969 16040.61741245
0.07600000 1269826.86359663 17599.80115454
0.07700000 1260448.72229255 19171.42596499
0.07800000 1251021.57325052 17789.52760588
0.07900000 1241547.53517918 19368.14245723
0.08000000 1232030.87577360 23950.68134859
0.08100000 1222472.50830513 21050.97758069
0.08200000 1212874.31126946 19630.37164906
0.08300000 1203239.49837057 15160.81839100
0.08400000 1193570.15578711 19783.42626078
0.08500000 1183868.16905852 21380.66013692
0.08600000 1174136.09960391 15322.47681924
0.08700000 1164377.33652472 16906.75972024
0.08800000 1154591.39783247 20037.93465044
0.08900000 1144783.49616166 20090.95130130
0.09000000 1134954.37504225 20139.76633120
0.09100000 1125105.62484274 17079.10418751
0.09200000 1115239.88838902 15557.59717403
0.09300000 1105362.09388311 17144.16688177
0.09400000 1095468.85015874 20293.56140294
0.09500000 1085566.15732082 17195.36874019
0.09600000 1075655.23596256 17215.86286086
0.09700000 1065740.40851431 15666.38474168
0.09800000 1055821.26665523 20382.63051112
0.09900000 1045901.36675880 18826.22548691
0.10000000 1035980.28693236 21973.14291917
0.10100000 1026061.68841613 17268.61902822
0.10200000 1016147.80632529 21979.27808464
0.10300000 1006239.89585129 17267.07742506
0.10400000 996341.58259002 18830.85679685
0.10500000 986454.95782825 20390.02493765
0.10600001 976577.31839855 17241.47336760
0.10700001 966716.68219231 21925.13538387
0.10800001 956871.02906646 20338.29467996
0.10900001 947044.34348730 17188.85564330
0.11000001 937237.04025375 23407.49618212
0.11100001 927451.57039513 17139.30582771
0.11200001 917689.56622700 21776.77443175
0.11300001 907952.69070156 26394.18596135
0.11400001 898243.09193001 15494.69406535
0.11500001 888562.94302833 21645.39431141
0.11600001 878912.58713384 23137.37494587
0.11700001 869295.47639499 15386.53065682
0.11800001 859710.12355615 23018.73964236
0.11900001 850160.29300086 19893.75179325
0.12000001 840646.25699567 16783.50331150
0.12100001 831173.19610268 21294.65828730
0.12200001 821738.96479829 15161.08461479
0.12300001 812346.74801367 18131.58026992
0.12400001 802995.99498656 21078.64586157
0.12500001 793688.99757163 16500.79503704
0.12600001 784429.54227924 16437.72183306
0.12700001 775216.13790651 22326.22582386
0.12800001 766050.32368122 19269.99680038
0.12900001 756934.81695278 16236.25258889
0.13000001 747870.17894331 17634.77965070
0.13100001 738856.56431613 19018.16886197
0.13200001 729896.62402865 17473.72600296
0.13300001 720991.26913729 14491.92519285
0.13400001 712140.52833025 17305.01565428
0.13500001 703346.92387533 15783.10571591
0.13600001 694610.68445356 19983.95033399
0.13700001 685933.34041362 17038.58497930
0.13800001 677313.58680643 19770.78453119
0.13900001 668756.47405263 16852.66394087
0.14000001 660259.22774683 25136.06998575
0.14100001 651825.70928135 16660.66591500
0.14200001 643454.39731011 20703.14620992
0.14300001 635148.43805602 26066.49312731
0.14400001 626903.73698221 17725.70399929
0.14500001 618727.60237467 13550.13513119
0.14600001 610616.66324569 13464.09805973
0.14700001 602573.69796612 16052.56407112
0.14800001 594596.14649491 14618.14695124
0.14900001 586687.54683555 17160.61155459
0.15000001 578847.39718018 20977.43066359
0.15100001 571076.73385708 16926.71519021
0.15200001 563376.94007638 14222.45152334
0.15300001 555747.04770954 17972.86037105
0.15400001 548186.00060078 19117.98767315
0.15500001 540698.06500302 15182.80238181
0.15600001 533279.69777906 18838.10621311
0.15700001 525936.12160685 14957.62400445
0.15800001 518661.61483735 17318.11213681
0.15900001 511462.04645873 14730.10763328
0.16000001 504332.81146516 13397.60176897
0.16100001 497278.84270961 18125.81467238
0.16200001 490297.88905257 13186.56234855
0.16300001 483389.82840065 16647.94647603
0.16400001 476555.83660439 16512.66051790
0.16500001 469794.99054985 17546.84372545
0.16600001 463108.82865698 17401.31505836
0.16700001 456495.25275696 11503.68091262
0.16800001 449955.88750976 13687.65874433
0.16900001 443492.08222821 15832.66808313
0.17000001 437100.32168205 12332.78615861
0.17100001 430783.72500731 16671.33094502
0.17200001 424540.36231704 12118.50521461
0.17300001 418371.08315235 10919.48578594
0.17400001 412276.13933445 11904.47408548
0.17500001 406253.67556027 11797.60729544
0.17600001 400303.90546420 10628.06919203
0.17700001 394430.00904258 12637.53808660
0.17800001 388627.16963882 13565.03199695
0.17900001 382897.02331402 13439.68615313
0.18000001 377240.84643020 11266.29841080
0.18100001 371657.33398225 11160.87026669
0.18200001 366143.78002385 12060.77668371
0.18300001 360702.80493626 13937.55704114
0.18400001 355333.13366119 11832.59390990
0.18500001 350035.01134162 10742.57500558
0.18600001 344807.81152004 15474.97531211
0.18700001 339650.15098822 16282.82900765
0.18800001 334561.11749895 9484.80812922
0.18900001 329545.20694931 14088.05826271
0.19000001 324594.33229763 10229.59086570
0.19100001 319714.68876546 10128.56181867
0.19200001 314901.73816399 12762.96805085
0.19300001 310158.41598208 9928.17136472
0.19400001 305480.30074195 11615.88898461
0.19500001 300870.10999918 12383.81431276
0.19600001 296324.57455119 12258.94822850
0.19700001 291846.78530385 8667.84993315
0.19800001 287432.74771724 10295.84150980
0.19900001 283083.58384346 10191.00949999
0.20000001 278797.24499864 9246.31106737
0.20100001 274575.95506569 9983.58219804
0.20200001 270416.22001801 8234.17428872
0.20300001 266319.18560960 12224.05119725
0.20400001 262283.95775088 9678.27849846
0.20500001 258309.13687603 9578.10324809
0.20600001 254394.32914676 8688.83872271
0.20700001 250539.85496578 13288.63453553
0.20800001 246743.61268490 9282.49514799
0.20900001 243008.36206025 8420.24014342
0.21000001 239328.00167434 12119.57057771
0.21100001 235706.13630017 11992.72878189
0.21200001 232139.69151187 7416.86349443
0.21300001 228629.08846592 8806.79290405
0.21400001 225173.84630439 7261.85688663
0.21500001 221774.05189467 11496.76739376
0.21600001 218426.62933658 9242.72325736
0.21700001 215132.53695260 9848.76800734
0.21800001 211891.12064465 7656.68600651
0.21900001 208700.65089802 8264.54616632
0.22000001 205560.43505723 7495.76161878
0.22100001 202472.24762783 8090.79139777
0.22200001 199433.03733272 8672.34603848
0.22300001 196442.18422489 8580.59501268
0.22400001 193499.06405883 9142.83120911
0.22500001 190605.47340932 7753.83102495
0.22600001 187756.89252605 8311.05924068
0.22700001 184955.32500080 6325.47241415
0.22800001 182198.60281886 7510.22676335
0.22900001 179485.92403183 8049.94407352
0.23000001 176818.13395412 6739.42349438
0.23100001 174194.66378531 9699.15933827
0.23200001 171612.15453767 5997.84508475
0.23300001 169072.81071217 10682.02068600
0.23400001 166573.46045227 6458.88623451
0.23500001 164115.04164749 7552.57457383
0.23600001 161696.75119736 8047.64768772
0.23700001 159317.79963799 8531.46857413
0.23800001 156977.32945478 5627.63752713
0.23900001 154674.91684996 7795.61617797
0.24000001 152409.16376232 8264.38729592
0.24100001 150181.45200118 7087.06305516
0.24200001 147989.59783884 5933.64320602
0.24300001 145832.47473754 8539.95012459
0.24400001 143710.18205752 6865.75427257
0.24500001 141621.80894102 8361.35199541
0.24600001 139567.03980364 6722.24679014
0.24700001 137545.99577539 10745.09369828
0.24800001 135556.74229853 7088.26239011
0.24900001 133598.07607764 5510.92089891
0.25000001 131672.04723003 7436.17921911
0.25100001 129775.66304488 5396.07232469
0.25200001 127911.18034585 6795.92133329
0.25300001 126074.24427922 4803.42893429
0.25400001 124267.71182820 5703.88824277
0.25500001 122487.48799194 8936.68754670
0.25600001 120736.75296783 4654.40204712
0.25700001 119012.31276586 7369.24275513
0.25800001 117314.64198296 5924.97627368
0.25900001 115644.27589112 5863.16506509
0.26000001 113998.45091416 7587.16725958
0.26100001 112377.90450943 5299.74222743
0.26200001 110783.14304253 4807.43471980
0.26300001 109211.30719651 8217.05914228
0.26400001 107664.08964463 6847.43642541
0.26500001 106140.32865926 6775.99890224
0.26600001 104638.91313562 5867.10413714
0.26700001 103160.47746509 4147.05139034
0.26800001 101704.14627002 5745.26749466
0.26900001 100268.68144166 5279.14632772
0.27000001 98855.07090709  4018.45882254
0.27100001 97461.77489489  6362.30496622
0.27200001 96089.50608234  3934.86546028
0.27300001 94737.25565649  3893.70139175
0.27400001 93403.06420792  5008.73955519
0.27500001 92090.16189083  4956.29274752
0.27600001 90794.08489865  4526.99328729
0.27700001 89518.43473306  5226.08646705
0.27800001 88259.71065864  4432.40287905
0.27900001 87019.29230324  3654.81044971
0.28000001 85795.94274758  4339.55898956
0.28100001 84590.16986836  4293.79722574
0.28200001 83401.69740147  5310.60333339
0.28300001 82229.58953907  3853.27874818
0.28400001 81072.99989431  5198.80636429
0.28500001 79933.23197651  3772.04939551
0.28600001 78808.83228995  4749.80854693
0.28700001 77700.69643425  4028.00429381
0.28800001 76606.08509263  3985.04873514
0.28900001 75528.27549089  4271.12418118
0.29000001 74464.21667106  3900.43585385
0.29100001 73415.30569253  4501.82675816
0.29200001 72380.14377221  4771.66120405
0.29300001 71359.52010834  3461.65048432
0.29400001 70351.95403830  3424.38152491
0.29500001 69359.05958138  3695.45086943
0.29600001 68378.52930711  5483.27452470
0.29700001 67411.77434237  3314.63710132
0.29800001 66458.15117481  3278.71304342
0.29900001 65517.79551311  3832.79121896
0.30000001 64589.05509822  3499.43517088
0.30100001 63673.95831316  5191.97480664
0.30200001 62770.31510317  3423.49314780
0.30300001 61879.67211196  3386.05581827
0.30400001 61000.70677002  3069.86071353
0.30500001 60134.31892055  3864.23151678
0.30600001 59278.44481671  3002.74976435
0.30700001 58435.12223318  3239.64332998
0.30800001 57603.06087847  3737.86279737
0.30900001 56782.80752430  3168.48080986
0.31000001 55973.65757889  3133.40549962
0.31100001 55175.20764823  2582.19984019
0.31200001 54388.80338741  3319.62077192
0.31300001 53612.54134950  3030.18098054
0.31400001 52848.54785106  2996.51280503
0.31500001 52093.90638328  2469.25127948
0.31600002 51351.33841977  3662.63438621
0.31700002 50618.58006703  3380.30893693
0.31800002 49896.12122475  3342.54131911
0.31900002 49184.95643521  3305.22922895
0.32000002 48484.31816541  2801.42403624
0.32100002 47793.43848419  3231.79246333
0.32200002 47113.95148128  3424.00658603
0.32300002 46443.11096292  2482.84882964
0.32400002 45783.54683722  2455.14281540
0.32500002 45133.56310140  2869.14074221
0.32600002 44493.98293445  2182.42996628
0.32700002 43864.48864535  2373.94623790
0.32800002 43245.85041356  2561.01938276
0.32900002 42635.05267709  2321.47872820
0.33000002 42035.50283935  2504.47537777
0.33100002 41444.71569392  2270.34163322
0.33200002 40865.41298783  2245.35022294
0.33300002 40294.86855758  2826.28221447
0.33400002 39734.64166280  2395.99900573
0.33500002 39183.66319437  2962.28507778
0.33600002 38641.93870010  1953.35009379
0.33700002 38109.91851172  2125.39025605
0.33800002 37588.18089098  3058.17454212
0.33900002 37075.11606887  2268.99721087
0.34000002 36571.71353584  2431.83620673
0.34100002 36077.90860150  2220.95615869
0.34200002 35594.16893487  2746.98011764
0.34300002 35118.98051687  1993.35342854
0.34400002 34653.95947313  1972.67673643
0.34500002 34197.81724915  1952.35347922
0.34600002 33751.58466910  2283.80108480
0.34700002 33313.38099290  2608.43785528
0.34800002 32885.40138343  1893.70592835
0.34900002 32466.07863257  1874.91612983
0.35000002 32056.24455852  2194.08976272
0.35100002 31656.24251047  1838.59465209
0.35200002 31263.69090752  1820.95376315
0.35300002 30881.51268953  1803.78924163
0.35400002 30507.63101696  1786.98457146
0.35500002 30143.17340246  1770.61008952
0.35600002 29787.20606892  1914.12595265
0.35700002 29440.10961671  2213.30754582
0.35800002 29102.12973989  2037.29468894
0.35900002 28773.49501283  1709.14568472
0.36000002 28453.22474277  2157.03906992
0.36100002 28141.04256315  1528.05868356
0.36200002 27839.04962075  1515.83632365
0.36300002 27544.29673588  1503.91867302
0.36400002 27258.65392557  1790.89364774
0.36500002 26980.70106764  2073.73678229
0.36600002 26712.18539472  1911.65763832
0.36700002 26451.42247446  1898.15416668
0.36800002 26199.89571390  1740.19715575
0.36900002 25956.34781966  1584.63510945
0.37000002 25720.37387118  1574.47276111
0.37100002 25492.66081950  1422.49054111
0.37200002 25273.65967791  1979.68585635
0.37300002 25062.43487696  1687.20319584
0.37400002 24858.87098849  1677.97387121
0.37500002 24663.55093762  1669.22920653
0.37600002 24476.16564679  1522.53995618
0.37700002 24296.23243597  1790.87537769
0.37800002 24123.95853784  1508.59181863
0.37900002 23960.19607291  1912.02373720
0.38000002 23803.10903377  1768.45206944
0.38100002 23652.85738714  1490.83967174
0.38200002 23511.13471286  1620.85770389
0.38300002 23375.91102443  1615.74304655
0.38400002 23248.21954885  1611.10169106
0.38500002 23127.12347993  1874.68471810
0.38600002 23013.98786387  1603.15447055
0.38700002 22906.86753338  1599.81570432
0.38800002 22806.56205193  1596.91555053
0.38900002 22713.11721804  1461.58916222
0.39000002 22626.80214675  1857.88681229
0.39100002 22546.13605027  1590.85543508
0.39200002 22472.74649500  1854.67585610
0.39300002 22404.92631160  1456.54432852
0.39400002 22344.59453121  1721.09247531
0.39500002 22289.06593768  1588.76469531
0.39600002 22239.89010897  1456.82407061
0.39700002 22195.98057150  1722.63013377
0.39800002 22159.09337143  1458.84398123
0.39900002 22126.84761616  1725.89419583
0.40000002 22100.51952958  1595.21557522
0.40100002 22079.27357589  1464.51828568
0.40200002 22063.92313295  1733.89348155
0.40300002 22053.45259936  1871.01500718
0.40400002 22048.08006512  1473.36302016
0.40500002 22047.40403412  1342.68696929
0.40600002 22052.43864339  2288.71245304
0.40700002 22061.59692255  2025.25469345
0.40800002 22075.20748590  2031.47106514
0.40900002 22093.04648523  1358.72242322
0.41000002 22116.11473060  1908.84195284
0.41100002 22142.97809577  1778.96694451
0.41200002 22173.20019200  1923.08174377
0.41300002 22208.78849605  1930.83216334
0.41400002 22247.37386280  1384.89908858
0.41500002 22289.64051379  1529.96099736
0.41600002 22334.72375189  1955.85185163
0.41700002 22384.75932347  1684.22937130
0.41800002 22438.45603348  3102.56546276
0.41900002 22493.49736070  1983.92656122
0.42000002 22552.33642544  1566.59812403
0.42100002 22614.98558948  1717.83438678
0.42200002 22679.86674052  1582.94137416
0.42300002 22747.30666866  1880.74740448
0.42400002 22817.19317166  1454.59613362
0.42500002 22890.12092719  1755.21455587
0.42600002 22964.13074727  1912.10843728
0.42700002 23041.51761146  1479.26550075
0.42800002 23120.24167860  1636.56638477
0.42900002 23201.94249039  1496.52536155
0.43000002 23285.21315692  1957.00583251
0.43100002 23368.67510499  2120.00630599
0.43200002 23455.11794508  2285.11497409
0.43300002 23542.27151727  1685.86214324
0.43400002 23631.22276310  2004.51856587
0.43500002 23720.83618711  2637.28269226
0.43600002 23812.38273466  2809.62317201
0.43700002 23903.98216663  2041.63921360
0.43800002 23996.19731016  1580.14966776
0.43900002 24090.08346711  1748.94014259
0.44000002 24183.87418222  2239.66869415
0.44100002 24278.53210369  2253.53345666
0.44200002 24373.45171819  1943.53913211
0.44300002 24468.75598559  2607.39076139
0.44400002 24563.97803937  2131.53929538
0.44500002 24658.79988601  2144.57592772
0.44600002 24753.49322558  1991.66615932
0.44700002 24849.11161035  1836.84641729
0.44800002 24943.22061072  1847.91858652
0.44900002 25037.66308993  2873.07197573
0.45000002 25131.85053136  1870.18674592
0.45100002 25224.51698360  2052.26679905
0.45200002 25317.05741751  1892.32354635
0.45300002 25408.38626654  2076.37342411
0.45400002 25499.01976401  3132.55472647
0.45500002 25589.07168223  1750.29258602
0.45600002 25677.53069860  2112.23377537
0.45700002 25765.13579944  1947.07140464
0.45800002 25851.14773694  1957.83676665
0.45900002 25935.75847814  2147.48090377
0.46000002 26019.53718250  1979.17618959
0.46100002 26100.87233612  2351.42770021
0.46200002 26181.38746675  2727.44616862
0.46300002 26260.05606423  2010.46998756
0.46400002 26336.46755029  2204.36243844
0.46500002 26412.21122963  2215.45638294
0.46600002 26484.93524524  2597.37772261
0.46700002 26555.78547704  1864.21622884
0.46800002 26625.49020812  2060.41365741
0.46900002 26692.25959839  2069.98482996
0.47000002 26757.01318169  2268.45968506
0.47100002 26819.89179999  2278.61811533
0.47200002 26880.56265710  2288.61121310
0.47300002 26938.76703046  2489.95035464
0.47400002 26994.09828092  2692.66143115
0.47500002 27047.46077976  2124.30767033
0.47600002 27098.92664289  2326.71395184
0.47700002 27146.92691137  2141.07822698
