# SAXS profile: number of points = 501, q_min = 0, q_max = 0.5, delta_q = 0.001
#    q    intensity    error
0.00000000 1664650.74656090 399.51617917
0.00100000 1664568.80177818 549.30771763
0.00200000 1664322.89037920 748.94532439
0.00300000 1663913.26286843 1297.85239127
0.00400000 1663339.76892033 1247.50487409
0.00500000 1662602.92763902 1645.97696351
0.00600000 1661702.62740144 2093.74539577
0.00700000 1660639.45465328 1992.76742840
0.00800000 1659413.24324833 2912.27036486
0.00900000 1658025.17093423 2487.03786272
0.01000000 1656474.70352785 3826.45673037
0.01100000 1654763.05334422 3574.28835085
0.01200000 1652890.14842085 3545.44952381
0.01300000 1650857.21442887 4506.84039416
0.01400000 1648664.25499631 4080.44421201
0.01500000 1646312.58045160 4346.26540593
0.01600000 1643801.76604871 6287.54203621
0.01700000 1641133.97112495 4431.06192081
0.01800000 1638309.20320818 6069.93587102
0.01900000 1635328.08615521 6868.37827177
0.02000000 1632191.80003776 5655.54484296
0.02100000 1628902.42722709 6450.45390427
0.02200000 1625458.43857421 9533.31417536
0.02300000 1621863.20193625 7006.44935129
0.02400000 1618116.13493494 6674.72936096
0.02500000 1614219.68968449 9443.18561593
0.02600000 1610174.14959114 7825.44672494
0.02700000 1605981.54146581 8094.14733971
0.02800000 1601641.57307637 10450.71174359
0.02900000 1597156.91427022 8624.64773305
0.03000000 1592528.94897525 8145.78594843
0.03100000 1587757.95030962 7621.23851216
0.03200000 1582845.54749980 7835.08582099
0.03300000 1577795.19066475 12070.13376502
0.03400000 1572605.43595154 12384.26837953
0.03500000 1567279.19440885 9309.63884469
0.03600000 1561817.95529597 9534.89905773
0.03700000 1556223.39829359 12418.66329272
0.03800000 1550497.15814158 9977.44967439
0.03900000 1544641.31489565 12048.20281414
0.04000000 1538655.50044994 16086.64400264
0.04100000 1532544.07171499 10620.53090942
0.04200000 1526307.52891918 11813.62082190
0.04300000 1519946.97347922 11034.81553967
0.04400000 1513465.93370892 12259.07463238
0.04500000 1506865.77414399 11437.11175718
0.04600000 1500146.64694756 12691.24122315
0.04700000 1493312.41664518 12902.21987987
0.04800000 1486363.92751480 12017.25291310
0.04900000 1479304.81434468 13313.74394882
0.05000000 1472134.59749906 12388.01321482
0.05100000 1464857.92858188 13711.07085024
0.05200000 1457473.23376037 18539.06039738
0.05300000 1449986.45252028 12919.37989423
0.05400000 1442397.34811056 11899.77867684
0.05500000 1434708.95359526 16872.17808136
0.05600000 1426921.83407429 13420.20047571
0.05700000 1419041.55911258 12345.66214056
0.05800000 1411066.95939388 16234.32612585
0.05900000 1403000.38032854 12627.00401271
0.06000000 1394845.99291034 12762.84143139
0.06100000 1386604.81924214 14184.96796373
0.06200000 1378279.39295768 15629.68904673
0.06300000 1369872.67013848 17096.01172266
0.06400000 1361383.45487067 13273.48930575
0.06500000 1352817.98516508 14732.18854759
0.06600000 1344177.16808781 17561.67552275
0.06700000 1335462.32004866 14983.88793218
0.06800000 1326677.15520510 17850.44195885
0.06900000 1317823.89309006 15220.86667781
0.07000000 1308903.41191007 15333.80418859
0.07100000 1299918.91618644 16846.94994285
0.07200000 1290872.60127261 16962.06677534
0.07300000 1281767.44698936 15650.38126105
0.07400000 1272605.60075970 17180.17641539
0.07500000 1263388.41762924 15842.89149967
0.07600000 1254117.50508284 17382.06943533
0.07700000 1244798.09290660 17476.96604388
0.07800000 1235430.22442317 17567.81861516
0.07900000 1226016.17289885 22068.29214726
0.08000000 1216560.06010065 16259.32596599
0.08100000 1207062.78313569 16331.56022207
0.08200000 1197525.78234088 14909.19668976
0.08300000 1187953.27737550 17961.85439690
0.08400000 1178346.39302992 24038.26754613
0.08500000 1168707.74136388 22614.49585703
0.08600000 1159039.12217529 18150.55350546
0.08700000 1149344.16552983 21239.88117637
0.08800000 1139622.81961177 16735.36189195
0.08900000 1129880.37882214 24405.41732887
0.09000000 1120116.03192820 21405.41837568
0.09100000 1110333.40779020 16854.86192212
0.09200000 1100534.11985554 16887.69686268
0.09300000 1090723.36213329 15379.20012878
0.09400000 1080897.63845732 18483.35048629
0.09500000 1071062.66305353 23134.95460936
0.09600000 1061219.92707081 18528.90079766
0.09700000 1051373.68287022 17000.71325126
0.09800000 1041523.48453630 23199.93670885
0.09900000 1031672.66553899 23212.63606614
0.10000000 1021821.61194007 20124.77759357
0.10100000 1011972.87216821 21676.45994133
0.10200000 1002129.68004794 17031.19471350
0.10300000 992292.71272946 21671.67386546
0.10400000 982465.51711000 26305.51545817
0.10500000 972650.48418012 17011.65776870
0.10600001 962844.85672037 20089.75888076
0.10700001 953056.13133414 26247.16709207
0.10800001 943283.26557640 20049.48675339
0.10900001 933529.75201163 18483.88995979
0.11000001 923795.36493697 16919.31290520
0.11100001 914083.19037005 19963.57781743
0.11200001 904394.96239064 19928.34393445
0.11300001 894732.00189891 22949.87692921
0.11400001 885096.86779814 16794.71385724
0.11500001 875491.03126959 21326.96252597
0.11600001 865915.75337783 24314.91549987
0.11700001 856373.44187053 19705.15382545
0.11800001 846863.62806148 21163.12306200
0.11900001 837389.22020125 18087.60800830
0.12000001 827951.20991615 16530.04668462
0.12100001 818553.84111766 19473.39679754
0.12200001 809195.56801446 16422.62482654
0.12300001 799879.62314720 17853.31402979
0.12400001 790605.53792721 19271.01089498
0.12500001 781375.45859809 14767.99686338
0.12600001 772192.66247304 20594.37927863
0.12700001 763056.13550544 23441.08558742
0.12800001 753967.59582589 17507.12840017
0.12900001 744929.41677802 20336.57403655
0.13000001 735942.26472858 18799.64603861
0.13100001 727006.21824162 20152.61331960
0.13200001 718123.86490318 17191.88613621
0.13300001 709296.07016956 18533.90718727
0.13400001 700523.36475393 21278.39820758
0.13500001 691807.59772995 16935.45079091
0.13600001 683149.54961263 14038.72390648
0.13700001 674550.41696167 16755.83314742
0.13800001 666009.27442476 15274.92342923
0.13900001 657529.77851661 13808.12600001
0.14000001 649111.16063070 15101.57186427
0.14100001 640755.74253512 19107.33714356
0.14200001 632463.09406678 16279.60080911
0.14300001 624235.03183896 14831.82505608
0.14400001 616069.13239375 13399.50426162
0.14500001 607971.05743588 17308.93682170
0.14600001 599938.81907542 25134.43801087
0.14700001 591974.40587307 18398.56540252
0.14800001 584074.93607762 14359.48298093
0.14900001 576245.11101592 14262.06717054
0.15000001 568483.30596530 15451.37698518
0.15100001 560790.60729208 19179.03967435
0.15200001 553168.96323130 15234.27396625
0.15300001 545617.25377887 16384.88690417
0.15400001 538134.57476289 15013.95534441
0.15500001 530724.48675441 19870.32572182
0.15600001 523384.31168692 14790.84134632
0.15700001 516118.70938723 18348.02098468
0.15800001 508922.14917990 15779.13198008
0.15900001 501800.28813354 16860.49047711
0.16000001 494748.50191416 15532.62995077
0.16100001 487772.28750959 15408.72728979
0.16200001 480868.53293325 18811.57789637
0.16300001 474037.84314707 13993.59779031
0.16400001 467281.05356105 13878.24794595
0.16500001 460597.07679901 14909.52807988
0.16600001 453987.37371100 13646.86109806
0.16700001 447450.74081522 13530.91104111
0.16800001 440988.33664970 14532.77132048
0.16900001 434600.59895479 13298.77895596
0.17000001 428285.25257893 16478.27587107
0.17100001 422044.30279279 10888.74352623
0.17200001 415877.14340950 14029.61609544
0.17300001 409783.19356147 12834.41022844
0.17400001 403763.92983795 12718.56439054
0.17500001 397816.68807835 12602.83327352
0.17600001 391941.69504328 15609.07874230
0.17700001 386142.52971898 12372.00723653
0.17800001 380414.43177585 11235.54077318
0.17900001 374758.67413806 13154.03008356
0.18000001 369176.49713316 10023.14237061
0.18100001 363666.78682787 15884.96599899
0.18200001 358226.96138548 10816.66360999
0.18300001 352859.14014529 14608.36909210
0.18400001 347562.75581672 10609.35362250
0.18500001 342337.39068467 13371.69911185
0.18600001 337182.79599326 12295.37123677
0.18700001 332097.60292903 10301.66812956
0.18800001 327080.80432705 10200.01536485
0.18900001 322136.57873807 13771.33939171
0.19000001 317256.85794349 10907.29129145
0.19100001 312448.70275897 8998.52306464
0.19200001 307706.42852648 8908.10152676
0.19300001 303033.52961125 11463.75896689
0.19400001 298425.91229545 10474.75001654
0.19500001 293885.22401474 8640.22599433
0.19600001 289409.57275312 9407.25860689
0.19700001 285000.98817794 9310.98272379
0.19800001 280655.99784816 9215.34012485
0.19900001 276375.73306314 9949.52686049
0.20000001 272157.49352543 10667.21346287
0.20100001 268004.17479439 11368.73763209
0.20200001 263911.94872801 11250.56690602
0.20300001 259882.15720508 12723.83101815
0.20400001 255914.12548624 9443.23167678
0.20500001 252005.74761540 9344.37356326
0.20600001 248157.18018695 11557.92121353
0.20700001 244368.45681767 9149.15545573
0.20800001 240637.88873892 9052.79780229
0.20900001 236967.77534485 8210.93380384
0.21000001 233352.07561340 9601.27160499
0.21100001 229794.68631470 8038.21850728
0.21200001 226292.15453087 10122.04855068
0.21300001 222845.12996970 7153.32901020
0.21400001 219453.28357242 8492.84247576
0.21500001 216116.39676399 8402.60590344
0.21600001 212831.16427965 8313.18566980
0.21700001 209599.45686006 7539.29281971
0.21800001 206419.59311992 8137.06074551
0.21900001 203290.45945676 7379.44402719
0.22000001 200211.24258347 9955.50450818
0.22100001 197183.42542433 7222.82921481
0.22200001 194204.37509708 10393.81864666
0.22300001 191273.16637519 8354.81230233
0.22400001 188389.42910986 6358.14353311
0.22500001 185554.71833279 6919.33577383
0.22600001 182764.50517478 6845.44486503
0.22700001 180020.95338820 7388.06027643
0.22800001 177321.82475685 8527.40695582
0.22900001 174666.58664218 9038.99628620
0.23000001 172055.39686236 6557.89176154
0.23100001 169488.39778492 6488.01617404
0.23200001 166961.71900280 7002.37482615
0.23300001 164477.86838414 5773.17345332
0.23400001 162033.92262296 7425.20485537
0.23500001 159629.90612224 7346.16862719
0.23600001 157265.94411111 6149.88503534
0.23700001 154941.14777708 6637.67908472
0.23800001 152653.84852812 6567.16887430
0.23900001 150404.38997320 5414.55829514
0.24000001 148191.33055261 5892.82853816
0.24100001 146015.55633234 7950.54741837
0.24200001 143875.45744058 5768.68673895
0.24300001 141769.55358138 5707.64249717
0.24400001 139698.27029700 6674.08517915
0.24500001 137660.18227476 5587.62706285
0.24600001 135655.52902994 5528.64134715
0.24700001 133683.75577932 4973.03595024
0.24800001 131743.71975482 5412.69098218
0.24900001 129833.93096069 5355.64990549
0.25000001 127956.05667826 6262.80949040
0.25100001 126107.34237570 6673.60087424
0.25200001 124290.20727836 6131.85766617
0.25300001 122500.53429831 6067.45175085
0.25400001 120740.23940391 4618.31437570
0.25500001 119006.32807968 6397.78050026
0.25600001 117301.20830555 4974.15797354
0.25700001 115621.80795178 5369.47701533
0.25800001 113969.08731817 4427.69925180
0.25900001 112342.91894989 4381.37404635
0.26000001 110741.31624197 6069.73183041
0.26100001 109163.98039127 6864.23141179
0.26200001 107612.47711235 6367.96863444
0.26300001 106083.15552350 5041.07178901
0.26400001 104578.43645606 5404.09095958
0.26500001 103096.32614934 4113.54360801
0.26600001 101636.34709590 5291.69666195
0.26700001 100198.66771121 4430.78529586
0.26800001 98782.93671014  5181.65919033
0.26900001 97387.58606681  4733.03690682
0.27000001 96013.62379115  4293.24939099
0.27100001 94659.63141373  4248.32445889
0.27200001 93326.40447318  4586.05973284
0.27300001 92012.35413863  4159.87872747
0.27400001 90716.33337842  5238.86850053
0.27500001 89441.13582724  4073.14951834
0.27600001 88182.13311085  4763.15814540
0.27700001 86943.19149965  3625.53125712
0.27800001 85720.84515952  3946.15929368
0.27900001 84516.54911688  3549.69523091
0.28000001 83328.82151750  3863.54099251
0.28100001 82158.10246648  4517.87426846
0.28200001 81004.42235891  4126.36547026
0.28300001 79866.59253879  4763.24380446
0.28400001 78744.04269188  3702.93878285
0.28500001 77637.81733374  4995.99378189
0.28600001 76546.56950992  3954.39596805
0.28700001 75471.19512900  4238.46251906
0.28800001 74409.03280421  3870.75806969
0.28900001 73363.12390581  4148.68485325
0.29000001 72330.81985647  3788.68852342
0.29100001 71313.12468842  3748.21801104
0.29200001 70308.91777367  4017.10020715
0.29300001 69318.65587321  3362.64815558
0.29400001 68341.09627249  4233.73111449
0.29500001 67378.14839865  3589.90791662
0.29600001 66426.78166042  4143.03856828
0.29700001 65488.98247061  3220.09342051
0.29800001 64564.01693951  4053.97481554
0.29900001 63651.87821288  3150.76812069
0.30000001 62751.09700661  3116.53338037
0.30100001 61863.51856841  2802.41752382
0.30200001 60986.87847923  3326.22450972
0.30300001 60123.00064916  3015.76985533
0.30400001 59270.60838237  2982.79350805
0.30500001 58430.26351776  3486.53398917
0.30600001 57600.11429300  2917.73392765
0.30700001 56782.26640356  2623.34083204
0.30800001 55975.24422064  3891.67903869
0.30900001 55179.52309429  3335.60232897
0.31000001 54394.76557997  3552.52230822
0.31100001 53620.39690863  3513.20857179
0.31200001 52857.74744704  2978.00563216
0.31300001 52104.78125238  2699.54884450
0.31400001 51363.89682670  4125.80520795
0.31500001 50631.97723914  2879.94700172
0.31600002 49911.79022290  2610.63631122
0.31700002 49201.07203928  2816.26949687
0.31800002 48500.45157629  2320.74671781
0.31900002 47810.67966300  2753.89527898
0.32000002 47131.12048851  2723.23627077
0.32100002 46461.18235083  2468.48273518
0.32200002 45802.07917743  2662.93300947
0.32300002 45151.31783300  2413.78956565
0.32400002 44511.67797879  3905.89992759
0.32500002 43881.43150411  3004.12294302
0.32600002 43261.14080834  2546.35086855
0.32700002 42650.62523613  2937.77520538
0.32800002 42050.62716808  2490.23825881
0.32900002 41458.25843916  3078.27583487
0.33000002 40876.98486474  2029.54239464
0.33100002 40304.11951393  2207.85977152
0.33200002 39742.22971786  2580.66180894
0.33300002 39189.00560529  2356.04312856
0.33400002 38645.92665834  2524.54527851
0.33500002 38111.68626202  2112.91198643
0.33600002 37586.45068630  2279.99420660
0.33700002 37070.65576701  2255.37880367
0.33800002 36564.89090573  2417.12222779
0.33900002 36067.65300313  2207.34046833
0.34000002 35579.63248514  2001.88811658
0.34100002 35101.01754422  2160.81874236
0.34200002 34632.28244695  1781.83101628
0.34300002 34171.94015686  2292.25385428
0.34400002 33721.37538920  1919.58938494
0.34500002 33279.42384055  2763.52348660
0.34600002 32847.18896570  2051.63551996
0.34700002 32422.71842317  2030.95917822
0.34800002 32008.25984425  2345.88547509
0.34900002 31602.25809276  1825.03049129
0.35000002 31205.57467840  2300.16301849
0.35100002 30818.35949195  1952.65134989
0.35200002 30438.44079289  2256.40172285
0.35300002 30068.74376868  1596.65036974
0.35400002 29707.12009891  1740.09464221
0.35500002 29354.74159996  2194.56058596
0.35600002 29010.40634377  2174.91026661
0.35700002 28674.91668645  1693.82740890
0.35800002 28348.32668208  2289.83619620
0.35900002 28030.82410229  1665.03103054
0.36000002 27721.49009117  1651.23063549
0.36100002 27420.12594439  1637.80420024
0.36200002 27128.77265494  1624.87791513
0.36300002 26844.34680269  1905.41182631
0.36400002 26569.02251903  1745.58486218
0.36500002 26301.11697178  2165.89708522
0.36600002 26042.42046228  1720.36237723
0.36700002 25791.37353639  1566.05227531
0.36800002 25549.30450594  1696.98488567
0.36900002 25315.18292126  1826.49053429
0.37000002 25088.38956076  1954.63652327
0.37100002 24869.63508883  1387.72570369
0.37200002 24659.48991508  1655.63823133
0.37300002 24456.85180187  1783.63828640
0.37400002 24261.87956658  1364.73079027
0.37500002 24074.88945126  2036.73574406
0.37600002 23895.75486107  2026.95750211
0.37700002 23723.91581180  1479.66069928
0.37800002 23559.70727310  1339.36942192
0.37900002 23403.65392765  2134.41333931
0.38000002 23254.16067651  1461.87288018
0.38100002 23111.43423342  2383.71343976
0.38200002 22977.09263191  1452.03743766
0.38300002 22849.04522720  1710.93658767
0.38400002 22728.53399732  1443.83019058
0.38500002 22614.41534975  1964.06206617
0.38600002 22508.15028683  1698.57764186
0.38700002 22407.73470882  1434.54324402
0.38800002 22314.14241456  1562.43632589
0.38900002 22227.09231820  1430.31345844
0.39000002 22147.23782771  1428.82911615
0.39100002 22072.92676173  1297.88815508
0.39200002 22005.52465822  1556.67088807
0.39300002 21943.84506319  2334.38634842
0.39400002 21889.41798951  1686.03250052
0.39500002 21839.84924132  1556.74452768
0.39600002 21796.44734030  1817.16990085
0.39700002 21758.17893401  1298.96334390
0.39800002 21726.85327565  1560.42267619
0.39900002 21700.02884102  1432.20197136
0.40000002 21679.16330546  1695.20225499
0.40100002 21663.21940502  1959.43828802
0.40200002 21653.14152884  1701.61220767
0.40300002 21647.74991058  1836.59518943
0.40400002 21647.58595107  1578.10909060
0.40500002 21651.75990587  1714.16991297
0.40600002 21661.70474067  1454.69185078
0.40700002 21675.75004668  2520.45633485
0.40800002 21694.17983832  1464.03179576
0.40900002 21716.76469641  1602.69731053
0.41000002 21744.32019018  1340.53740324
0.41100002 21775.74997930  2287.76040122
0.41200002 21810.43838039  1486.27239385
0.41300002 21850.41608522  1628.29308382
0.41400002 21893.44391093  2044.30042205
0.41500002 21940.18497698  1369.06760743
0.41600002 21989.56955965  1512.99240524
0.41700002 22043.87134357  1520.36587861
0.41800002 22101.65807760  1805.81605880
0.41900002 22160.92823684  1396.13854508
0.42000002 22223.85374405  1403.43643044
0.42100002 22290.42736614  1410.98411914
0.42200002 22359.49182307  2269.93571744
0.42300002 22430.77059279  1854.57620049
0.42400002 22504.67786529  1721.60793827
0.42500002 22581.48138941  2020.13942082
0.42600002 22659.26476567  1596.45857472
0.42700002 22740.64161667  1459.94926097
0.42800002 22823.16766797  1615.53799993
0.42900002 22908.68469852  2511.93739623
0.43000002 22995.64082283  1932.66872454
0.43100002 23082.91206984  2094.08188221
0.43200002 23173.03078262  1956.61494685
0.43300002 23263.83761881  1968.81867098
0.43400002 23356.51486364  1981.21646719
0.43500002 23449.78229753  1686.97741843
0.43600002 23544.84480593  1852.03758020
0.43700002 23640.25538361  1708.48133754
0.43800002 23735.94117892  2031.91534091
0.43900002 23833.45563077  1573.00814617
0.44000002 23930.85736045  1741.32891835
0.44100002 24029.13453681  1752.44486482
0.44200002 24127.56758859  1923.93233069
0.44300002 24226.54073742  1936.18522749
0.44400002 24325.25838775  1948.45328920
0.44500002 24423.68642163  1960.73363885
0.44600002 24521.97925420  1808.61866561
0.44700002 24621.04704200  1654.53443963
0.44800002 24718.78845041  2164.25362534
0.44900002 24816.75491760  1842.64413996
0.45000002 24914.52071680  2696.74785019
0.45100002 25010.72197173  2713.16324808
0.45200002 25106.81969018  2047.21017456
0.45300002 25201.75850299  1887.86381893
0.45400002 25295.96942117  2417.02999274
0.45500002 25389.56406008  2083.97551682
0.45600002 25481.54491150  1921.43598512
0.45700002 25572.85329544  1932.54061513
0.45800002 25662.41681604  2120.22897783
0.45900002 25750.74130228  2309.84160429
0.46000002 25838.11070993  1786.70544027
0.46100002 25923.14808122  1796.47424717
0.46200002 26007.24064818  2167.44353835
0.46300002 26089.64847385  1997.42358183
0.46400002 26169.70529368  2920.53924919
0.46500002 26249.09590301  2201.77426870
0.46600002 26325.59370336  1844.10792632
0.46700002 26400.24887625  2594.61658253
0.46800002 26473.60676154  2048.66015634
0.46900002 26544.12062706  2807.04088936
0.47000002 26612.74172121  1880.19029172
0.47100002 26679.35671953  2455.56810885
0.47200002 26743.85565201  2087.22431329
0.47300002 26805.94485419  1905.90276947
0.47400002 26865.06540948  2871.20400173
0.47500002 26922.30950313  3075.60478341
0.47600002 26977.74011315  2509.33461556
0.47700002 27029.55899536  2131.82141901
