# SAXS profile: number of points = 501, q_min = 0, q_max = 0.5, delta_q = 0.001
#    q    intensity    error
0.00000000 1664650.74656090 399.51617917
0.00100000 1664568.80557150 549.30771888
0.00200000 1664322.90286611 898.73439601
0.00300000 1663913.29449008 1198.01761471
0.00400000 1663339.82216175 1372.25540543
0.00500000 1662603.00750713 1945.24559578
0.00600000 1661702.73661642 2093.74553338
0.00700000 1660639.61387347 2989.15142920
0.00800000 1659413.45034309 2912.27072831
0.00900000 1658025.44501857 2735.74210123
0.01000000 1656475.02585828 3553.13908389
0.01100000 1654763.44061465 3574.28918735
0.01200000 1652890.61795285 6123.96000801
0.01300000 1650857.77458569 4853.52207135
0.01400000 1648664.90233537 4451.39543364
0.01500000 1646313.32049643 4741.38257416
0.01600000 1643802.59706392 5449.20585287
0.01700000 1641134.93276579 4431.06451724
0.01800000 1638310.22295911 5603.02121464
0.01900000 1635329.25661258 6377.78438857
0.02000000 1632193.08797684 5141.40845970
0.02100000 1628903.83777427 5912.92119920
0.02200000 1625460.01739570 5607.83731479
0.02300000 1621864.87137709 8174.19932382
0.02400000 1618117.95955458 7888.32541252
0.02500000 1614221.68410226 9443.19728327
0.02600000 1610176.31307044 7173.33580282
0.02700000 1605983.87452244 8094.15909831
0.02800000 1601644.01817973 7663.86697845
0.02900000 1597159.57107683 7187.21839984
0.03000000 1592531.77348018 7405.27308707
0.03100000 1587760.98754922 8383.37840001
0.03200000 1582848.78315708 9402.12220500
0.03300000 1577798.56807463 8851.45037495
0.03400000 1572609.03172231 8256.19779749
0.03500000 1567282.92504648 9309.66100468
0.03600000 1561821.95590452 10401.73470703
0.03700000 1556227.60724045 12418.69688011
0.03800000 1550501.55418091 9070.43451173
0.03900000 1544645.95057826 10194.66374593
0.04000000 1538660.35190202 12301.59008350
0.04100000 1532549.15242948 10620.56611878
0.04200000 1526312.90158197 15751.54987509
0.04300000 1519952.50317790 11034.85568529
0.04400000 1513471.69628257 10215.93442436
0.04500000 1506871.85331920 17675.60766073
0.04600000 1500152.93860927 20094.54954680
0.04700000 1493318.94494077 10751.89690362
0.04800000 1486370.65418474 16387.23722485
0.04900000 1479311.80362192 12204.32294796
0.05000000 1472141.88371251 16892.82890223
0.05100000 1464865.50266481 13711.14174366
0.05200000 1457481.03622003 15063.06721129
0.05300000 1449994.53494690 12919.45190865
0.05400000 1442405.63239880 17849.77053334
0.05500000 1434717.55079958 12051.62798892
0.05600000 1426930.77558378 14640.31044067
0.05700000 1419050.71102084 12345.74176216
0.05800000 1411076.32957721 16234.43392981
0.05900000 1403010.05623711 15152.50931507
0.06000000 1394855.90556578 12762.93213220
0.06100000 1386615.06403445 12895.52069815
0.06200000 1378289.88841182 13024.84005432
0.06300000 1369883.43137978 14465.96971173
0.06400000 1361394.38227100 13273.59584790
0.06500000 1352829.26253915 14732.31135820
0.06600000 1344188.80161968 14860.00789718
0.06700000 1335474.15482871 16346.20442009
0.06800000 1326689.32403951 15104.35866121
0.06900000 1317836.24083699 17988.46552963
0.07000000 1308916.24516009 13939.95866374
0.07100000 1299931.86054559 21058.89712719
0.07200000 1290885.83481602 15548.72060877
0.07300000 1281781.05184188 15650.54737630
0.07400000 1272619.44018704 17180.36324767
0.07500000 1263402.48197644 20163.90455748
0.07600000 1254131.78928049 18830.78969885
0.07700000 1244812.67736984 18933.60171056
0.07800000 1235445.09531969 23424.04010576
0.07900000 1226031.35489756 14712.37694884
0.08000000 1216575.51484285 17737.67183850
0.08100000 1207078.36934848 16331.77110354
0.08200000 1197541.70173947 14909.39488628
0.08300000 1187969.49116584 14968.41629119
0.08400000 1178362.71900419 25541.01313328
0.08500000 1168724.35024538 19599.50827372
0.08600000 1159056.08723622 16638.25091347
0.08700000 1149361.37159492 18205.88498097
0.08800000 1139640.17377637 19778.45614476
0.08900000 1129898.06641198 15253.62461302
0.09000000 1120133.92081291 15289.82873734
0.09100000 1110351.50171164 19919.70687656
0.09200000 1100552.56125355 19958.52163612
0.09300000 1090741.95126952 15379.46223561
0.09400000 1080916.40915582 16943.36550981
0.09500000 1071081.65971293 15423.57662482
0.09600000 1061239.17985250 20073.34003051
0.09700000 1051393.13459585 17001.02778568
0.09800000 1041543.17676112 20106.99197276
0.09900000 1031692.49331323 20118.00456561
0.10000000 1021841.58010311 23221.35099988
0.10100000 1011993.00753530 20128.54186656
0.10200000 1002150.08753771 20128.18545495
0.10300000 992313.29125809 15480.08807182
0.10400000 982486.25691633 17021.57520186
0.10500000 972671.24160311 23198.21020370
0.10600001 962865.90618060 21635.59792991
0.10700001 953077.28601323 23159.77913997
0.10800001 943304.65193714 16965.33496351
0.10900001 933551.24087225 18484.31543925
0.11000001 923817.02416830 16919.70959405
0.11100001 914104.96096097 21499.74969387
0.11200001 904416.86070951 15329.86651071
0.11300001 894754.01218457 18360.35319445
0.11400001 885118.96595110 21375.62403418
0.11500001 875513.25346991 18280.71759325
0.11600001 865938.05835198 16716.93500371
0.11700001 856395.87720835 15158.20774046
0.11800001 846886.19033108 19651.99497221
0.11900001 837411.76987758 21102.77759489
0.12000001 827973.79612704 19536.04263986
0.12100001 818576.59783815 17975.94293534
0.12200001 809218.37306299 19409.10359230
0.12300001 799902.47938628 16366.00549932
0.12400001 790628.40810682 17789.14002058
0.12500001 781398.44360586 17722.11753606
0.12600001 772215.56676541 17652.84868812
0.12700001 763079.19830776 16116.23342776
0.12800001 753990.75488326 21884.58269189
0.12900001 744952.38209579 17431.88656264
0.13000001 735965.30280042 14461.71888168
0.13100001 727029.23170312 18713.73330616
0.13200001 718146.88845998 15759.73421017
0.13300001 709319.01269826 15683.04411010
0.13400001 700546.35244401 24116.30931986
0.13500001 691830.62490448 19758.68357886
0.13600001 683172.42202275 15443.11332798
0.13700001 674573.31122569 16756.40184097
0.13800001 666032.18963549 15275.44898962
0.13900001 657552.60685300 17951.18701363
0.14000001 649133.83051354 15102.09927912
0.14100001 640778.40324758 13648.58063288
0.14200001 632485.64396758 16280.18124359
0.14300001 624257.50295169 17529.15150969
0.14400001 616091.48937479 16079.98863117
0.14500001 607993.40519057 15978.06744213
0.14600001 599960.93849128 21166.62290849
0.14700001 591996.46860366 14456.55444531
0.14800001 584096.85026241 14360.02174119
0.14900001 576266.92811296 16855.80844257
0.15000001 568504.89672709 20602.61842948
0.15100001 560812.29016532 20458.43331056
0.15200001 553190.35666695 13965.29121304
0.15300001 545638.51892977 15125.10045847
0.15400001 538155.62062059 15014.54252387
0.15500001 530745.45037197 12419.44412481
0.15600001 523405.07567135 14791.42813655
0.15700001 516139.26198282 19572.00173812
0.15800001 508942.46740405 14565.93410460
0.15900001 501820.40336949 13248.05927427
0.16000001 494768.52170597 19117.85658113
0.16100001 487792.04383494 17780.02083708
0.16200001 480888.07672725 15285.02824032
0.16300001 474057.26303548 11661.80922120
0.16400001 467300.18544823 17348.52020378
0.16500001 460615.91062856 12616.27038775
0.16600001 454006.07667432 13647.42330917
0.16700001 447469.06680145 18041.95362528
0.16800001 441006.47662471 12297.46618132
0.16900001 434618.51588942 12191.04994634
0.17000001 428302.99487860 12084.56957113
0.17100001 422061.65665377 13067.02950704
0.17200001 415894.23347410 12950.94704196
0.17300001 409800.05525964 13904.51653159
0.17400001 403780.47460252 16958.78073420
0.17500001 397832.95134865 17854.74369976
0.17600001 391957.74052984 14569.06990358
0.17700001 386158.23122707 13403.55283895
0.17800001 380429.89163664 12257.45168748
0.17900001 374773.88465865 11130.78490011
0.18000001 369191.33642310 12028.25430882
0.18100001 363681.23555981 11914.19783972
0.18200001 358241.16806899 13767.20873923
0.18300001 352873.13648550 16556.80834603
0.18400001 347576.24843897 9645.24134983
0.18500001 342350.68456505 10506.74300566
0.18600001 337195.63444568 12295.83939096
0.18700001 332110.26351496 9365.50987359
0.18800001 327093.14237281 10200.40012683
0.18900001 322148.58365636 11935.60558840
0.19000001 317268.49808229 15452.56292921
0.19100001 312459.97438219 13498.27153110
0.19200001 307717.34919854 9799.25944826
0.19300001 303044.20072849 10582.30398948
0.19400001 298436.16361935 8729.25819836
0.19500001 293895.19471491 10368.62295951
0.19600001 289419.20962165 11118.03946301
0.19700001 285010.26882749 10157.76646104
0.19800001 280664.85569724 11728.98487389
0.19900001 276384.29277110 8291.52917499
0.20000001 272165.73204761 10667.53637177
0.20100001 268011.98433288 9744.91621091
0.20200001 263919.42901552 10447.25109135
0.20300001 259889.24954287 11133.65597664
0.20400001 255920.87926426 8656.52415027
0.20500001 252012.13495892 11680.76300746
0.20600001 248163.27787880 8476.01715659
0.20700001 244374.18810537 7624.47502929
0.20800001 240643.23618710 8298.58239219
0.20900001 236972.80345555 8957.57239406
0.21000001 233356.79787665 9601.46590252
0.21100001 229798.86093005 8038.36453533
0.21200001 226296.12953788 8676.19401664
0.21300001 222848.75647670 9299.47904741
0.21400001 219456.50066738 11323.95596979
0.21500001 216119.25556197 7702.49063238
0.21600001 212833.73414806 7620.51221146
0.21700001 209601.67040764 7539.37244102
0.21800001 206421.46953045 7459.04015415
0.21900001 203291.96326176 9392.08914677
0.22000001 200212.43960986 7300.74695557
0.22100001 197184.28905521 6566.23713601
0.22200001 194204.92284278 8445.00146914
0.22300001 191273.41132044 9640.18038639
0.22400001 188389.32979265 8901.39625362
0.22500001 185554.24519388 6919.31813048
0.22600001 182763.76464927 9334.65972088
0.22700001 180019.85153837 7388.01505651
0.22800001 177320.33946688 7309.14473847
0.22900001 174664.85918167 6628.53171941
0.23000001 172053.32942866 6557.81296130
0.23100001 169486.04847534 7667.54919564
0.23200001 166959.06636346 6418.74160991
0.23300001 164474.93792709 9814.22001027
0.23400001 162030.66986895 8567.37207452
0.23500001 159626.36936297 7346.00586552
0.23600001 157262.04148766 5590.66583931
0.23700001 154936.96930520 5531.25006581
0.23800001 152649.45003383 9303.22117234
0.23900001 150399.72665732 7580.14658207
0.24000001 148186.39568266 5892.63230304
0.24100001 146010.37017392 6890.22969442
0.24200001 143869.99687883 5768.46779772
0.24300001 141763.85261876 6745.12442666
0.24400001 139692.28484294 5647.06088190
0.24500001 137653.96014693 6603.26078061
0.24600001 135649.10076719 5528.37936329
0.24700001 133677.07446971 6464.62362717
0.24800001 131736.80226301 5412.40677702
0.24900001 129826.79106680 5355.35538485
0.25000001 127948.64281771 5298.99329298
0.25100001 126099.79158646 4766.57234747
0.25200001 124282.39048176 8489.73049546
0.25300001 122492.58778513 5600.36137849
0.25400001 120732.10135679 6003.40402399
0.25500001 118997.96598673 4569.52211008
0.25600001 117292.69250431 5878.12356296
0.25700001 115613.12440838 8501.03343996
0.25800001 113960.23614659 5755.56199890
0.25900001 112333.91301670 6133.43194091
0.26000001 110732.19764569 5635.71546583
0.26100001 109154.71235686 5576.71451818
0.26200001 107602.96320691 5093.92451924
0.26300001 106073.60046703 4200.51477725
0.26400001 104568.69689895 4572.26648826
0.26500001 103086.42930531 5758.40821348
0.26600001 101626.36990830 5291.17719965
0.26700001 100188.64514971 6041.37558841
0.26800001 98772.74022227  4384.02828222
0.26900001 97377.31601518  4732.53778229
0.27000001 96003.28259775  5853.80043341
0.27100001 94649.21247819  6178.70088297
0.27200001 93315.89456950  4203.41466980
0.27300001 92001.79859781  5671.91115197
0.27400001 90705.67820124  4115.77034316
0.27500001 89430.44472810  4072.66264566
0.27600001 88171.36197432  4762.57634244
0.27700001 86932.47465454  5075.11811052
0.27800001 85710.06567998  5739.14626955
0.27900001 84505.70495941  3904.16375390
0.28000001 83317.98201134  5618.96497278
0.28100001 82147.26248852  5559.72698836
0.28200001 80993.54220919  3781.99363246
0.28300001 79855.76116996  3401.85558685
0.28400001 78733.16529414  4039.01157076
0.28500001 77626.97848972  5661.33580921
0.28600001 76535.72362012  4942.29458670
0.28700001 75460.36339643  3259.88785302
0.28800001 74398.27184460  3547.68176083
0.28900001 73352.39417795  4148.07808711
0.29000001 72320.09158944  5050.83543568
0.29100001 71302.52390774  4372.27097298
0.29200001 70298.35351054  3398.57406134
0.29300001 69308.12281427  3973.43486903
0.29400001 68330.64150969  3325.99413292
0.29500001 67367.76769780  3589.35483285
0.29600001 66416.49426217  3846.51144728
0.29700001 65478.78234491  3219.59188031
0.29800001 64553.91233305  4053.34034727
0.29900001 63641.88506569  3436.66195624
0.30000001 62741.19307301  3399.31800162
0.30100001 61853.75028946  4202.96253114
0.30200001 60977.22591445  3325.69805881
0.30300001 60113.49096269  3837.64544474
0.30400001 59261.26078711  3524.56365217
0.30500001 58421.03039138  4290.44067506
0.30600001 57591.02555174  2917.27353743
0.30700001 56773.28361260  2885.21840979
0.30800001 55966.44535802  3372.25832470
0.30900001 55170.83614924  3078.53280288
0.31000001 54386.30802473  3298.25780631
0.31100001 53612.07693601  2759.94985134
0.31200001 52849.57174093  2977.54501286
0.31300001 52096.79779620  2453.75929238
0.31400001 51356.07849095  2669.23230595
0.31500001 50624.37742714  3359.43384512
0.31600002 49904.36979049  3322.13405425
0.31700002 49193.83948992  2581.20088025
0.31800002 48493.38311944  3480.61273820
0.31900002 47803.83101419  2753.50079679
0.32000002 47124.49649978  3176.66245946
0.32100002 46454.72825046  2916.89252496
0.32200002 45795.83161797  2884.45059104
0.32300002 45145.32124032  2852.28153102
0.32400002 44505.89489069  3037.52747012
0.32500002 43875.86676295  2574.63598356
0.32600002 43255.76782128  2333.86506331
0.32700002 42645.48980788  2098.15819790
0.32800002 42045.75461647  2697.44551515
0.32900002 41453.61257277  2462.34470342
0.33000002 40872.58530909  3043.98593504
0.33100002 40299.92582242  2609.01732129
0.33200002 39738.29505538  2977.39189802
0.33300002 39185.32080670  2159.50313192
0.33400002 38642.48212876  2135.96330082
0.33500002 38108.45841235  2496.86631342
0.33600002 37583.47341928  2659.78253984
0.33700002 37067.92674458  2067.27837245
0.33800002 36562.45538967  2231.04113353
0.33900002 36065.40995582  2759.00399228
0.34000002 35577.64142572  1819.79644511
0.34100002 35099.33442400  1800.59594122
0.34200002 34630.81273018  2672.63309902
0.34300002 34170.71766374  2292.17184944
0.34400002 33720.41197487  1919.53454258
0.34500002 33278.74351551  1899.88355728
0.34600002 32846.76194955  1709.67404045
0.34700002 32422.54130805  2369.43943101
0.34800002 32008.32085706  2513.45351434
0.34900002 31602.56269168  1659.13461989
0.35000002 31206.09600664  1807.30113582
0.35100002 30819.18503789  2115.42896119
0.35200002 30439.54099521  1934.12852644
0.35300002 30070.05132996  1596.71980125
0.35400002 29708.69286158  1898.38556377
0.35500002 29356.53605354  1881.16691941
0.35600002 29012.45672345  2019.70227047
0.35700002 28677.27150670  2309.95432927
0.35800002 28350.89751869  1679.36549406
0.35900002 28033.62650158  1816.57908335
0.36000002 27724.52809108  1951.66824741
0.36100002 27423.43492362  1489.09258689
0.36200002 27132.27028251  1772.82262423
0.36300002 26848.12955288  2052.27112023
0.36400002 26573.06621725  1745.85053317
0.36500002 26305.34744965  1877.41273641
0.36600002 26046.87763189  1864.04488602
0.36700002 25796.10532897  1851.12860609
0.36800002 25554.25321478  1697.31357893
0.36900002 25320.34489021  2107.91881196
0.37000002 25093.77386815  1815.40915649
0.37100002 24875.20876578  1526.84038637
0.37200002 24665.22355528  1932.02705261
0.37300002 24462.85260661  1646.83931549
0.37400002 24268.11662220  1774.60611206
0.37500002 24081.29791561  1629.82232014
0.37600002 23902.35282660  1757.18155129
0.37700002 23730.71933913  2018.29777540
0.37800002 23566.71184047  1473.74439476
0.37900002 23410.80595818  1467.85760311
0.38000002 23261.51278822  1462.33507071
0.38100002 23118.96180579  1854.60320392
0.38200002 22984.81364961  2244.81193143
0.38300002 22856.94637953  1448.21619121
0.38400002 22736.58822410  1444.34183536
0.38500002 22622.63680509  1702.80595299
0.38600002 22516.50550741  1437.79152729
0.38700002 22416.23068594  1565.54962527
0.38800002 22322.79929287  1693.29602058
0.38900002 22235.89742148  1691.04007902
0.39000002 22156.16403177  1429.40499023
0.39100002 22081.99170012  1558.10540818
0.39200002 22014.70653755  1427.54371306
0.39300002 21953.16662414  1816.40509254
0.39400002 21898.83699584  1427.25676882
0.39500002 21849.42069180  1816.99791081
0.39600002 21806.09867933  1558.26388545
0.39700002 21767.94774270  1689.41050435
0.39800002 21736.68316818  1431.03460418
0.39900002 21709.96674770  1302.59806658
0.40000002 21689.19341544  1695.98655947
0.40100002 21673.32316150  1829.66202798
0.40200002 21663.29932712  1309.54650637
0.40300002 21658.00051608  1706.21736150
0.40400002 21657.85238897  1842.00043296
0.40500002 21662.10975630  1714.98931066
0.40600002 21672.09451678  1587.69771953
0.40700002 21686.21515467  1858.07500249
0.40800002 21704.68500984  1464.74073729
0.40900002 21727.30052797  1469.85195036
0.41000002 21754.87528623  1475.30693744
0.41100002 21786.33945081  1346.39584186
0.41200002 21821.07807173  1622.17902072
0.41300002 21861.02777365  2307.86881142
0.41400002 21904.04161194  1499.87932045
0.41500002 21950.75489241  1643.67260423
0.41600002 22000.20038065  1651.33511882
0.41700002 22054.45309629  1797.65855706
0.41800002 22112.27350352  1945.65903777
0.41900002 22171.48488909  1676.16433704
0.42000002 22234.37120257  1544.51066877
0.42100002 22300.94396227  1693.97978364
0.42200002 22369.92111328  1703.24587427
0.42300002 22441.18291278  1855.43709115
0.42400002 22515.02720888  1435.33305258
0.42500002 22591.74521071  1876.69636358
0.42600002 22669.47241601  2323.16764328
0.42700002 22750.82482610  1898.78392996
0.42800002 22833.24970862  1910.11559489
0.42900002 22918.71836509  1773.90888552
0.43000002 23005.60877704  1784.77521350
0.43100002 23092.79398488  1945.33705747
0.43200002 23182.79950225  2108.01205863
0.43300002 23273.51075738  1666.61618431
0.43400002 23366.06149324  1982.02626009
0.43500002 23459.26885986  2147.93075860
0.43600002 23554.18720593  1543.97704452
0.43700002 23649.48140027  1864.52520196
0.43800002 23745.05223672  1876.33411666
0.43900002 23842.40121797  2045.67812145
0.44000002 23939.65451204  2058.69068732
0.44100002 24037.83100651  1593.70827126
0.44200002 24136.11987570  2084.99881427
0.44300002 24234.92941215  2259.66492548
0.44400002 24333.51310719  2598.81932301
0.44500002 24431.73975874  2124.82850752
0.44600002 24529.91308517  2467.09612546
0.44700002 24628.78754963  1655.05460177
0.44800002 24726.40002171  1831.85543242
0.44900002 24824.21632597  1843.19814956
0.45000002 24921.78686139  1854.55485718
0.45100002 25017.77133671  2713.92796323
0.45200002 25113.74330489  1706.47893844
0.45300002 25208.47014656  2231.70596784
0.45400002 25302.48573133  2072.27367961
0.45500002 25395.91909969  2605.62142312
0.45600002 25487.70827372  2271.33723046
0.45700002 25578.77371100  2284.44038840
0.45800002 25668.13811169  2297.42681057
0.45900002 25756.25057218  2310.33578582
0.46000002 25843.47671742  2323.19944962
0.46100002 25928.30952866  1796.83193550
0.46200002 26012.14568024  2890.46976498
0.46300002 26094.33799387  1997.78261150
0.46400002 26174.16010403  1825.64775378
0.46500002 26253.33554784  2385.64071430
0.46600002 26329.62330130  2397.70725957
0.46700002 26404.06665965  2038.92212409
0.46800002 26477.20796809  2421.47316949
0.46900002 26547.44359516  2058.75434838
0.47000002 26615.84610191  2632.57346271
0.47100002 26682.28844297  2078.01672243
0.47200002 26746.52357133  3226.03209346
0.47300002 26808.36508024  3621.54221034
0.47400002 26867.29367670  1914.29476520
0.47500002 26924.28301274  2883.59084734
0.47600002 26979.43801743  3088.60621063
0.47700002 27031.06249527  2907.19090916
