# SAXS profile: number of points = 501, q_min = 0, q_max = 0.5, delta_q = 0.001
#    q    intensity    error
0.00000000 1682732.95097188 302.89193117
0.00100000 1682650.55143303 605.75421290
0.00200000 1682403.28242002 757.08150106
0.00300000 1681991.38456393 1110.11435336
0.00400000 1681414.70840862 1387.16718715
0.00500000 1680673.79422824 1512.60647468
0.00600000 1679768.50382322 2469.25980115
0.00700000 1678699.44314521 2014.43941549
0.00800000 1677466.43129728 2491.03775565
0.00900000 1676070.67076982 3268.33794772
0.01000000 1674511.57984871 3039.23864866
0.01100000 1672790.44277781 3011.02292810
0.01200000 1670907.12578213 4235.74974957
0.01300000 1668862.89539279 4906.45712885
0.01400000 1666657.73759387 4499.97609099
0.01500000 1664292.97325676 4793.16397641
0.01600000 1661768.13619595 6780.01429877
0.01700000 1659085.49356367 6271.34344699
0.01800000 1656244.93694385 5192.32811096
0.01900000 1653247.20032766 5951.69018974
0.02000000 1650093.32717506 6757.13248045
0.02100000 1646785.53105587 9781.90649797
0.02200000 1643322.26126071 8504.19308839
0.02300000 1639706.82215043 7083.53379412
0.02400000 1635938.69967533 7361.72448422
0.02500000 1632020.38719199 7001.36778081
0.02600000 1627952.04564653 7911.84730372
0.02700000 1623735.70408458 10229.53540426
0.02800000 1619371.16519046 7044.26489163
0.02900000 1614861.16393409 8720.25068563
0.03000000 1610206.96909780 7487.46275047
0.03100000 1605408.91014265 10788.34837256
0.03200000 1600468.59170458 11883.47984074
0.03300000 1595389.43271382 8950.13513013
0.03400000 1590169.92927507 10852.91026806
0.03500000 1584813.22688256 9413.79100239
0.03600000 1579320.72284089 11394.79954189
0.03700000 1573694.05326429 10764.06782214
0.03800000 1567934.82061825 12841.38677516
0.03900000 1562045.25671818 13121.18076407
0.04000000 1556024.83993937 12440.41917179
0.04100000 1549877.92827120 13669.92396118
0.04200000 1543605.26634016 11947.50531575
0.04300000 1537207.68676973 12174.68544434
0.04400000 1530688.86073392 14465.01040572
0.04500000 1524050.12786428 15773.91955633
0.04600000 1517291.55069298 10696.90592965
0.04700000 1510417.18230876 16312.50632760
0.04800000 1503427.62652455 16575.29035365
0.04900000 1496326.92536052 13466.94295510
0.05000000 1489114.22897252 12530.89682032
0.05100000 1481794.36738597 15025.39558524
0.05200000 1474365.61627998 12893.32791521
0.05300000 1466834.12046030 15445.76400850
0.05400000 1459199.50724357 12038.39649616
0.05500000 1451464.85088946 18288.45797435
0.05600000 1443630.93983911 20983.17668972
0.05700000 1435702.96890641 16237.80133629
0.05800000 1427679.86089078 22742.94124591
0.05900000 1419564.31066092 14053.68733193
0.06000000 1411360.05285771 12913.94508697
0.06100000 1403068.46374038 13048.53732256
0.06200000 1394691.87506361 21087.74213668
0.06300000 1386233.10727560 14638.62229726
0.06400000 1377691.32364109 26864.98206739
0.06500000 1369072.76781401 20330.73155306
0.06600000 1360377.99786993 17773.33937376
0.06700000 1351608.79533258 17922.33346486
0.06800000 1342768.39545011 16677.18425213
0.06900000 1333859.23845328 22408.83625517
0.07000000 1324882.31537930 15520.99705149
0.07100000 1315840.65475141 15632.18771062
0.07200000 1306736.65200272 20032.27381365
0.07300000 1297573.18296423 18723.98190750
0.07400000 1288352.37970313 18842.15443618
0.07500000 1279075.73287887 21872.19605743
0.07600000 1269744.57567250 16132.10559020
0.07700000 1260364.52383733 19170.14530643
0.07800000 1250935.35612758 16305.94313181
0.07900000 1241459.60203461 20856.52229243
0.08000000 1231940.83184141 17961.69817085
0.08100000 1222380.76774625 19545.86939332
0.08200000 1212780.29440034 19628.84998596
0.08300000 1203143.67419439 15159.61100632
0.08400000 1193472.25412233 18260.12634518
0.08500000 1183768.40460108 16797.67444986
0.08600000 1174034.36114978 21449.60878530
0.08700000 1164273.41250956 16905.25074347
0.08800000 1154485.42374099 16953.61924384
0.08900000 1144675.82458656 16998.43679352
0.09000000 1134844.07723800 17039.68462018
0.09100000 1124993.39096802 17077.40047721
0.09200000 1115125.75040764 28000.80890840
0.09300000 1105245.96448296 21817.55636415
0.09400000 1095350.88103430 23413.12618247
0.09500000 1085445.95858395 17193.46479211
0.09600000 1075533.14242015 23473.51193676
0.09700000 1065616.31793710 21930.38485415
0.09800000 1055695.14475886 25083.31781883
0.09900000 1045772.71876998 15686.59151917
0.10000000 1035849.85396938 15693.12602564
0.10100000 1025928.83696169 15696.71194376
0.10200000 1016013.08195178 17267.14313995
0.10300000 1006103.23384430 15695.21118629
0.10400000 996202.57806039 17259.21047686
0.10500000 986313.95409559 21955.34965115
0.10600001 976434.23017983 20373.30117134
0.10700001 966571.31315216 17224.30161091
0.10800001 956723.72012146 18770.92027217
0.10900001 946895.17288199 17186.14819669
0.11000001 937085.74939191 23403.71769267
0.11100001 927298.08657771 20252.19116420
0.11200001 917534.01231836 18662.64268914
0.11300001 907794.92088726 20180.28204143
0.11400001 898083.40607112 18590.32738099
0.11500001 888401.03171552 20095.63228367
0.11600001 878748.70233809 18506.44854274
0.11700001 869129.44997600 16921.95118797
0.11800001 859542.22993991 15342.82952705
0.11900001 849990.20946383 27539.68408379
0.12000001 840474.41582169 16780.07250230
0.12100001 830999.12102172 21290.19848352
0.12200001 821562.51562480 18189.39495286
0.12300001 812168.39058310 21148.86588720
0.12400001 802815.77955522 19568.63554868
0.12500001 793506.96272127 17996.73876253
0.12600001 784245.23347163 16433.85964182
0.12700001 775029.77480721 22320.85856635
0.12800001 765862.20104112 17783.32114629
0.12900001 756744.71784845 17707.82723226
0.13000001 747678.00947798 14691.87357874
0.13100001 738662.37284321 16088.06723888
0.13200001 729700.58972772 21836.29117697
0.13300001 720793.11648398 20283.11925407
0.13400001 711940.44131321 17300.15353954
0.13500001 703144.86048828 18647.40257934
0.13600001 694406.94632878 19978.08878786
0.13700001 685727.73675058 15614.02130206
0.13800001 677106.36101795 18352.96878084
0.13900001 668546.94406718 15443.43513624
0.14000001 660048.12616025 18148.02408465
0.14100001 651612.62142822 18043.15433832
0.14200001 643239.65517336 16556.98950508
0.14300001 634931.51968409 17828.87791367
0.14400001 626685.14253103 17719.52324089
0.14500001 618507.18148903 21672.49266171
0.14600001 610394.48661830 21534.71850378
0.14700001 602350.01331603 16046.60511176
0.14800001 594370.62637265 18597.85777662
0.14900001 586460.52543102 13195.36244477
0.15000001 578618.59585615 14416.28299596
0.15100001 570846.14982360 22125.99781118
0.15200001 563144.55254715 14216.58489989
0.15300001 555513.16009775 14115.59006418
0.15400001 547950.51446364 17835.79008748
0.15500001 540461.05033464 13911.46809214
0.15600001 533041.10326597 13808.43043179
0.15700001 525695.98149766 12458.99534952
0.15800001 518419.97929410 16073.61221667
0.15900001 511218.91373838 14723.10541060
0.16000001 504088.14511487 15825.84806290
0.16100001 497032.81339278 16909.05710980
0.16200001 490050.23849633 13179.90178653
0.16300001 483140.84707465 16639.37155876
0.16400001 476305.65261401 12967.42200460
0.16500001 469543.24434010 14029.95280325
0.16600001 462855.53617167 16232.34441992
0.16700001 456240.71652345 17245.89989885
0.16800001 449700.38556653 14819.87690609
0.16900001 443235.07074988 12432.74432158
0.17000001 436842.33268073 11205.00636236
0.17100001 430524.22035257 14439.78303249
0.17200001 424279.90426961 17616.10245716
0.17300001 418109.37713310 14186.45183607
0.17400001 412013.34531612 18386.09640303
0.17500001 405989.77758154 10718.13063434
0.17600001 400038.87403839 16993.65217175
0.17700001 394163.87758084 11576.59363132
0.17800001 388360.13718486 12512.96421111
0.17900001 382628.92475616 16529.57033022
0.18000001 376971.76877761 12281.74080690
0.18100001 371387.34019359 12166.64983945
0.18200001 365872.81668670 14060.49300946
0.18300001 360430.98259342 11937.47470741
0.18400001 355060.42557938 15764.68364046
0.18500001 349761.50368253 11710.01569650
0.18600001 344533.51877775 11596.99878994
0.18700001 339375.20845777 12441.49572986
0.18800001 334285.62207987 11372.39740046
0.18900001 329269.06631691 9384.16883341
0.19000001 324317.25187651 10220.85867581
0.19100001 319437.30849016 10119.77441113
0.19200001 314623.55465987 10930.02280534
0.19300001 309879.68742903 11722.74912937
0.19400001 305201.23533011 8927.13655525
0.19500001 300590.30744633 9721.09100219
0.19600001 296044.36315886 10497.73361370
0.19700001 291566.08033004 12989.26949254
0.19800001 287151.84055891 8571.48284576
0.19900001 282802.53869640 9332.48421803
0.20000001 278515.74110739 8397.24999125
0.20100001 274294.17647245 10804.44812189
0.20200001 270134.20447709 13160.93906416
0.20300001 266036.92175012 9768.87622839
0.20400001 262001.59239999 8056.54934710
0.20500001 258026.65290750 7973.02395170
0.20600001 254111.86366179 8679.19111362
0.20700001 250257.20184122 7808.02506652
0.20800001 246461.14202432 9271.86860124
0.20900001 242725.88003166 12233.38493188
0.21000001 239045.49273019 10592.10628359
0.21100001 235423.80533764 8235.12510001
0.21200001 231857.50841707 8148.63251854
0.21300001 228347.05160624 9528.92291401
0.21400001 224892.11334444 7252.77099824
0.21500001 221492.69282176 8611.63630405
0.21600001 218145.37057612 7810.69536276
0.21700001 214851.87131292 9133.35348133
0.21800001 211610.82332248 8341.69904977
0.21900001 208420.64030199 10316.82218274
0.22000001 205281.00268554 7485.57211687
0.22100001 202193.20896497 9426.24784765
0.22200001 199154.65939810 11324.93024217
0.22300001 196164.49726758 8568.46564581
0.22400001 193221.92675026 7825.48840342
0.22500001 190329.10375556 9033.01969139
0.22600001 187481.16137929 9575.60077026
0.22700001 184680.38337399 6316.06941007
0.22800001 181924.33546878 9998.56195020
0.22900001 179212.81342676 7419.41082674
0.23000001 176545.73240896 6117.30991727
0.23100001 173923.16868073 6052.52655633
0.23200001 171341.60953364 7186.06744370
0.23300001 168803.24211692 6517.49348638
0.23400001 166305.11175110 9379.60874637
0.23500001 163847.56865322 6960.24504558
0.23600001 161430.52877064 5738.85556923
0.23700001 159052.96783059 7381.64858615
0.23800001 156713.46225692 6179.99567641
0.23900001 154412.32323610 8338.26584915
0.24000001 152147.90645308 6600.17649413
0.24100001 149921.55622732 5986.36802332
0.24200001 147731.09083084 8077.19777324
0.24300001 145575.34541491 6393.66947306
0.24400001 143454.64128698 5799.15414835
0.24500001 141367.65262223 6781.40661708
0.24600001 139314.45240057 5161.60070561
0.24700001 137294.86289394 6128.84296952
0.24800001 135307.36075271 5053.73016319
0.24900001 133350.40890047 6500.83274144
0.25000001 131425.98215212 6432.64500075
0.25100001 129531.37952613 5385.91501550
0.25200001 127668.58715531 5329.52542294
0.25300001 125833.68786310 6232.54285472
0.25400001 124028.73667234 4744.09940217
0.25500001 122250.49821959 6102.74515985
0.25600001 120501.74209543 6968.01356634
0.25700001 118779.18481379 5056.43013676
0.25800001 117083.50714994 5913.30280839
0.25900001 115415.14062997 4951.30976730
0.26000001 113771.58123594 5790.40490098
0.26100001 112152.99257383 6611.41922505
0.26200001 110560.36907714 6542.41014971
0.26300001 108990.72540265 4316.03293017
0.26400001 107445.83102968 5552.26358118
0.26500001 105924.18641751 4226.37523805
0.26600001 104425.07772418 4182.22456075
0.26700001 102948.84531015 4966.25253277
0.26800001 101494.90221179 5323.91534745
0.26900001 100061.76111802 6078.75227558
0.27000001 98650.50571720  4812.17189661
0.27100001 97259.70985639  4761.83561991
0.27200001 95889.94726672  5497.37093696
0.27300001 94540.12257127  5439.83891019
0.27400001 93208.46908292  4998.30439112
0.27500001 91898.16965405  4565.50128448
0.27600001 90604.56942313  5270.46805277
0.27700001 89331.53907929  4842.66296268
0.27800001 88075.36923095  4423.14525211
0.27900001 86837.75547509  4376.62308308
0.28000001 85617.03929654  4691.38589029
0.28100001 84413.87947047  3570.70727060
0.28200001 83228.07161860  3886.33498817
0.28300001 82058.69020121  3845.27040483
0.28400001 80904.85767965  4842.15596131
0.28500001 79767.93269988  3764.24892227
0.28600001 78646.22083558  5078.57995084
0.28700001 77540.89139097  4019.71999997
0.28800001 76449.17507800  3645.47908615
0.28900001 75374.19254541  4262.41079020
0.29000001 74313.01818295  4216.89241639
0.29100001 73266.98306563  3850.91281221
0.29200001 72234.76363418  3174.71801200
0.29300001 71217.00376588  3768.80401769
0.29400001 70212.26169479  3728.27127248
0.29500001 69222.45240232  3688.17243858
0.29600001 68244.76371612  3648.36524097
0.29700001 67280.88279273  3608.94672384
0.29800001 66330.27963291  3272.40450060
0.29900001 65392.91523589  2942.68132492
0.30000001 64467.15108330  3783.89961196
0.30100001 63555.04165742  4318.56528506
0.30200001 62654.30076230  3417.16572535
0.30300001 61766.57026175  4224.83360591
0.30400001 60890.73986795  3342.90177701
0.30500001 60027.24405116  3030.77569563
0.30600001 59174.40642873  4632.46862659
0.30700001 58334.07621370  2964.53789353
0.30800001 57505.00426713  4531.10702575
0.30900001 56687.64003335  2635.97538635
0.31000001 55881.58920123  2867.56388563
0.31100001 55086.09128642  3609.24087197
0.31200001 54302.69111157  3059.41376208
0.31300001 53529.31774400  3529.72337916
0.31400001 52768.35521770  3241.29637271
0.31500001 52016.61106421  3451.82247365
0.31600002 51276.96418272  2925.86371480
0.31700002 50547.12205019  3616.64675393
0.31800002 49827.66908039  2861.10489407
0.31900002 49119.41924522  2593.50545895
0.32000002 48421.64512082  3730.40371674
0.32100002 47733.71458522  2536.09237600
0.32200002 47056.98805573  2735.89341511
0.32300002 46388.98465629  2705.40571326
0.32400002 45732.37974372  2452.39897988
0.32500002 45085.19801003  2204.66628709
0.32600002 44448.33463664  3706.32455918
0.32700002 43821.68181425  2802.83490156
0.32800002 43205.70791489  2345.42196522
0.32900002 42597.67580523  2319.44355743
0.33000002 42000.90738470  2502.41418048
0.33100002 41412.83594696  2268.59526060
0.33200002 40836.02487387  2243.73549295
0.33300002 40268.12546701  2824.40645401
0.33400002 39710.52850842  2594.09039766
0.33500002 39162.14517426  2960.65831538
0.33600002 38622.99993873  2342.87128723
0.33700002 38093.44596375  2510.73914237
0.33800002 37574.19897686  2674.90735184
0.33900002 37063.66440168  3024.39515841
0.34000002 36562.59353437  2057.19442264
0.34100002 36071.26394732  1850.45592813
0.34200002 35589.87991010  2563.53917133
0.34300002 35117.00560551  2174.44509007
0.34400002 34654.28563832  2331.36717673
0.34500002 34200.30741951  2129.99524696
0.34600002 33756.40146924  2284.12701359
0.34700002 33320.29706144  2087.18350678
0.34800002 32894.46380752  1722.02526188
0.34900002 32477.19812637  2557.57947358
0.35000002 32069.50942057  1857.30572606
0.35100002 31671.50607605  1839.48116002
0.35200002 31280.89840127  3643.91202735
0.35300002 30900.69883842  2625.32349766
0.35400002 30528.65902047  1625.65116984
0.35500002 30166.08627094  1933.04289980
0.35600002 29811.84932163  1756.06706747
0.35700002 29466.54381895  2373.53021704
0.35800002 29130.25571935  2039.26364822
0.35900002 28803.23772077  2021.98738377
0.36000002 28484.55737459  1850.92662587
0.36100002 28173.96121953  1988.80001669
0.36200002 27873.57535216  1973.03112476
0.36300002 27580.19855917  2108.23047772
0.36400002 27296.02787241  2391.13215488
0.36500002 27019.44905521  1631.70460573
0.36600002 26752.26147218  1767.25447656
0.36700002 26492.82007774  1901.12485883
0.36800002 26242.48049022  2178.78204591
0.36900002 26000.17596782  1587.31081803
0.37000002 25765.28930488  1720.60610128
0.37100002 25538.57732686  1710.06321881
0.37200002 25320.60536704  1558.35673113
0.37300002 25110.28696632  2113.03074831
0.37400002 24907.73600900  1821.37828194
0.37500002 24713.18999849  1672.58877833
0.37600002 24526.63912878  1525.67965928
0.37700002 24347.54028140  2346.85951890
0.37800002 24176.07480950  1924.17388524
0.37900002 24012.83625857  1779.35125105
0.38000002 23856.34697667  1499.72932373
0.38100002 23706.67623096  1765.91039610
0.38200002 23565.44458293  1353.83485543
0.38300002 23430.69744591  1349.60823682
0.38400002 23303.43375983  1614.92803606
0.38500002 23182.64961813  1476.50302413
0.38600002 23069.81380856  1874.88385704
0.38700002 22962.90396169  1470.08518127
0.38800002 22862.84080449  2001.07023621
0.38900002 22769.47216009  1731.61843981
0.39000002 22683.26159185  1729.48536201
0.39100002 22602.67048517  1594.84450499
0.39200002 22529.22548662  1726.52727696
0.39300002 22461.33053348  1858.45057639
0.39400002 22400.88245305  1725.42805269
0.39500002 22345.25273979  1460.03888319
0.39600002 22295.84577441  1858.80475028
0.39700002 22251.67744595  1461.26772711
0.39800002 22214.51353396  1861.35417720
0.39900002 22181.83308779  1330.91004832
0.40000002 22155.11361204  1599.15617628
0.40100002 22133.40767227  1601.57345505
0.40200002 22117.58884608  1470.70914000
0.40300002 22106.56479685  1473.62367918
0.40400002 22100.73049376  1342.61944111
0.40500002 22099.29396676  1480.43177298
0.40600002 22103.63991244  1484.37000865
0.40700002 22112.09683750  1488.58642963
0.40800002 22124.96876275  1764.57696728
0.40900002 22142.10031664  1497.91315739
0.41000002 22164.19931267  1366.42295237
0.41100002 22190.21336777  1782.76182644
0.41200002 22219.45833475  1789.44416178
0.41300002 22254.00694976  1796.56606618
0.41400002 22291.65625405  1942.71793459
0.41500002 22332.96483403  1951.00790035
0.41600002 22376.98619388  1539.64860802
0.41700002 22425.88666353  1968.54442460
0.41800002 22478.45590860  1554.04812288
0.41900002 22532.33130966  1561.49063375
0.42000002 22589.95328798  1569.21117951
0.42100002 22651.29454926  2007.35781807
0.42200002 22714.96629431  1441.26467967
0.42300002 22781.04662361  2173.31195088
0.42400002 22849.61199068  2039.32796680
0.42500002 22921.20485101  1757.59807126
0.42600002 22993.73890691  1767.29885613
0.42700002 23069.80899034  1481.08180736
0.42800002 23147.11614819  2085.32379261
0.42900002 23227.36053521  1947.61427317
0.43000002 23309.11064426  1657.62748202
0.43100002 23391.13105718  1515.74536433
0.43200002 23476.03186645  2134.67567877
0.43300002 23561.59418122  1533.85985388
0.43400002 23649.06482970  2314.65232989
0.43500002 23737.11850615  1552.40762387
0.43600002 23826.99112367  1874.23121061
0.43700002 23917.15257038  1728.49269817
0.43800002 24007.59569607  2529.44040241
0.43900002 24099.89906366  2067.77143765
0.44000002 24192.02179239  1760.33254915
0.44100002 24285.09208603  1932.12201793
0.44200002 24378.27105757  2105.91704511
0.44300002 24472.01193890  1629.83607237
0.44400002 24565.49072933  1803.72124228
0.44500002 24658.65502366  2474.49614889
0.44600002 24751.71615654  1991.52317634
0.44700002 24845.56557081  2003.54650258
0.44800002 24938.05863487  2015.49399439
0.44900002 25030.79263274  1858.53644106
0.45000002 25123.34216923  2209.47243178
0.45100002 25214.29524567  2222.38808828
0.45200002 25305.19424585  2751.18084879
0.45300002 25394.79962073  1902.32452975
0.45400002 25483.82543834  2087.12540232
0.45500002 25572.17672383  2273.87806205
0.45600002 25658.93408516  2110.70401788
0.45700002 25744.94691014  2299.28131752
0.45800002 25829.31687929  2311.85311685
0.45900002 25912.31876339  1966.74508735
0.46000002 25994.51763191  2157.02517533
0.46100002 26074.25778783  1987.64076537
0.46200002 26153.12945639  1816.33492683
0.46300002 26230.29507407  2555.88007315
0.46400002 26305.12351008  1834.78245179
0.46500002 26379.31551779  2028.30566630
0.46600002 26450.56310398  1852.86203325
0.46700002 26519.98386342  2047.87325099
0.46800002 26588.15972164  1870.47712507
0.46900002 26653.40593345  2442.78476958
0.47000002 26716.79777919  2642.55859359
0.47100002 26778.27354810  2275.08222848
0.47200002 26837.56329750  2094.53772683
0.47300002 26894.50445774  1912.19935758
0.47400002 26948.44335926  2112.08434839
0.47500002 27000.53148805  2120.62184358
0.47600002 27050.74647532  2322.57720246
0.47700002 27097.45759875  2525.75414250
