# SAXS profile: number of points = 501, q_min = 0, q_max = 0.5, delta_q = 0.001
#    q    intensity    error
0.00000000 1700912.83420644 357.19169518
0.00100000 1700829.91663733 714.34858195
0.00200000 1700581.10373898 841.78767301
0.00300000 1700166.62072651 1326.13001141
0.00400000 1699586.32488020 1657.09672972
0.00500000 1698840.77047883 1528.95675395
0.00600000 1697929.81003895 1782.82637312
0.00700000 1696854.03496425 2036.22492658
0.00800000 1695613.28425950 2289.07803040
0.00900000 1694208.77259892 3303.70724779
0.01000000 1692639.89519708 3630.71273197
0.01100000 1690907.95265198 3652.36133675
0.01200000 1689012.80340961 3952.29013326
0.01300000 1686955.69785062 5313.91068260
0.01400000 1684736.70402669 4548.78930252
0.01500000 1682357.03434575 4037.65706222
0.01600000 1679816.29035260 4711.88490508
0.01700000 1677116.74271372 4981.03694930
0.01800000 1674258.28044885 6680.29083959
0.01900000 1671241.61714479 6016.47009320
0.02000000 1668067.79805651 7881.62070235
0.02100000 1664739.10870411 6043.00323858
0.02200000 1661253.95927349 6877.59170386
0.02300000 1657615.56270476 5967.41629736
0.02400000 1653823.59182804 6822.02262736
0.02500000 1649880.48571183 8364.89444459
0.02600000 1645786.27790954 7998.52167648
0.02700000 1641543.04283121 8273.37731480
0.02800000 1637150.75147843 7121.60609553
0.02900000 1632612.07399412 7346.75467029
0.03000000 1627928.13442433 12111.78587684
0.03100000 1623099.35506759 10907.22816793
0.03200000 1618127.49716961 10412.65092387
0.03300000 1613015.86776489 9871.65756581
0.03400000 1607762.78292487 9284.83049980
0.03500000 1602371.72804765 9518.08850413
0.03600000 1596843.80495745 9748.73187979
0.03700000 1591180.96120801 9976.70508817
0.03800000 1585384.54331700 12056.85000991
0.03900000 1579456.79115964 13267.43766016
0.04000000 1573397.43143965 12579.31304727
0.04100000 1567210.68002492 11848.11329034
0.04200000 1560897.30183904 11074.56687033
0.04300000 1554458.03971540 10259.42353834
0.04400000 1547896.75600756 12537.96430595
0.04500000 1541214.64759105 11697.81971875
0.04600000 1534411.81986942 14062.88498284
0.04700000 1527492.39970204 12097.74036828
0.04800000 1520456.89533163 14527.96631085
0.04900000 1513309.44802579 11349.82138850
0.05000000 1506049.18941050 13825.53220259
0.05100000 1498680.91902020 15196.62522678
0.05200000 1491202.96452873 11855.06412046
0.05300000 1483621.50364698 20429.46905760
0.05400000 1475936.13212993 13394.12102370
0.05500000 1468149.86897157 12332.45947466
0.05600000 1460263.59211874 14982.30515427
0.05700000 1452282.43589091 12634.85778203
0.05800000 1444205.34852700 14059.33972437
0.05900000 1436035.19221425 15509.18080028
0.06000000 1427775.53035657 19596.22006966
0.06100000 1419427.93415572 15840.81648544
0.06200000 1410994.48089044 17334.06800799
0.06300000 1402478.08600746 16156.54830621
0.06400000 1393878.14200783 16308.37502418
0.06500000 1385200.66065682 19198.88205478
0.06600000 1376446.07130181 16599.94039659
0.06700000 1367616.80617087 16739.63049093
0.06800000 1358715.36389884 14062.70467462
0.06900000 1349744.58440357 24092.94195961
0.07000000 1340705.34803731 15706.36388776
0.07100000 1331600.83162544 18695.67655168
0.07200000 1322433.25577527 15928.70931202
0.07300000 1313205.54112476 14576.58218948
0.07400000 1303920.04585153 17602.92144394
0.07500000 1294578.07099502 19185.64791143
0.07600000 1285180.87251686 20781.37568284
0.07700000 1275734.35874490 16418.70196690
0.07800000 1266238.31705951 18005.90971300
0.07900000 1256694.77656621 19604.43943395
0.08000000 1247107.90146114 24243.77874171
0.08100000 1237479.10466293 19787.29181194
0.08200000 1227809.58144264 21400.72200878
0.08300000 1218103.04426934 16882.90898592
0.08400000 1208361.54793188 20028.59359709
0.08500000 1198586.86765469 15461.77131860
0.08600000 1188781.66000959 18616.32166981
0.08700000 1178949.10876302 18674.55475972
0.08800000 1169089.12361046 15607.34053318
0.08900000 1159206.77022521 20344.07977301
0.09000000 1149302.20804658 20394.36863982
0.09100000 1139378.06239924 29874.49419965
0.09200000 1129436.68700812 25209.02803851
0.09300000 1119482.58844651 22098.58733439
0.09400000 1109512.75328862 25296.89196387
0.09500000 1099532.97857629 15833.27563570
0.09600000 1089544.88525923 17438.16670830
0.09700000 1079552.53827702 19043.30767049
0.09800000 1069555.21309870 19059.47479355
0.09900000 1059556.50770129 25429.35738058
0.10000000 1049556.95838143 20671.02526742
0.10100000 1039558.90828904 20676.82765834
0.10200000 1029565.73999624 17497.47057425
0.10300000 1019578.25789822 22267.59019998
0.10400000 1009599.85500977 19081.43815737
0.10500000 999633.06239061 17483.58308380
0.10600001 989674.85161739 22237.99496222
0.10700001 979733.56537657 25394.69520958
0.10800001 969806.98859253 22198.88301360
0.10900001 959899.26603276 19006.00636198
0.11000001 950010.63457315 22144.74893424
0.11100001 940143.64067657 25271.06225098
0.11200001 930299.75504877 18922.29790850
0.11300001 920480.92043793 18888.26937666
0.11400001 910689.38557970 18851.27116910
0.11500001 900926.90357622 17243.74174642
0.11600001 891194.12471920 20332.59491296
0.11700001 881494.61272579 15602.45538004
0.11800001 871826.71259427 23343.16132914
0.11900001 862193.96921928 20175.33983002
0.12000001 852597.37952260 15474.64316727
0.12100001 843041.46294994 18513.19139850
0.12200001 833523.83276948 16916.36698301
0.12300001 824048.85953334 19925.50236229
0.12400001 814615.05764965 15274.03305060
0.12500001 805225.11801871 18262.50653720
0.12600001 795882.30103286 22742.33782371
0.12700001 786585.57443356 21143.42123719
0.12800001 777336.79427231 19553.90798148
0.12900001 768137.99216766 20970.16817454
0.13000001 758990.16498645 17896.98893395
0.13100001 749893.22465122 16332.67520279
0.13200001 740850.42642490 20691.95338547
0.13300001 731861.93896264 16181.46823331
0.13400001 722927.96533279 14639.29198817
0.13500001 714051.44326470 17479.98015527
0.13600001 705232.41478184 15941.77948781
0.13700001 696472.36391937 17300.37433553
0.13800001 687769.91647619 15774.00377822
0.13900001 679130.05936524 14261.73191923
0.14000001 670550.48609595 17018.57213972
0.14100001 662034.53564761 14101.33627435
0.14200001 653581.03970127 16823.17675538
0.14300001 645192.89287139 23691.48414371
0.14400001 636866.20804584 15237.02474623
0.14500001 628608.35872992 16519.82844670
0.14600001 620415.66842188 15048.18274746
0.14700001 612291.52688270 21748.59606090
0.14800001 604232.76814809 14855.06330576
0.14900001 596243.27279560 16098.56912502
0.15000001 588322.12942620 14658.04654626
0.15100001 580470.81867237 14558.20881923
0.15200001 572690.42794944 17086.21972412
0.15300001 564980.64475248 14356.15886061
0.15400001 557339.51937531 20733.03109917
0.15500001 549771.93570473 14151.13029287
0.15600001 542274.17523514 15324.66891539
0.15700001 534851.48065177 15211.17682766
0.15800001 527498.02066927 15096.99406411
0.15900001 520219.83266883 13733.80423070
0.16000001 513012.30581989 12389.24777035
0.16100001 505880.29436470 15980.75925334
0.16200001 498821.49945814 17074.66073248
0.16300001 491835.96089423 13309.08173009
0.16400001 484924.93643308 13202.08201766
0.16500001 478087.22540382 17856.55871186
0.16600001 471324.64004188 12987.35106953
0.16700001 464634.75786063 14050.55574110
0.16800001 458019.77123715 12771.88192399
0.16900001 451480.50981521 12664.02889829
0.17000001 445014.00143838 13697.53161107
0.17100001 438622.41722520 13579.75067855
0.17200001 432304.72151624 12340.13885842
0.17300001 426061.65357400 12232.23065177
0.17400001 419892.98973968 11022.19150120
0.17500001 413797.41724272 15293.95326359
0.17600001 407774.56350546 11909.05668963
0.17700001 401828.33618124 13947.46220760
0.17800001 395953.60235802 11694.49019800
0.17900001 390151.51683895 14747.72803310
0.18000001 384424.43734255 13568.26115690
0.18100001 378770.14765959 10340.42551955
0.18200001 373186.00330975 12292.74752971
0.18300001 367675.19001666 11162.61929622
0.18400001 362235.89037456 12062.45571931
0.18500001 356868.79347413 13939.29573162
0.18600001 351572.92167218 11833.94510256
0.18700001 346347.03550164 9766.98686259
0.18800001 341190.30428289 12574.56925845
0.18900001 336107.14843966 11494.86501974
0.19000001 331089.18692422 10434.27621892
0.19100001 326143.39541894 11271.51627826
0.19200001 321264.27168280 10230.66121515
0.19300001 316455.58264267 9208.85789004
0.19400001 311712.66987369 12764.63443451
0.19500001 307037.79032316 13540.36719310
0.19600001 302428.06094867 12511.44947269
0.19700001 297886.80920682 14155.58184247
0.19800001 293409.83846259 10509.94091042
0.19900001 288998.18217857 9536.94046261
0.20000001 284649.54106382 9440.40247555
0.20100001 280366.77508854 9344.62505535
0.20200001 276145.70487570 10090.36453306
0.20300001 271988.04473900 10819.68493111
0.20400001 267892.69366362 13180.32115123
0.20500001 263858.14068231 8968.53862571
0.20600001 259884.34488797 10490.23207726
0.20700001 255971.02176424 8784.92588220
0.20800001 252116.82441671 7903.86281908
0.20900001 248323.86542775 14079.96383533
0.21000001 244586.18016643 10837.61415549
0.21100001 240907.86161111 7660.87036139
0.21200001 237285.15610958 12888.14386337
0.21300001 233718.87484748 10503.32673220
0.21400001 230208.59049091 8166.65013376
0.21500001 226754.23217263 8081.52121671
0.21600001 223352.47327969 7997.13568387
0.21700001 220005.05306839 10791.24836321
0.21800001 216710.66451270 8542.73479900
0.21900001 213467.22571445 7748.86065981
0.22000001 210275.06735360 9061.80445607
0.22100001 207135.16910988 8966.88189475
0.22200001 204045.07704376 8872.90059480
0.22300001 201003.73902073 6753.72595045
0.22400001 198010.39756009 8687.70660376
0.22500001 195067.42198688 7935.34310167
0.22600001 192169.68853150 6543.37820392
0.22700001 189319.70464330 6474.73420499
0.22800001 186514.78589396 6406.78319843
0.22900001 183754.90779364 7607.45354242
0.23000001 181039.92859799 6273.03382258
0.23100001 178369.97306647 7448.73042753
0.23200001 175741.54944816 6756.38418807
0.23300001 173156.66641271 7293.35913424
0.23400001 170612.32677259 6615.49328349
0.23500001 168109.27614707 8331.49611990
0.23600001 165647.18409478 6477.63344040
0.23700001 163224.77188776 8157.97448480
0.23800001 160841.00561520 6919.38038884
0.23900001 158496.18424749 6276.44919307
0.24000001 156188.39620995 7340.07402707
0.24100001 153919.09358634 6145.98969761
0.24200001 151686.10611916 6081.85471253
0.24300001 149488.50486969 7659.79135185
0.24400001 147326.10534856 5955.65809044
0.24500001 145197.90907433 8572.48495726
0.24600001 143104.03840032 5302.00487354
0.24700001 141044.27619506 5771.53205493
0.24800001 139016.86906482 6230.73636624
0.24900001 137020.41652916 6679.74562180
0.25000001 135057.00459444 6101.87575625
0.25100001 133123.79506480 7044.91156812
0.25200001 131222.90872004 5477.90058368
0.25300001 129350.22482845 5913.89255895
0.25400001 127507.95488098 5852.61540593
0.25500001 125692.65008026 6757.23718801
0.25600001 123907.45585769 5731.95917917
0.25700001 122148.87795901 5199.87798074
0.25800001 120417.38146558 7017.32323692
0.25900001 118713.72069907 5092.81885896
0.26000001 117035.18477156 5498.31324072
0.26100001 115382.15011887 7708.68181419
0.26200001 113755.28598348 5385.17549327
0.26300001 112151.99287655 4885.34104086
0.26400001 110573.65739066 6592.95463389
0.26500001 109019.00673735 5219.83028958
0.26600001 107487.26057493 6026.81098562
0.26700001 105978.69299650 5112.41239207
0.26800001 104492.99428127 5059.55102252
0.26900001 103028.22067957 5007.17176197
0.27000001 101585.71872177 5781.24352604
0.27100001 100164.20523951 4495.36974388
0.27200001 98763.95301604  4044.38406740
0.27300001 97384.00681181  4002.48286938
0.27400001 96022.58819956  4753.11834082
0.27500001 94682.89314471  4311.85915787
0.27600001 93360.25191000  5430.76611062
0.27700001 92058.44640653  4222.72113651
0.27800001 90773.84570342  4178.77418473
0.27900001 89508.19059231  5263.08185592
0.28000001 88259.62461874  4464.17202450
0.28100001 87028.97916173  5521.98898916
0.28200001 85816.01554468  4007.17903552
0.28300001 84619.87901193  3965.28771818
0.28400001 83439.51652705  5350.55925054
0.28500001 82276.42443732  4235.59053051
0.28600001 81128.83940187  4889.63538219
0.28700001 79997.90448880  4838.27349249
0.28800001 78880.74701758  4445.32470859
0.28900001 77780.86639215  3383.46784821
0.29000001 76694.98900272  4352.05735696
0.29100001 75624.37122400  3643.58237804
0.29200001 74567.95497551  3277.26177630
0.29300001 73526.31096294  3891.01256034
0.29400001 72497.93998925  4491.24759493
0.29500001 71484.73696140  4443.49145986
0.29600001 70483.93465906  3768.07132524
0.29700001 69497.16761370  4970.43766302
0.29800001 68523.92511706  3380.62800568
0.29900001 67564.24722935  3344.43039618
0.30000001 66616.42508535  3308.50490849
0.30100001 65682.45654318  3272.95696449
0.30200001 64759.99821641  3532.01046993
0.30300001 63850.92718948  3785.08314298
0.30400001 62953.94559899  4032.20040651
0.30500001 62069.52331035  4273.48688223
0.30600001 61195.90748501  3381.68600772
0.30700001 60335.11502653  3344.97893543
0.30800001 59485.79456467  4135.75006291
0.30900001 58648.38779221  2999.86517760
0.31000001 57822.47110477  4046.12760712
0.31100001 57007.40234376  2667.94655600
0.31200001 56204.50699327  3166.56207392
0.31300001 55411.89333603  2609.90029970
0.31400001 54631.94700121  2581.35961803
0.31500001 53861.08928247  5361.33308102
0.31600002 53102.96703273  2777.55082216
0.31700002 52354.59265388  2747.04560662
0.31800002 51616.90590112  2469.86906431
0.31900002 50890.49481947  2687.01825370
0.32000002 50174.92241885  2657.51489175
0.32100002 49469.08012758  3106.16368829
0.32200002 48774.79930414  2835.76696582
0.32300002 48089.40812148  2804.57441444
0.32400002 47415.53236616  2773.80877476
0.32500002 46751.27493762  2743.36494324
0.32600002 46097.38032045  2261.07661178
0.32700002 45453.92621454  2459.96660322
0.32800002 44821.28084371  3317.89547157
0.32900002 44196.84065249  2625.29245907
0.33000002 43583.59386005  2813.10319891
0.33100002 42979.32004583  2782.48131153
0.33200002 42386.44836496  2752.36415492
0.33300002 41802.59378072  2094.31004759
0.33400002 41228.99397720  2071.75704546
0.33500002 40665.02791024  2254.46925411
0.33600002 40110.38396620  3041.37000827
0.33700002 39565.35994646  2407.15661314
0.33800002 39030.77796107  2183.18666864
0.33900002 38505.04175958  2552.88438956
0.34000002 37988.86611827  2914.69589096
0.34100002 37482.57189247  2691.99844081
0.34200002 36986.37201393  2093.24382326
0.34300002 36498.64147628  2071.66298831
0.34400002 36021.28967573  2423.33237770
0.34500002 35552.74511164  2767.78133802
0.34600002 35094.45741644  2374.66657355
0.34700002 34643.99278385  1989.25815986
0.34800002 34203.93410738  1969.63363886
0.34900002 33772.45855001  2127.66498942
0.35000002 33350.76987365  2282.69355212
0.35100002 32938.76393475  1913.08349994
0.35200002 32534.30212894  1894.96051725
0.35300002 32140.32418414  2389.31181301
0.35400002 31754.40802291  2367.29123023
0.35500002 31378.21770483  1843.15659528
0.35600002 31010.50291789  1660.61250991
0.35700002 30651.61486709  1975.19015559
0.35800002 30302.05888746  2121.29573289
0.35900002 29961.69280810  2750.48353006
0.36000002 29629.77640289  1764.89771503
0.36100002 29305.98866764  2386.97289004
0.36200002 28992.58439860  2525.83407245
0.36300002 28686.07713491  2192.76384006
0.36400002 28389.00361385  2331.44703222
0.36500002 28099.54815314  2468.26442669
0.36600002 27819.50516512  1684.61021507
0.36700002 27547.21239167  1520.60619605
0.36800002 27284.20793130  1661.19907859
0.36900002 27029.19484788  1650.13242363
0.37000002 26781.72889153  1639.44361175
0.37100002 26542.51395312  2517.82299286
0.37200002 26312.05355979  1619.37541305
0.37300002 26089.30619366  1463.61014680
0.37400002 25874.43315814  1746.52432091
0.37500002 25667.51115037  1881.94200669
0.37600002 25468.73126076  1872.33386733
0.37700002 25277.45461359  2006.52444228
0.37800002 25093.66479888  1426.57491140
0.37900002 24918.51257194  1420.35528389
0.38000002 24749.87508851  1555.90097115
0.38100002 24588.17341363  1690.68288401
0.38200002 24434.95332619  1684.54576211
0.38300002 24288.44609678  1818.71892989
0.38400002 24149.26859580  1534.08236022
0.38500002 24016.65264622  1668.67710491
0.38600002 23892.09804914  1525.62999320
0.38700002 23773.40839045  2075.41865081
0.38800002 23661.62517107  1380.65589414
0.38900002 23556.56997201  1515.86534951
0.39000002 23458.83780795  1926.20526367
0.39100002 23366.58251605  1511.35062874
0.39200002 23281.75908718  2195.93562114
0.39300002 23202.35551043  1645.51113076
0.39400002 23130.53240970  1918.67775429
0.39500002 23063.47947167  1506.96782008
0.39600002 23002.65782476  1643.77000604
0.39700002 22947.21807554  1643.93878082
0.39800002 22898.84363999  2055.74378518
0.39900002 22854.88694753  1371.29328182
0.40000002 22817.02718567  1646.93310029
0.40100002 22784.21724805  1786.05487470
0.40200002 22757.24826043  1513.24329477
0.40300002 22735.16238293  1653.30108682
0.40400002 22718.39960520  1518.15712555
0.40500002 22705.93128015  1521.07040853
0.40600002 22699.41234607  1385.79918939
0.40700002 22696.94236582  1527.95823246
0.40800002 22698.98826761  1810.35789506
0.40900002 22705.37376321  1675.65666312
0.41000002 22716.69771660  1540.53292864
0.41100002 22732.03635466  1404.83991328
0.41200002 22750.56348721  1691.27696978
0.41300002 22774.55242607  1697.15972721
0.41400002 22801.56654800  1987.15661882
0.41500002 22832.32477204  1994.63198660
0.41600002 22865.74838851  1716.30315537
0.41700002 22904.23891714  1866.92460260
0.41800002 22946.43739415  2163.27548784
0.41900002 22989.95916183  2027.71449416
0.42000002 23037.27089128  2036.72521601
0.42100002 23088.33276461  2192.23729988
0.42200002 23141.82021337  1908.85313075
0.42300002 23197.64682093  1770.44448927
0.42400002 23256.05629347  1927.34575665
0.42500002 23317.64482446  1936.99684735
0.42600002 23380.22145762  1946.75423192
0.42700002 23446.25719609  2107.34969664
0.42800002 23513.58440701  2420.95876527
0.42900002 23583.96140104  1825.39869894
0.43000002 23655.97484946  2294.03826973
0.43100002 23728.19935683  1691.34613030
0.43200002 23803.29099455  2164.43335270
0.43300002 23879.26157397  2176.35600299
0.43400002 23957.11880035  2188.48290612
0.43500002 24035.52677384  2357.88528825
0.43600002 24115.92797501  2055.03889978
0.43700002 24196.58928137  1748.68759023
0.43800002 24277.75007967  1758.55891036
0.43900002 24360.66350880  1607.80386777
0.44000002 24443.55125656  2587.10558760
0.44100002 24527.34634139  2114.01208135
0.44200002 24611.36615444  2289.59550185
0.44300002 24695.93104542  2302.64871980
0.44400002 24780.44734181  1654.09493845
0.44500002 24864.62415428  1996.13212170
0.44600002 24948.73975693  1840.09438798
0.44700002 25033.76921811  2018.72324542
0.44800002 25117.38546405  2199.15278853
0.44900002 25201.39382988  1701.09416414
0.45000002 25285.28007509  2052.65913378
0.45100002 25367.73750389  1719.93268428
0.45200002 25450.08798723  2421.06698497
0.45300002 25531.17544119  2608.00969492
0.45400002 25611.85499573  2097.61102356
0.45500002 25691.90225337  1933.05881716
0.45600002 25770.33917767  2296.52388466
0.45700002 25848.25705318  1775.77534371
0.45800002 25924.48442621  1963.39092107
0.45900002 25999.42058316  3229.12818947
0.46000002 26073.59538930  2163.58704795
0.46100002 26145.35557357  1993.06054983
0.46200002 26216.42831507  2184.87723933
0.46300002 26285.87227459  2561.29551583
0.46400002 26353.04183127  3124.81208324
0.46500002 26419.64420831  2031.40653946
0.46600002 26483.39625040  2782.74299290
0.46700002 26545.26648261  2049.82557494
0.46800002 26606.11594868  2058.91438027
0.46900002 26664.03067548  1879.81425172
0.47000002 26720.18389326  2642.89351415
0.47100002 26774.51899242  2653.89044831
0.47200002 26826.76099624  2284.03053948
0.47300002 26876.79559591  2293.12830893
0.47400002 26923.77171659  1918.31882573
0.47500002 26969.05168784  2695.82653449
0.47600002 27012.58107872  1932.75026779
0.47700002 27052.58785999  2133.63770565
