# SAXS profile: number of points = 501, q_min = 0, q_max = 0.5, delta_q = 0.001
#    q    intensity    error
0.00000000 1682732.95097188 252.40994265
0.00100000 1682650.47679855 656.23370154
0.00200000 1682402.97952775 1135.62204714
0.00300000 1681990.70609123 1513.79168941
0.00400000 1681413.50115575 1639.37822592
0.00500000 1680671.89450774 2722.68857687
0.00600000 1679765.77569668 2116.50496355
0.00700000 1678695.73503368 2417.32195891
0.00800000 1677461.57635900 4529.14644739
0.00900000 1676064.55733004 2765.50663781
0.01000000 1674504.03894297 3591.81131863
0.01100000 1672781.30294607 4215.40906696
0.01200000 1670896.28427767 3584.07268691
0.01300000 1668850.16011039 3855.04403988
0.01400000 1666643.01105499 4874.93102345
0.01500000 1664276.04758401 6390.82030730
0.01600000 1661748.94432335 5084.95199694
0.01700000 1659063.85181238 6271.26164117
0.01800000 1656220.62568020 5664.27479470
0.01900000 1653220.19079416 4959.66079618
0.02000000 1650063.46655620 7276.78021668
0.02100000 1646752.64372936 8151.42595603
0.02200000 1643286.23063042 9637.87418052
0.02300000 1639667.43613052 7673.64395038
0.02400000 1635895.89452895 8588.45383789
0.02500000 1631974.05897006 8274.10885686
0.02600000 1627902.02137838 9889.50523220
0.02700000 1623681.87544167 8183.35702703
0.02800000 1619313.38542479 9157.21761452
0.02900000 1614799.29369189 7993.25687078
0.03000000 1610140.86811480 8235.87091897
0.03100000 1605338.53507875 9246.75038753
0.03200000 1600393.73702129 11090.72910838
0.03300000 1595309.99820159 12204.12204886
0.03400000 1590085.87140685 10017.54145208
0.03500000 1584724.27089807 11124.76489542
0.03600000 1579226.92683433 8764.70984898
0.03700000 1573595.19380919 9866.44232148
0.03800000 1567830.76859033 11923.35354694
0.03900000 1561935.94668071 10308.77772549
0.04000000 1555910.13211637 10525.73253152
0.04100000 1549757.87784901 10739.82259146
0.04200000 1543479.65197629 12942.07748224
0.04300000 1537076.31333575 14202.58579448
0.04400000 1530551.72488465 12397.46954733
0.04500000 1523907.17831374 12617.95202273
0.04600000 1517142.68434556 13904.61334841
0.04700000 1510262.26969828 15223.44438657
0.04800000 1503266.67404401 15468.61479564
0.04900000 1496159.61045989 13465.43712092
0.05000000 1488940.68916642 12529.43648278
0.05100000 1481614.57181019 15023.57245801
0.05200000 1474179.35830769 14063.67173364
0.05300000 1466641.23781704 21383.63024423
0.05400000 1459000.12147853 12036.75156352
0.05500000 1451258.87465632 17066.80516211
0.05600000 1443418.22022685 14809.47163060
0.05700000 1435483.44724561 14986.44788879
0.05800000 1427453.42881887 12632.96343491
0.05900000 1419331.04347231 16606.17398423
0.06000000 1411119.86067049 18076.44625970
0.06100000 1402821.27999719 13046.23851364
0.06200000 1394437.55923753 22401.64043628
0.06300000 1385971.72509969 13305.32918305
0.06400000 1377422.69968044 14772.85914495
0.06500000 1368797.04695478 13551.09139874
0.06600000 1360095.05900491 17769.64277731
0.06700000 1351318.52628408 22053.51938104
0.06800000 1342470.99249512 16673.49050726
0.06900000 1333554.45349910 15402.55465905
0.07000000 1324570.41154204 15517.34309787
0.07100000 1315521.27176073 21311.44560070
0.07200000 1306409.79395590 15735.70670537
0.07300000 1297239.16886291 24478.90426342
0.07400000 1288010.88657566 17388.14778365
0.07500000 1278726.82966618 17492.98384977
0.07600000 1269388.36174573 16127.57989205
0.07700000 1260000.81001912 17690.41220215
0.07800000 1250564.35221725 20746.86357623
0.07900000 1241081.07093972 17871.56825978
0.08000000 1231555.18684179 16459.73584428
0.08100000 1221987.49082182 16533.49152654
0.08200000 1212379.88542004 16603.54330995
0.08300000 1202735.83269349 16669.91942348
0.08400000 1193057.03492456 15211.47790929
0.08500000 1183345.87688245 18318.19503409
0.08600000 1173604.57520911 16847.09446812
0.08700000 1163836.41144272 16898.90548768
0.08800000 1154041.21853845 16947.09609014
0.08900000 1144224.46706392 18536.43723709
0.09000000 1134385.49793575 18581.23532905
0.09100000 1124527.84578069 24829.57600136
0.09200000 1114653.19478260 20214.23663718
0.09300000 1104766.40011132 15577.20697358
0.09400000 1094864.20250828 26523.08655228
0.09500000 1084952.62511277 17185.65038956
0.09600000 1075032.89603011 21898.42112153
0.09700000 1065109.37914874 18788.53033148
0.09800000 1055181.54470159 18803.33601067
0.09900000 1045252.47552701 18814.54544419
0.10000000 1035323.07353145 15685.14530163
0.10100000 1025395.56091565 21963.97394782
0.10200000 1015473.42844847 26671.41085272
0.10300000 1005557.14151090 23530.03821823
0.10400000 995650.37603925 18817.79299243
0.10500000 985755.42477597 21942.91678791
0.10600001 975869.79974604 28192.87984124
0.10700001 966000.97672980 17214.13821538
0.10800001 956147.55647805 23449.51992620
0.10900001 946313.18209095 17175.58506333
0.11000001 936497.93307923 18711.22958365
0.11100001 926704.72340047 15568.64008600
0.11200001 916935.09344864 18650.46067876
0.11300001 907190.66208374 17064.25715719
0.11400001 897473.82865029 17029.56670047
0.11500001 887786.38038304 20081.72886987
0.11600001 878129.11238479 18493.39997771
0.11700001 868504.86011837 19984.29777248
0.11800001 858912.92983593 19931.07547556
0.11900001 849356.13521719 18346.09338482
0.12000001 839835.74578491 21340.22730562
0.12100001 830356.28155120 15195.52066822
0.12200001 820915.30997865 24233.42109224
0.12300001 811517.06851403 15094.21818552
0.12400001 802160.25141490 21056.70759178
0.12500001 792847.62989131 20978.74927545
0.12600001 783582.11898877 16419.96407718
0.12700001 774363.15408550 20814.88256275
0.12800001 765192.04696013 16287.11348715
0.12900001 756071.00550978 14743.38530233
0.13000001 747001.41105223 20550.00978667
0.13100001 737982.64046079 16073.26266689
0.13200001 729017.93368495 18907.08100141
0.13300001 720107.76412350 21711.25011186
0.13400001 711252.33493977 20164.00464619
0.13500001 702454.46511108 18629.09329307
0.13600001 693714.18853260 15681.40997117
0.13700001 685032.82811436 21270.27031591
0.13800001 676409.58237181 15513.45450325
0.13900001 667848.41277641 16829.78079563
0.14000001 659347.84374457 22312.33208458
0.14100001 650910.84609516 19410.16234600
0.14200001 642536.43232405 16538.88854808
0.14300001 634227.25590460 19179.03312318
0.14400001 625980.01484432 16338.07915810
0.14500001 617801.12169036 21647.75232520
0.14600001 609687.71071062 17476.69905197
0.14700001 601642.75993978 16027.76388093
0.14800001 593663.01927539 14595.20601747
0.14900001 585752.92792551 14497.38565015
0.15000001 577910.88808095 15707.61867917
0.15100001 570138.70850540 18198.82843420
0.15200001 562437.39578389 14198.73272656
0.15300001 554806.48866088 14097.63354213
0.15400001 547244.66037571 15268.12674500
0.15500001 539755.96479733 17682.40624125
0.15600001 532337.01708972 16297.49854736
0.15700001 524993.25497126 12442.34073006
0.15800001 517718.54690889 14817.10551188
0.15900001 510518.87038599 12252.45346759
0.16000001 503389.97716009 13372.55537447
0.16100001 496336.62252981 14473.17659616
0.16200001 489356.02564212 15554.18200929
0.16300001 482448.91549289 15428.71704582
0.16400001 475616.02810167 18834.39560199
0.16500001 468856.21084373 15176.87626153
0.16600001 462171.39803506 15050.61228760
0.16700001 455559.43313250 12628.10808267
0.16800001 449022.12043193 13659.25354848
0.16900001 442560.23418903 13542.34380563
0.17000001 436171.07707332 13425.34638626
0.17100001 429856.42517853 13308.35555197
0.17200001 423615.88402798 10992.83270964
0.17300001 417449.32909100 13074.51360457
0.17400001 411357.43928643 10798.13329122
0.17500001 405338.21326548 12841.11520271
0.17600001 399391.65509103 12724.61873217
0.17700001 393521.27870999 11557.72050159
0.17800001 387722.32864539 10410.34501583
0.17900001 381995.99684513 12376.67088238
0.18000001 376344.10471091 13283.06580320
0.18100001 370764.73195260 13158.44095856
0.18200001 365255.78373787 14036.78043211
0.18300001 359819.58949750 10924.12325319
0.18400001 354454.66937010 10819.72929365
0.18500001 349161.70525565 10715.77324053
0.18600001 343939.68920740 14471.26310707
0.18700001 338787.58051326 10509.19124403
0.18800001 333704.31419106 11352.62130515
0.18900001 328694.14773805 10304.56201845
0.19000001 323749.12199447 12985.57789675
0.19100001 318875.85611560 11020.35010807
0.19200001 314069.00846318 11819.98769202
0.19300001 309332.28844656 11702.04102489
0.19400001 304661.06909435 9802.47036132
0.19500001 300057.33421836 10586.02325147
0.19600001 295518.99147995 12225.62125526
0.19700001 291048.30907839 8644.13518813
0.19800001 286641.68228771 17112.50924129
0.19900001 282300.29006281 10162.81092256
0.20000001 278021.56360128 10897.05570036
0.20100001 273807.98326470 9955.65874203
0.20200001 269656.20529249 9032.13502316
0.20300001 265567.24332500 9751.62963580
0.20400001 261540.46120250 11259.31738695
0.20500001 257573.99420943 8754.94047700
0.20600001 253667.99710224 8664.03085056
0.20700001 249822.09107242 10912.22945385
0.20800001 246034.97295839 10798.47547359
0.20900001 242308.67644555 8395.99603573
0.21000001 238637.42106772 7552.87473384
0.21100001 235024.87485367 8221.17051102
0.21200001 231467.90152589 7395.39980337
0.21300001 227966.75860087 8781.27995645
0.21400001 224521.29658862 7964.89337303
0.21500001 221131.45380324 7881.12538615
0.21600001 217793.72300348 8507.02322272
0.21700001 214510.04241291 9118.82233411
0.21800001 211278.84578660 10410.76561836
0.21900001 208098.49258932 8927.42575418
0.22000001 204968.76790816 11551.01546163
0.22100001 201890.99664588 7395.26755681
0.22200001 198862.54066103 9312.73321950
0.22300001 195882.46737929 7239.81633668
0.22400001 192950.13572467 9116.89434410
0.22500001 190067.56727212 7731.94900225
0.22600001 187229.90150832 8287.73198218
0.22700001 184439.48758147 6938.61385094
0.22800001 181693.77699264 6241.18153484
0.22900001 178992.71837262 6792.77398348
0.23000001 176336.20773620 6721.05487572
0.23100001 173724.14887434 8463.84093344
0.23200001 171153.10634625 8374.52188958
0.23300001 168625.38278120 7102.50145865
0.23400001 166137.93348699 5856.36243239
0.23500001 163690.99102453 8112.52589887
0.23600001 161284.54818314 6307.03255501
0.23700001 158917.59914392 6240.69441355
0.23800001 156588.93211978 6175.08483022
0.23900001 154298.51792926 5554.74690819
0.24000001 152044.89687483 5496.42328201
0.24100001 149829.10951377 6526.55631913
0.24200001 147649.37537603 8072.72998054
0.24300001 145504.41865337 6923.10056701
0.24400001 143394.33602056 6323.69051764
0.24500001 141318.06070354 7821.95502995
0.24600001 139275.61499657 7224.22649162
0.24700001 137266.66374014 6638.21617250
0.24800001 135289.74828422 6568.99403870
0.24900001 133343.52053297 5500.42048220
0.25000001 131429.65017233 5443.15921939
0.25100001 129545.63707540 6855.55543836
0.25200001 127693.40285790 6299.75432803
0.25300001 125869.03674452 5275.17157953
0.25400001 124074.47705352 5220.43386901
0.25500001 122306.72129319 5635.89398384
0.25600001 120568.38481570 5112.70260001
0.25700001 118856.11972946 5059.70525627
0.25800001 117170.78954840 7283.33662293
0.25900001 115512.66749375 5405.99309449
0.26000001 113879.33081340 5350.05121475
0.26100001 112270.76221457 6618.36174570
0.26200001 110688.23240223 5239.98116986
0.26300001 109128.65603397 4321.49498343
0.26400001 107593.65834419 5559.90255802
0.26500001 106081.81217505 5502.46385789
0.26600001 104592.58830405 4607.82669578
0.26700001 103125.98181183 6218.49699751
0.26800001 101681.68608644 4923.42747329
0.26900001 100258.04704481 5278.58642670
0.27000001 98856.21398948  6429.60846214
0.27100001 97474.79773651  3976.97193585
0.27200001 96114.45279362  4723.06443379
0.27300001 94773.59515153  4674.23393408
0.27400001 93451.09990825  4625.82966437
0.27500001 92149.75915533  4578.00025149
0.27600001 90864.96769520  3775.43958641
0.27700001 89600.76693724  3736.35215811
0.27800001 88353.27584231  5176.61867660
0.27900001 87124.17194350  5122.90155273
0.28000001 85911.92353305  5431.78162245
0.28100001 84717.08062614  4300.23921611
0.28200001 83539.49112814  4255.50187948
0.28300001 82378.24027395  5263.96980265
0.28400001 81232.41973352  4167.22332957
0.28500001 80103.20068989  5498.28395560
0.28600001 78989.27896586  5100.73293065
0.28700001 77891.48832028  3364.91245471
0.28800001 76807.22450819  3995.51200804
0.28900001 75739.64392015  3953.60959977
0.29000001 74685.63973131  3912.03399430
0.29100001 73646.69238696  3225.72527924
0.29200001 72621.41310412  3191.71125701
0.29300001 71610.32210561  4737.02303152
0.29400001 70612.19919331  3437.04895843
0.29500001 69628.95683772  4328.13616191
0.29600001 68657.61958520  3364.56680704
0.29700001 67699.84169966  3631.41968067
0.29800001 66755.32761887  2993.97658544
0.29900001 65823.86065520  3258.28125668
0.30000001 64903.80987235  4102.57001625
0.30100001 63997.33051687  3768.80297255
0.30200001 63102.01320521  3441.58396314
0.30300001 62219.56064507  3120.93330971
0.30400001 61348.88577783  5332.75214870
0.30500001 60490.37912433  3054.15938658
0.30600001 59642.26649868  3845.13710321
0.30700001 58806.63685811  2988.55342662
0.30800001 57982.10405031  3224.96477996
0.30900001 57168.96481578  3190.02838775
0.31000001 56367.08942760  3418.38230018
0.31100001 55575.59511164  2861.03177180
0.31200001 54795.97566832  2572.67117943
0.31300001 54026.39505895  3053.57199331
0.31400001 53268.90237321  2768.65133193
0.31500001 52520.39305263  3236.30677313
0.31600002 51784.00913835  3201.02867645
0.31700002 51057.17036179  3166.05528404
0.31800002 50340.57404527  2890.55589854
0.31900002 49634.93327456  3573.71536498
0.32000002 48939.65966271  3063.37814164
0.32100002 48253.99168829  3496.00186335
0.32200002 47579.49204448  2766.27179845
0.32300002 46913.36623648  3875.98250199
0.32400002 46258.61294620  2931.63973428
0.32500002 45613.11041729  3122.67368703
0.32600002 44977.68405211  2647.38660867
0.32700002 44352.30910865  3273.20056721
0.32800002 43737.52489811  3021.82573830
0.32900002 43130.46854429  2988.94161166
0.33000002 42534.55942363  2956.57736554
0.33100002 41947.07505414  2506.75732394
0.33200002 41370.69733406  2686.40635860
0.33300002 40803.11329657  2861.93050215
0.33400002 40245.56620344  2831.27571649
0.33500002 39697.28008207  2400.89161306
0.33600002 39157.85077601  2573.25828561
0.33700002 38627.91316868  3329.33999368
0.33800002 38108.22941835  2131.58391346
0.33900002 37596.90971317  2684.41948065
0.34000002 37094.96946741  2087.14855593
0.34100002 36602.63297321  2065.48667650
0.34200002 36120.10952503  1858.37972307
0.34300002 35645.84913068  2391.12367293
0.34400002 35181.60280944  2002.71283478
0.34500002 34725.99262497  2703.41865389
0.34600002 34280.26340232  1962.71657405
0.34700002 33842.23963496  1766.56499261
0.34800002 33414.28329014  2274.00915701
0.34900002 32994.70021189  1905.44402748
0.35000002 32584.50326196  1887.13159579
0.35100002 32183.95130396  2548.96906400
0.35200002 31790.67024206  2019.97928285
0.35300002 31407.60088174  1667.74368581
0.35400002 31032.51026161  1817.72937467
0.35500002 30666.78685150  2128.88844406
0.35600002 30309.25432843  1947.67277540
0.35700002 29960.52519016  1769.76830681
0.35800002 29620.66451510  2073.59471760
0.35900002 29289.88766205  1581.65400867
0.36000002 28967.35358239  1725.44049786
0.36100002 28652.81646709  2022.60241022
0.36200002 28348.27081302  2315.34512832
0.36300002 28050.64010328  2144.19103106
0.36400002 27762.15668279  1519.97815038
0.36500002 27481.03898611  2413.93457888
0.36600002 27209.22199268  1797.44128998
0.36700002 26945.01171409  1933.57413219
0.36800002 26689.82349245  1625.00998031
0.36900002 26442.54439193  2054.58579658
0.37000002 26202.55331750  1895.62380955
0.37100002 25970.67274952  1738.99632968
0.37200002 25747.32345775  2160.84422355
0.37300002 25531.57889166  2291.71462988
0.37400002 25323.56363772  1566.89557431
0.37500002 25123.33780242  1983.73884685
0.37600002 24931.03994185  1832.80548815
0.37700002 24746.11167897  1683.72551840
0.37800002 24568.73298801  2095.09880480
0.37900002 24399.48477124  1668.92483741
0.38000002 24236.89349587  1800.68008758
0.38100002 24080.97058374  1517.82364780
0.38200002 23933.47893409  1787.47195887
0.38300002 23792.41238059  1507.48731985
0.38400002 23658.65343684  1639.54476084
0.38500002 23531.31084427  1907.44814740
0.38600002 23411.87895116  1359.05963750
0.38700002 23298.30264116  1491.55740575
0.38800002 23191.50852979  1759.19196287
0.38900002 23091.32059184  1891.17924607
0.39000002 22998.19699282  1483.72874928
0.39100002 22910.69445426  1481.86378751
0.39200002 22830.24070264  1615.01130382
0.39300002 22755.29860378  1613.80585344
0.39400002 22687.75231465  1747.52420483
0.39500002 22624.98913303  1478.31685999
0.39600002 22568.32020060  2419.09835691
0.39700002 22516.91980076  1344.26017579
0.39800002 22472.41789587  1344.97427479
0.39900002 22432.34919772  1480.53511720
0.40000002 22398.31162194  2694.51701578
0.40100002 22369.22043982  1888.40967900
0.40200002 22345.90425493  1350.80997621
0.40300002 22327.42673059  1623.65054878
0.40400002 22314.09287106  1491.13932676
0.40500002 22305.05781116  1630.05370207
0.40600002 22301.88551509  1497.68319273
0.40700002 22302.76855008  1637.91539992
0.40800002 22308.10067803  1779.18265388
0.40900002 22317.63402090  1509.78801305
0.41000002 22332.09669204  2340.51550471
0.41100002 22350.50245587  1933.76556411
0.41200002 22372.05302858  2217.51800126
0.41300002 22399.05446566  1947.37388752
0.41400002 22429.05171997  1815.07109644
0.41500002 22462.72238769  1401.67394341
0.41600002 22499.15391634  1970.25100181
0.41700002 22540.40298598  1695.94000103
0.41800002 22585.41700753  1419.49352618
0.41900002 22631.70843224  1425.79769879
0.42000002 22681.78439255  2148.53212839
0.42100002 22735.52470032  2302.65405076
0.42200002 22791.72603683  2024.58911979
0.42300002 22850.19744964  1743.92715199
0.42400002 22911.29559369  1460.59516331
0.42500002 22975.46954925  2055.38560327
0.42600002 23040.62110373  2361.20296260
0.42700002 23109.32313744  1631.98047730
0.42800002 23179.24983776  1939.06023706
0.42900002 23252.11009064  1799.71340630
0.43000002 23326.62464264  1508.06635461
0.43100002 23401.39165851  1668.05127646
0.43200002 23479.10950940  2287.45235235
0.43300002 23557.50689690  1993.67190316
0.43400002 23637.90133169  1850.84776198
0.43500002 23718.85482442  1706.33449693
0.43600002 23801.74555230  1872.24539387
0.43700002 23884.90658766  1569.23843717
0.43800002 23968.53845535  2367.49249812
0.43900002 24053.99624432  2063.83297557
0.44000002 24139.35229018  1916.18187560
0.44100002 24225.74261669  2409.25021740
0.44200002 24312.33806146  1938.66592889
0.44300002 24399.42939709  1625.00207486
0.44400002 24486.49111452  2451.71003903
0.44500002 24573.14922915  1808.33813747
0.44600002 24659.90814103  1653.44691921
0.44700002 24747.46814200  1663.02993796
0.44800002 24833.73385330  2174.31767057
0.44900002 24920.37795257  1850.33815067
0.45000002 25006.87323442  2537.57258172
0.45100002 25091.84170477  2892.08581195
0.45200002 25176.86884887  2223.99881517
0.45300002 25260.62198542  2752.39750198
0.45400002 25343.95326722  2594.58733870
0.45500002 25426.71248431  1913.10593799
0.45600002 25507.89993134  1748.56662316
0.45700002 25588.50577191  1933.72347283
0.45800002 25667.45687184  2650.80673407
0.45900002 25745.21522404  2131.70392158
0.46000002 25822.19535054  2499.84685036
0.46100002 25896.88636377  1974.11974107
0.46200002 25970.73175466  2164.40088702
0.46300002 26043.05357934  2537.63526104
0.46400002 26113.07715474  1821.38721787
0.46500002 26182.58093370  2013.17874341
0.46600002 26249.26386995  2206.51322549
0.46700002 26314.16390047  2401.43071137
0.46800002 26377.93345833  2041.25647742
0.46900002 26438.84628057  2236.72650135
0.47000002 26498.10911367  2433.71894690
0.47100002 26555.48212126  2632.17951262
0.47200002 26610.80864865  2265.64435573
0.47300002 26663.83872123  2654.11863211
0.47400002 26713.97894098  2664.71952566
0.47500002 26762.43178039  2293.00526363
0.47600002 26809.17348117  2110.01609885
0.47700002 26852.33546391  1925.31254402
