# SAXS profile: number of points = 501, q_min = 0, q_max = 0.5, delta_q = 0.001
#    q    intensity    error
0.00000000 1700912.83420644 331.67800267
0.00100000 1700829.90108961 612.29877893
0.00200000 1700581.03503453 918.31378800
0.00300000 1700166.47271003 1530.14987995
0.00400000 1699586.05802266 2166.97230632
0.00500000 1698840.34976508 1681.85201284
0.00600000 1697929.20302603 2317.67345649
0.00700000 1696853.21640131 2239.84633874
0.00800000 1695612.19942189 2746.89187904
0.00900000 1694207.42072964 2541.31123973
0.01000000 1692638.21275385 3351.42380597
0.01100000 1690905.91929204 3652.35694469
0.01200000 1689010.39054906 3952.28448717
0.01300000 1686952.87079129 4251.12142189
0.01400000 1684733.42145545 4169.71540295
0.01500000 1682353.25794042 5652.70719839
0.01600000 1679812.02736955 4283.52086128
0.01700000 1677111.93845010 5433.84292433
0.01800000 1674252.84403601 4771.62082021
0.01900000 1671235.60581205 5515.07774803
0.02000000 1668061.17365319 5779.83222816
0.02100000 1664731.77810329 5493.61511681
0.02200000 1661245.90582702 6877.55836259
0.02300000 1657606.76738047 8354.33848787
0.02400000 1653814.01531852 7442.16340828
0.02500000 1649870.10429017 7077.94307066
0.02600000 1645775.07194941 8665.00615014
0.02700000 1641531.00274245 7583.87358002
0.02800000 1637137.80364578 9258.01470419
0.02900000 1632598.14946308 8816.03041188
0.03000000 1627913.26197525 12111.67522581
0.03100000 1623083.60367898 10128.04215298
0.03200000 1618110.67237218 11213.50747601
0.03300000 1612997.95968072 9048.91897097
0.03400000 1607743.86771042 8440.65569493
0.03500000 1602351.60627010 12113.77870279
0.03600000 1596822.68837291 10634.83959604
0.03700000 1591158.58438041 9069.60435042
0.03800000 1585360.96907173 11129.23451794
0.03900000 1579432.11815146 9476.59314777
0.04000000 1573371.44413387 11611.48179577
0.04100000 1567183.48100916 12835.23330459
0.04200000 1560868.77762982 13087.88530761
0.04300000 1554428.21277270 11285.14934856
0.04400000 1547865.52774117 14627.32991648
0.04500000 1541182.07188775 13824.40382718
0.04600000 1534377.85351044 11899.10080713
0.04700000 1527457.03823902 10997.69118680
0.04800000 1520420.09394918 13410.10585258
0.04900000 1513271.12341585 19294.20772165
0.05000000 1506009.40359173 18433.55595834
0.05100000 1498639.74422131 16365.14676925
0.05200000 1491160.20899630 15411.14147816
0.05300000 1483577.06872815 13218.67229859
0.05400000 1475890.13645121 19481.75070967
0.05500000 1468102.26863813 13565.26559503
0.05600000 1460214.44328627 16230.28429450
0.05700000 1452231.70097551 16424.74130472
0.05800000 1444152.88892728 14058.82903015
0.05900000 1435981.14027886 12923.83086613
0.06000000 1427719.82118682 19595.45546127
0.06100000 1419370.41925923 15840.17461917
0.06200000 1410935.20601541 13333.33832009
0.06300000 1402417.04304315 13463.20424269
0.06400000 1393815.24644849 14948.66921726
0.06500000 1385136.04646360 20569.27125217
0.06600000 1376379.69872571 19365.66326716
0.06700000 1367548.51501195 16738.79460710
0.06800000 1358645.30862179 21092.96940370
0.06900000 1349672.68990551 14171.56390751
0.07000000 1340631.63607628 17133.27311138
0.07100000 1331525.15512294 14380.47234888
0.07200000 1322355.61294086 14479.79464003
0.07300000 1313126.22608981 17490.84215106
0.07400000 1303838.71021637 16135.00479508
0.07500000 1294494.84217668 17708.69027103
0.07600000 1285095.81543877 20780.00030982
0.07700000 1275647.34935062 17910.08962466
0.07800000 1266149.19501609 22505.80299685
0.07900000 1256603.76515873 18095.09506701
0.08000000 1247014.95202084 18181.47885338
0.08100000 1237384.24824667 16741.80966427
0.08200000 1227712.71329927 25984.54079631
0.08300000 1218004.22838041 16881.53939764
0.08400000 1208260.67288227 16945.85673259
0.08500000 1198483.97051990 17006.48834005
0.08600000 1188676.72822361 21717.12484430
0.08700000 1178842.34099455 20228.93552137
0.08800000 1168980.28263361 15605.88750607
0.08900000 1159095.93770312 15647.79589396
0.09000000 1149189.22309905 18823.72035862
0.09100000 1139263.22445794 20438.38320699
0.09200000 1129319.81771004 20480.21585647
0.09300000 1119363.73693375 15783.02943244
0.09400000 1109391.86264412 18970.60174278
0.09500000 1099410.12608806 20580.95852773
0.09600000 1089419.91281132 15851.06047653
0.09700000 1079425.54782257 19041.06755876
0.09800000 1069426.37870266 17469.08071746
0.09900000 1059425.50132202 25426.21322733
0.10000000 1049424.10523357 22258.28631875
0.10100000 1039424.05401751 17493.50765187
0.10200000 1029428.95471945 22266.54933792
0.10300000 1019439.42871482 19083.90700326
0.10400000 1009459.02726756 17488.87847018
0.10500000 999490.34657744 20659.46643577
0.10600001 989530.27381753 30175.72711994
0.10700001 979587.04550348 17456.24197232
0.10800001 969658.60677555 20610.09465696
0.10900001 959748.97009051 17419.44462700
0.11000001 949858.33738795 22141.19888669
0.11100001 939989.50656810 15791.82445372
0.11200001 930143.75303358 18919.12482736
0.11300001 920323.02237605 22032.53419299
0.11400001 910529.62405543 17277.30042994
0.11500001 900765.37507432 17240.65009075
0.11600001 891030.85798492 17201.35152344
0.11700001 881329.47390656 17159.48566509
0.11800001 871659.89097649 24894.60765878
0.11900001 862025.39209796 24826.33246178
0.12000001 852427.03171155 18565.86162522
0.12100001 842869.45905254 16966.96301001
0.12200001 833349.93493706 16912.83772633
0.12300001 823873.44633306 21453.66555329
0.12400001 814437.94305433 22906.06822768
0.12500001 805046.40723215 18258.45337637
0.12600001 795701.92305681 18189.74681824
0.12700001 786403.74151037 15098.95254856
0.12800001 777153.36470902 18045.50197901
0.12900001 767953.08293858 23960.13731697
0.13000001 758803.79415473 17892.59430953
0.13100001 749705.34092440 22266.24967503
0.13200001 740661.06089864 17731.42663378
0.13300001 731671.13575590 19118.56767861
0.13400001 722735.65916723 19026.01712457
0.13500001 713857.83595449 14562.70054008
0.13600001 705037.67150048 21732.78724872
0.13700001 696276.16465649 21619.37593201
0.13800001 687572.51912381 15769.47646973
0.13900001 678931.38961312 17109.07182508
0.14000001 670350.62389363 17013.49963679
0.14100001 661833.44862354 15506.75843259
0.14200001 653378.76029203 14014.97506928
0.14300001 644989.47084915 19504.48251846
0.14400001 636661.82077124 22155.83240793
0.14500001 628402.86907927 17890.63052663
0.14600001 620209.17607959 20513.41946654
0.14700001 612084.08036995 16305.92067031
0.14800001 604024.45840494 22949.91037984
0.14900001 596034.03505702 14751.84306367
0.15000001 588111.99481589 14652.81104220
0.15100001 580259.92629500 19844.89041567
0.15200001 572478.80764069 17079.90603191
0.15300001 564768.20393187 20873.83380234
0.15400001 557126.46694270 14248.51006446
0.15500001 549558.26995898 14145.63053632
0.15600001 542059.71914195 15318.60838591
0.15700001 534636.54171728 12670.88663673
0.15800001 527282.59765691 17605.96676674
0.15900001 520003.76269191 12480.09089367
0.16000001 512795.84608387 17337.62837447
0.16100001 505663.53247463 17202.67418683
0.16200001 498604.20080254 12190.87328511
0.16300001 491618.36769296 13303.19365779
0.16400001 484707.15514573 11996.50265621
0.16500001 477869.16573549 16658.51990401
0.16600001 471106.37105853 11801.21515219
0.16700001 464416.40583331 14043.95277548
0.16800001 457801.29515187 23210.52676012
0.16900001 451261.98564190 16110.05364810
0.17000001 444795.47440627 15972.60624015
0.17100001 438403.92389302 12441.90394761
0.17200001 432086.36621717 13455.17007939
0.17300001 425843.35315060 14448.86565474
0.17400001 419674.92247293 14321.40740573
0.17500001 413579.54547039 12010.35056768
0.17600001 407557.02919548 10820.63963619
0.17700001 401611.05944992 11795.31737314
0.17800001 395736.68486984 13813.18963781
0.17900001 389935.03139238 11581.07097937
0.18000001 384208.39376147 15646.88757502
0.18100001 378554.59502771 14468.35730539
0.18200001 372971.01587563 13309.47133023
0.18300001 367460.90170260 14198.68991252
0.18400001 362022.15835455 12055.33844271
0.18500001 356655.80712013 10945.76723762
0.18600001 351360.68773678 10841.23453230
0.18700001 346135.55699508 11713.22780210
0.18800001 340979.68869267 13533.48448362
0.18900001 335897.43377224 11487.69277778
0.19000001 330880.49815711 14219.59008016
0.19100001 325935.73288217 10325.64450559
0.19200001 321057.63015875 11153.54259873
0.19300001 316249.97127699 15644.88681833
0.19400001 311508.23928678 10022.77807267
0.19500001 306834.48066739 14433.49465265
0.19600001 302226.05365402 12503.09243052
0.19700001 297686.02819288 12377.78563720
0.19800001 293210.39363626 13128.49599550
0.19900001 288800.12333701 11263.20534244
0.20000001 284453.01274824 9433.88461365
0.20100001 280171.56332872 12733.79815512
0.20200001 275952.12618584 9243.01690345
0.20300001 271795.99280542 10812.04510483
0.20400001 267702.15370458 8231.84161550
0.20500001 263669.35355864 13035.81345610
0.20600001 259697.23992953 9676.31961715
0.20700001 255785.69145925 11970.77092614
0.20800001 251933.33857274 8687.92159136
0.20900001 248142.13265289 8598.12530287
0.21000001 244406.38522125 12376.73993268
0.21100001 240729.95406445 10717.29806159
0.21200001 237109.20078203 9848.33112006
0.21300001 233544.96502157 9745.83185109
0.21400001 230036.74749776 9644.29109479
0.21500001 226584.48037293 7341.33751116
0.21600001 223184.91336897 7991.13620099
0.21700001 219839.72264912 10783.13890576
0.21800001 216547.45935468 8536.30125136
0.21900001 213306.30017787 10558.66235803
0.22000001 210116.48064741 7661.89782908
0.22100001 206978.91373226 8960.11759914
0.22200001 203891.16938502 9548.22391378
0.22300001 200852.25430090 6748.63606362
0.22400001 197861.35702229 11352.29589596
0.22500001 194920.91467266 9250.94704782
0.22600001 192025.71395860 11115.40897812
0.22700001 189178.30310185 7763.87792645
0.22800001 186375.87607159 7042.21281039
0.22900001 183618.72450437 8235.30018348
0.23000001 180906.41570970 6895.24836086
0.23100001 178239.16391572 7443.26783713
0.23200001 175613.38578375 6751.45693576
0.23300001 173031.31888697 10324.77928629
0.23400001 170489.83569470 7812.69709021
0.23500001 167989.56759632 7136.19716901
0.23600001 165530.30683165 5884.60268619
0.23700001 163110.75122166 6405.35950343
0.23800001 160730.02263307 8067.04021751
0.23900001 158388.04347477 6272.16681827
0.24000001 156083.29884129 7899.37612800
0.24100001 153816.97709619 7816.97914578
0.24200001 151587.00237265 6630.41579741
0.24300001 149392.42159195 5467.76288891
0.24400001 147233.06051365 6492.97827579
0.24500001 145108.00754243 5354.48573161
0.24600001 143017.15000804 6358.54279015
0.24700001 140960.52198393 5768.10483245
0.24800001 138936.27456457 5708.19711052
0.24900001 136942.99804763 6162.43520367
0.25000001 134982.71977469 6098.51956793
0.25100001 133052.73339623 6035.27227238
0.25200001 131155.09030589 5972.80309510
0.25300001 129285.58439098 5418.35909817
0.25400001 127446.49511636 5362.31153572
0.25500001 125634.51182920 5306.80203074
0.25600001 123852.55387727 7161.77426680
0.25700001 122097.22054071 4725.16265849
0.25800001 120368.99817222 4676.33580025
0.25900001 118668.64532395 5090.88512527
0.26000001 116993.39418702 4580.29159914
0.26100001 115343.71292169 5892.91057200
0.26200001 113720.15578735 6729.39053713
0.26300001 112120.12336548 4883.95280490
0.26400001 110545.11480409 4833.58537353
0.26500001 108993.78420487 4783.73741511
0.26600001 107465.38263864 4734.38765617
0.26700001 105960.17752565 5537.47913953
0.26800001 104477.74364317 4215.67715549
0.26900001 103016.29846368 4172.16028521
0.27000001 101577.13737478 5780.75516156
0.27100001 100158.89877271 5721.07656863
0.27200001 98761.99318972  4448.73419376
0.27300001 97385.32842739  4803.04462534
0.27400001 96027.16009473  6337.79286619
0.27500001 94690.72419765  5488.27463423
0.27600001 93371.35529498  6207.32799378
0.27700001 92072.89643801  5375.21594844
0.27800001 90791.51932977  4179.58779015
0.27900001 89529.06913068  4136.24318960
0.28000001 88283.73336462  4093.27549118
0.28100001 87056.33642272  4418.97984596
0.28200001 85846.62196698  4008.60820247
0.28300001 84653.66382693  3966.87087468
0.28400001 83476.48477988  4282.34387189
0.28500001 82316.46081844  4237.65160351
0.28600001 81172.01790147  4193.34664327
0.28700001 80044.15689333  4149.48928976
0.28800001 78930.12500181  4105.94529694
0.28900001 77833.30842803  4740.04870763
0.29000001 76750.42231328  4020.18731106
0.29100001 75682.89971816  3646.40228102
0.29200001 74629.51058673  3935.96057465
0.29300001 73590.78726568  5841.63696967
0.29400001 72565.34499884  4495.42333548
0.29500001 71555.01150225  5718.67678997
0.29600001 70557.16896187  3771.98643126
0.29700001 69573.16196457  4664.88073055
0.29800001 68602.85779826  3384.52214970
0.29900001 67645.91041744  3348.47272418
0.30000001 66700.74980695  3312.69289598
0.30100001 65769.55269913  2979.36087831
0.30200001 64849.81356750  4421.13624926
0.30300001 63943.43334630  3498.98483836
0.30400001 63049.01123172  4038.28936057
0.30500001 62167.19371583  3138.82175931
0.30600001 61296.13120744  4234.03046360
0.30700001 60437.81437152  3629.89530300
0.30800001 59590.93324551  4143.05983004
0.30900001 58755.96688452  3005.36784843
0.31000001 57932.54616522  3243.06408787
0.31100001 57119.66696632  2940.52059465
0.31200001 56319.14721247  3966.27613022
0.31300001 55528.79688740  4446.19097728
0.31400001 54750.97705460  2586.98378831
0.31500001 53982.39213317  3326.39516074
0.31600002 53226.29237801  4049.45651585
0.31700002 52480.09343564  3254.29074803
0.31800002 51744.39468666  2475.96940299
0.31900002 51019.92185381  2693.85200143
0.32000002 50306.21768132  2422.24449605
0.32100002 49602.32479634  2635.37164121
0.32200002 48909.87210916  2606.65175748
0.32300002 48226.22900716  2343.79484073
0.32400002 47554.15060496  2318.26495176
0.32500002 46891.45789093  2751.59087933
0.32600002 46239.21353585  2268.03353133
0.32700002 45597.39594072  2467.73118517
0.32800002 44966.30022515  2219.08702119
0.32900002 44343.27297349  3072.98896258
0.33000002 43731.50381663  2388.39619405
0.33100002 43128.54762464  3006.92248278
0.33200002 42536.96215866  2549.66563253
0.33300002 41954.40130127  3152.87340710
0.33400002 41382.03736097  2703.28171862
0.33500002 40819.22802755  2057.28919001
0.33600002 40265.60274672  2442.51157828
0.33700002 39721.58041286  2416.66106676
0.33800002 39188.05276384  2191.98383515
0.33900002 38663.19738101  1971.82315981
0.34000002 38147.89995315  2341.51821001
0.34100002 37642.47372924  2896.58849064
0.34200002 37146.94966511  2102.33171586
0.34300002 36659.92763223  1891.65235541
0.34400002 36183.18479455  2059.72789198
0.34500002 35715.27857815  2224.34765519
0.34600002 35257.50047083  1835.15298642
0.34700002 34807.46388190  2180.33964083
0.34800002 34367.82600778  1979.07135439
0.34900002 33936.73909865  1781.67888706
0.35000002 33515.26826513  2117.49474928
0.35100002 33103.50099673  1922.65142895
0.35200002 32699.21531685  1904.56588634
0.35300002 32305.35802339  2230.03896998
0.35400002 31919.54686398  2209.63073632
0.35500002 31543.32410928  1852.85494594
0.35600002 31175.57528017  2003.34256239
0.35700002 30816.64353112  1820.33921960
0.35800002 30466.83713167  2296.89496015
0.35900002 30126.24369971  2277.54413158
0.36000002 29794.05212184  1774.68279870
0.36100002 29469.95509974  2080.28422903
0.36200002 29156.11754387  2381.32601319
0.36300002 28849.22948264  1575.16800436
0.36400002 28551.60742453  1875.84069665
0.36500002 28261.58279935  1861.87316301
0.36600002 27980.95824031  2002.45737132
0.36700002 27707.99823999  1682.42973283
0.36800002 27444.27801757  2278.56129034
0.36900002 27188.53656743  1508.96385097
0.37000002 26940.18936222  1649.14376993
0.37100002 26700.07809184  1936.82375653
0.37200002 26468.73911011  1629.01862570
0.37300002 26244.96607190  1914.04546629
0.37400002 26029.06677433  2489.02962820
0.37500002 25821.06591671  2038.83146137
0.37600002 25621.08438274  1883.53410762
0.37700002 25428.64714375  1730.16523362
0.37800002 25243.69816988  1865.63560162
0.37900002 25067.15091889  1428.82767006
0.38000002 24897.23498105  1992.02786520
0.38100002 24734.16980412  1700.72159630
0.38200002 24579.54689170  1835.72354657
0.38300002 24431.48976072  1407.25387688
0.38400002 24290.82208407  1402.79504181
0.38500002 24156.61238945  1958.13509305
0.38600002 24030.42369325  1952.95262607
0.38700002 23910.15628180  1530.72827768
0.38800002 23796.64255065  2082.80123792
0.38900002 23689.90861905  1385.85971987
0.39000002 23590.34124156  1521.93093730
0.39100002 23496.34475253  1519.74365059
0.39200002 23409.62611371  1793.99678222
0.39300002 23328.35303650  2068.05859466
0.39400002 23254.58852236  1515.61787875
0.39500002 23185.50133041  2065.82826641
0.39600002 23122.76379771  1652.35277927
0.39700002 23065.24839339  1514.69493376
0.39800002 23014.79287201  1515.17896052
0.39900002 22968.73983376  1515.93690085
0.40000002 22928.74865204  1792.91358579
0.40100002 22893.73815146  1932.68946632
0.40200002 22864.58034968  2211.46231620
0.40300002 22840.29664065  1937.77085880
0.40400002 22821.18096593  1802.30285218
0.40500002 22806.48882718  1527.80675892
0.40600002 22797.57522422  1391.79203338
0.40700002 22792.81615876  1394.92041501
0.40800002 22792.46210976  1677.98114003
0.40900002 22796.43001233  1542.17856340
0.41000002 22805.40104212  1546.54834495
0.41100002 22818.26828344  1410.16904673
0.41200002 22834.31913523  1556.04475120
0.41300002 22855.84984737  1561.28317705
0.41400002 22880.40207921  1994.02713569
0.41500002 22908.57324611  1858.34354978
0.41600002 22939.53733660  2295.78900543
0.41700002 22975.46488427  1728.67405980
0.41800002 23015.14040952  1735.80197194
0.41900002 23056.03218012  1743.03611541
0.42000002 23100.76024170  1896.45700191
0.42100002 23149.26467324  1904.95308023
0.42200002 23200.07319625  1766.45365687
0.42300002 23253.34047169  1478.91252408
0.42400002 23309.14235652  1783.14947477
0.42500002 23368.04089427  2389.14861424
0.42600002 23427.98713963  2701.01276532
0.42700002 23491.32321673  1960.58592857
0.42800002 23556.04907970  1818.99819613
0.42900002 23623.72853730  1676.10361915
0.43000002 23693.07149345  1838.10857356
0.43100002 23762.60790778  2463.70730463
0.43200002 23835.12675461  1702.90071168
0.43300002 23908.36729449  2179.00869848
0.43400002 23983.53300627  2190.89584395
0.43500002 24059.37907340  2360.22519895
0.43600002 24137.07568936  1898.62246370
0.43700002 24215.09296505  1590.93168320
0.43800002 24293.57693675  1759.70532880
0.43900002 24373.87589303  1930.41106221
0.44000002 24454.06119710  2264.69071479
0.44100002 24535.26978569  2602.70154221
0.44200002 24616.71586791  1635.78084694
0.44300002 24698.66686469  1809.42442026
0.44400002 24780.56732360  1819.51324196
0.44500002 24862.14415310  1663.27752267
0.44600002 24943.67730216  1839.72100661
0.44700002 25026.19440903  1849.93637839
0.44800002 25107.25194612  2198.26554832
0.44900002 25188.79543868  2040.29252723
0.45000002 25270.16732511  1880.47959062
0.45100002 25350.07227001  1890.60847950
0.45200002 25429.97219552  2419.15336961
0.45300002 25508.57488264  1910.84743502
0.45400002 25586.84821702  2270.19321565
0.45500002 25664.46439607  2106.53933747
0.45600002 25740.54784831  1940.96610249
0.45700002 25816.03053171  1950.91751974
0.45800002 25889.89926130  1782.51964862
0.45900002 25962.52769506  2507.98029421
0.46000002 26034.42666087  2340.36489560
0.46100002 26103.97061821  2170.80629949
0.46200002 26172.74543249  2544.77615901
0.46300002 26239.99059774  2008.93377538
0.46400002 26304.96166116  2018.24827911
0.46500002 26369.41729725  2764.83353466
0.46600002 26430.99566118  1851.49133382
0.46700002 26490.80175253  1859.65437117
0.46800002 26549.57249798  2428.09126789
0.46900002 26605.39696320  2250.81668977
0.47000002 26659.61636888  2071.85218431
0.47100002 26711.95877579  1891.20677096
0.47200002 26762.25021030  2468.41626514
0.47300002 26810.33295390  3240.56509773
0.47400002 26855.47116041  2296.14289305
0.47500002 26898.88956054  2112.63888622
0.47600002 26940.58365400  1927.59885181
0.47700002 26978.84875027  1934.38354708
