# SAXS profile: number of points = 501, q_min = 0, q_max = 0.5, delta_q = 0.001
#    q    intensity    error
0.00000000 1682732.95097188 277.65093691
0.00100000 1682650.54711796 605.75421135
0.00200000 1682403.27073377 984.20594454
0.00300000 1681991.35227009 1614.71175570
0.00400000 1681414.66581525 1387.16715201
0.00500000 1680673.70002182 1815.12766787
0.00600000 1679768.39424186 2469.25964006
0.00700000 1678699.28635376 2215.88315008
0.00800000 1677466.21846200 2717.49538864
0.00900000 1676070.40765323 3016.92686274
0.01000000 1674511.27940289 4697.00434154
0.01100000 1672790.02840430 3312.12440045
0.01200000 1670906.67128475 3909.92178223
0.01300000 1668862.36747261 4205.53335152
0.01400000 1666657.13382944 4124.97658909
0.01500000 1664292.26195519 3994.30160655
0.01600000 1661767.32919871 4661.25756678
0.01700000 1659084.57394264 5823.38711577
0.01800000 1656243.92737867 6608.41356760
0.01900000 1653246.03582908 6943.63366380
0.02000000 1650092.08556747 7796.68545699
0.02100000 1646784.17989463 6521.26564805
0.02200000 1643320.79497477 5669.45700024
0.02300000 1639705.17499758 8264.11445816
0.02400000 1635936.91217228 6134.76370038
0.02500000 1632018.46122224 6364.87228945
0.02600000 1627949.99813260 7911.83735280
0.02700000 1623733.45264151 6819.68081344
0.02800000 1619368.80059959 7044.25460565
0.02900000 1614858.65690603 9446.92357665
0.03000000 1610204.36654269 10482.43090802
0.03100000 1605406.04498138 10017.73418163
0.03200000 1600465.55640521 7922.30486909
0.03300000 1595386.31541226 8136.47058370
0.03400000 1590166.65518141 8348.37532490
0.03500000 1584809.83457399 12836.96025284
0.03600000 1579317.10904368 9641.73139629
0.03700000 1573690.24127173 8970.03479009
0.03800000 1567930.80447924 10089.63519377
0.03900000 1562040.95217087 10309.47076176
0.04000000 1556020.38059828 16268.19383301
0.04100000 1549873.41493260 10740.62326349
0.04200000 1543600.54344346 10951.84636382
0.04300000 1537202.77629069 15218.30819168
0.04400000 1530683.77104468 14464.96230815
0.04500000 1524044.87946336 16825.45625107
0.04600000 1517286.07871012 14975.61429304
0.04700000 1510411.57292841 13049.95659703
0.04800000 1503421.93144690 14365.19722336
0.04900000 1496321.01356440 11222.40812411
0.05000000 1489108.11367624 18226.68416014
0.05100000 1481788.11801858 12713.74264486
0.05200000 1474359.11756253 15237.50219010
0.05300000 1466827.51967533 14257.56415590
0.05400000 1459192.79525488 13242.17523447
0.05500000 1451457.93875640 13411.47197974
0.05600000 1443623.90056139 12342.98492577
0.05700000 1435695.76136878 13739.60907764
0.05800000 1427672.41205258 17688.86201127
0.05900000 1419556.77912538 15331.21393061
0.06000000 1411352.40450028 14205.26261495
0.06100000 1403060.70233417 14353.31165563
0.06200000 1394684.02368716 14497.74110390
0.06300000 1386225.16988061 14638.53847837
0.06400000 1377683.15866633 14775.65256771
0.06500000 1369064.53930746 18975.23540242
0.06600000 1360369.60298307 13671.71514966
0.06700000 1351600.45272808 16543.59031561
0.06800000 1342759.99767874 16677.07995181
0.06900000 1333850.72630621 16806.51993832
0.07000000 1324873.76215982 22575.84996440
0.07100000 1315831.98819593 14210.98613813
0.07200000 1306727.88445400 17170.40520610
0.07300000 1297564.33637189 14402.96480859
0.07400000 1288343.51731133 15943.25177389
0.07500000 1279066.84756647 18955.77156944
0.07600000 1269735.79805650 20531.62881711
0.07700000 1260355.60577312 16220.77740687
0.07800000 1250926.70560814 20752.87501927
0.07900000 1241450.77795117 16387.15103757
0.08000000 1231932.27159385 22451.96670304
0.08100000 1222372.01586509 21049.24710079
0.08200000 1212771.74117178 18118.81066333
0.08300000 1203135.22775088 18191.40549735
0.08400000 1193463.78012551 16738.33030193
0.08500000 1183760.02976233 15270.50510081
0.08600000 1174025.95171570 22981.55908385
0.08700000 1164265.12109042 18441.96038406
0.08800000 1154477.35634943 21577.18280352
0.08900000 1144667.68863713 21634.22033139
0.09000000 1134836.41236173 17039.56953205
0.09100000 1124985.74649858 17077.28443416
0.09200000 1115118.28827833 29556.21161957
0.09300000 1105238.54857057 21817.40997403
0.09400000 1095343.68215880 26534.70194736
0.09500000 1085438.99876925 15630.32231694
0.09600000 1075526.46701143 20343.58407983
0.09700000 1065609.78340333 15664.46455246
0.09800000 1055688.75970922 17244.67670065
0.09900000 1045766.85716679 17255.15395463
0.10000000 1035844.09960068 20400.95050103
0.10100000 1025923.47949787 20405.61896693
0.10200000 1016008.08602401 21976.25593438
0.10300000 1006098.42304771 17264.64975164
0.10400000 996198.22168079 20397.15954850
0.10500000 986309.94173287 23523.49321709
0.10600001 976430.47110104 17238.88077844
0.10700001 966568.10790739 15658.40408495
0.10800001 956720.80523572 17206.62449194
0.10900001 946892.63291468 18748.47501412
0.11000001 937083.68041315 21843.42161859
0.11100001 927296.40754906 17136.43841818
0.11200001 917532.71790956 18662.61636086
0.11300001 907794.17441824 21732.59355876
0.11400001 898083.03273902 15491.93304418
0.11500001 888401.32611185 18549.82056269
0.11600001 878749.43511881 18506.46397510
0.11700001 869130.64228438 23075.41963939
0.11800001 859543.97328918 16877.14671042
0.11900001 849992.62870680 18359.84164485
0.12000001 840477.19745592 16780.12803763
0.12100001 831002.55226641 16728.08216515
0.12200001 821566.56975159 15157.90392603
0.12300001 812173.00543866 16617.06047418
0.12400001 802820.97572141 18063.47280484
0.12500001 793512.60204138 20996.34443937
0.12600001 784251.79789370 19421.99669007
0.12700001 775036.92150993 25297.20631025
0.12800001 765869.86636675 16301.54087390
0.12900001 756753.05305744 22135.02784520
0.13000001 747687.20846882 19099.67064060
0.13100001 738671.96151091 19013.41718554
0.13200001 729711.08418419 17469.28417888
0.13300001 720804.21951789 17385.79859439
0.13400001 711952.22773832 15858.73662054
0.13500001 703157.52781872 14344.41424382
0.13600001 694420.20362835 15697.36944316
0.13700001 685741.74748192 15614.34032643
0.13800001 677121.10543232 18353.36842821
0.13900001 668562.66012891 14039.81652480
0.14000001 660064.48358326 18148.47383201
0.14100001 651629.96950309 16655.66280603
0.14200001 643257.55127073 16557.45015065
0.14300001 634950.32852254 13714.92774299
0.14400001 626704.84899590 14993.91421949
0.14500001 618527.63016253 14900.33131350
0.14600001 610415.76730202 16151.60196475
0.14700001 602371.95490400 17384.45543867
0.14800001 594393.61438014 19927.04686223
0.14900001 586484.28864143 22433.02509894
0.15000001 578643.37507007 14416.90037010
0.15100001 570871.67166598 16920.63714658
0.15200001 563170.89792775 15509.72726079
0.15300001 555540.39037303 16682.87871015
0.15400001 547978.66736533 12740.50461748
0.15500001 540489.93777499 15176.95816897
0.15600001 533070.90254169 18830.73052100
0.15700001 525726.72633230 17443.61360299
0.15800001 518451.55050112 18547.60509460
0.15900001 511251.27206819 18405.04666318
0.16000001 504121.34594877 18261.79661900
0.16100001 497067.02625440 13286.60223896
0.16200001 490085.23420393 15577.35990452
0.16300001 483176.65539290 15451.99016892
0.16400001 476342.33602440 12968.42071050
0.16500001 469580.88893788 12861.82115523
0.16600001 462894.01117792 17393.24329120
0.16700001 456280.06809118 13797.90991054
0.16800001 449740.46798457 21661.75066327
0.16900001 443276.19293835 12433.89779903
0.17000001 436884.26888412 13447.29843123
0.17100001 430567.08802900 11108.63139571
0.17200001 424323.45417669 14314.55240263
0.17300001 418153.80844632 12005.19640743
0.17400001 412058.47178192 11898.18893461
0.17500001 406035.90683327 11791.28329131
0.17600001 400085.69150835 16995.64097796
0.17700001 394211.66780468 15788.17804126
0.17800001 388408.47662028 12514.52170779
0.17900001 382678.11424374 12398.77148714
0.18000001 377021.91023807 11259.75988112
0.18100001 371438.00386794 10140.25798458
0.18200001 365924.50902419 12053.55389664
0.18300001 360483.27219978 17908.80980889
0.18400001 355113.52378810 10839.84082571
0.18500001 349815.35866410 15615.75834849
0.18600001 344588.13181088 10632.26730933
0.18700001 339430.31330335 10529.12881612
0.18800001 334341.38424189 11374.29442930
0.18900001 329325.56190516 9385.77895775
0.19000001 324374.50041659 11151.99585124
0.19100001 319494.96529451 15642.47423993
0.19200001 314681.88946690 11843.05346969
0.19300001 309938.71547428 13528.82556972
0.19400001 305260.86331710 10714.65680874
0.19500001 300650.36592549 9723.03329349
0.19600001 296105.12300853 10499.88815807
0.19700001 291627.42733131 12125.86900147
0.19800001 287213.58201709 12859.98874256
0.19900001 282864.76886145 10183.13216027
0.20000001 278578.52732009 11758.80019392
0.20100001 274357.43483254 9144.33373515
0.20200001 270197.71071732 11518.52895229
0.20300001 266100.95286246 9771.22745094
0.20400001 262066.10359115 9670.23967958
0.20500001 258091.55376019 10367.53820459
0.20600001 254177.09364279 11049.07878292
0.20700001 250322.67290816 7810.06776391
0.20800001 246526.84079116 8501.47850655
0.20900001 242791.98214494 8412.74257900
0.21000001 239111.77552675 8324.67685849
0.21100001 235490.41402705 8986.31462409
0.21200001 231924.39231381 14078.97090099
0.21300001 228414.02156275 8065.29948267
0.21400001 224959.33563297 11607.90226744
0.21500001 221559.94710785 7896.39688825
0.21600001 218212.72418529 9233.67186046
0.21700001 214919.12584289 8433.42689680
0.21800001 211678.38554289 7648.99882324
0.21900001 208488.15631579 7568.12043210
0.22000001 205348.54427460 8168.76547748
0.22100001 202260.80558777 6735.28514454
0.22200001 199222.05522531 8663.17148111
0.22300001 196231.84330757 7252.72927160
0.22400001 193289.26580927 7828.21563544
0.22500001 190396.40227394 7745.32601076
0.22600001 187548.16510702 7024.61685626
0.22700001 184747.24275655 7582.02720128
0.22800001 181991.00232893 6251.39122563
0.22900001 179279.21931093 9277.70003809
0.23000001 176612.02025010 9179.41018661
0.23100001 173989.06443869 7265.78367458
0.23200001 171407.15261626 10783.22448107
0.23300001 168868.45388893 8298.19621656
0.23400001 166369.93623473 7037.44863557
0.23500001 163911.96939355 8123.47758735
0.23600001 161494.60299536 7463.47343043
0.23700001 159116.48129250 6816.55038098
0.23800001 156776.47632161 7306.56802456
0.23900001 154474.79942442 8897.74886771
0.24000001 152209.87664284 7703.34222127
0.24100001 149982.88282216 8711.00624635
0.24200001 147791.82124284 6464.41456694
0.24300001 145635.43093579 10127.48834633
0.24400001 143513.99157842 6856.38127199
0.24500001 141426.34743737 5740.49571403
0.24600001 139372.41243611 6196.49775004
0.24700001 137352.10209015 7153.29781525
0.24800001 135363.74841274 5561.41986663
0.24900001 133406.19376948 6003.27900363
0.25000001 131480.87977069 6930.35750058
0.25100001 129585.30222640 5877.98958707
0.25200001 127721.69734951 5816.44637247
0.25300001 125885.81393207 6714.74963281
0.25400001 124079.93267710 6644.48070922
0.25500001 122300.76036265 5635.61930414
0.25600001 120550.98681765 5576.68891403
0.25700001 118827.33442513 5978.20347778
0.25800001 117130.68104144 5460.63260852
0.25900001 115461.27210369 5403.58779012
0.26000001 113816.66371989 5792.69937411
0.26100001 112196.85667051 7054.93868125
0.26200001 110603.13159446 4799.62312264
0.26300001 109032.32881060 5181.21651024
0.26400001 107486.22529978 4699.83542362
0.26500001 105963.34754240 4650.73154370
0.26600001 104463.10541959 5857.24659804
0.26700001 102985.49905668 4968.02070958
0.26800001 101530.37749895 4506.42601854
0.26900001 100095.89750169 5270.04925285
0.27000001 98683.15373442  4813.76446696
0.27100001 97291.09068745  4366.42435668
0.27200001 95920.04254543  4320.71852093
0.27300001 94568.77957177  4664.13242921
0.27400001 93235.67667395  4999.76339825
0.27500001 91924.08628624  4186.22308759
0.27600001 90629.03516812  4142.20024839
0.27700001 89354.44983706  4098.68880800
0.27800001 88096.82661494  6267.64902615
0.27900001 86857.69775009  5107.23286942
0.28000001 85635.53958383  3970.49198072
0.28100001 84430.81194176  4999.99291984
0.28200001 83243.47971255  6007.26599778
0.28300001 82072.42740898  4195.54268772
0.28400001 80917.18143669  3805.13063716
0.28500001 79778.67641034  4107.00645599
0.28600001 78655.42068908  4401.95082722
0.28700001 77548.46802411  3350.09397721
0.28800001 76455.15050260  3645.76402428
0.28900001 75378.51465571  3606.86209700
0.29000001 74315.74468739  4217.04713190
0.29100001 73268.06065626  3850.96945038
0.29200001 72234.24223327  3174.69509643
0.29300001 71214.73220739  3768.68380681
0.29400001 70208.40255382  4349.41074409
0.29500001 69216.96452408  3380.55670738
0.29600001 68237.58463970  3647.98144752
0.29700001 67272.11282820  4209.88902008
0.29800001 66319.77890544  2974.44222472
0.29900001 65380.65265572  2942.12950879
0.30000001 64453.27034049  3201.07182300
0.30100001 63539.52129562  3166.17449605
0.30200001 62637.05791241  3416.22530027
0.30300001 61747.65460137  3097.26250143
0.30400001 60870.17147791  4177.21571543
0.30500001 60005.07459093  2754.23305412
0.30600001 59150.41563744  2723.87676906
0.30700001 58308.48993541  3771.39330757
0.30800001 57477.79274179  3463.32456562
0.30900001 56658.73679945  4478.87335605
0.31000001 55850.94603722  2865.99143159
0.31100001 55053.92976807  3091.82884216
0.31200001 54268.82982709  3057.50601722
0.31300001 53493.92080727  2519.56378931
0.31400001 52731.29219032  3488.17514354
0.31500001 51977.87856788  2463.75156077
0.31600002 51236.67080246  2923.56457441
0.31700002 50505.22775570  4095.46911262
0.31800002 49784.18784965  3096.82555182
0.31900002 49074.42383690  3062.24419242
0.32000002 48375.13908868  3493.89458611
0.32100002 47685.60512016  2994.17928727
0.32200002 47007.43252127  3188.51429889
0.32300002 46337.88133567  3378.03170932
0.32400002 45679.73494481  3340.33077601
0.32500002 45031.13776878  3303.03411174
0.32600002 44392.83253119  3483.94966202
0.32700002 43764.70404000  2583.86824887
0.32800002 43147.29306155  2555.18281610
0.32900002 42537.90769042  2316.18918342
0.33000002 41939.85511629  2498.77668616
0.33100002 41350.44204191  2677.02774456
0.33200002 40772.32033902  3054.86624606
0.33300002 40203.07204617  2618.42620636
0.33400002 39644.15779804  2390.54282843
0.33500002 39094.57428051  2561.47662816
0.33600002 38554.23264022  2143.80820748
0.33700002 38023.43865874  2313.34611755
0.33800002 37503.08879125  2669.84501749
0.33900002 36991.45389281  2075.22066166
0.34000002 36489.18887210  2239.70651904
0.34100002 35996.70024620  2031.29389109
0.34200002 35514.37225587  2740.82180865
0.34300002 35040.44157327  2531.32161913
0.34400002 34576.70913174  2147.21373877
0.34500002 34121.82582792  2302.19969764
0.34600002 33676.92106310  2804.61411896
0.34700002 33239.99889113  1908.64082672
0.34800002 32813.35831481  2061.33526696
0.34900002 32395.12592219  2551.11628720
0.35000002 31986.69615967  3199.78930188
0.35100002 31587.91126572  1834.62597321
0.35200002 31196.61028036  2147.41877036
0.35300002 30815.67260926  2618.09966888
0.35400002 30442.99924421  1783.19876519
0.35500002 30079.86363398  1766.89127355
0.35600002 29725.08261061  2228.48954887
0.35700002 29379.14231166  1735.42601855
0.35800002 29042.40878620  1563.93378721
0.35900002 28714.85880912  1550.60244914
0.36000002 28395.83394878  1998.92482551
0.36100002 28084.90804031  1830.01269459
0.36200002 27784.11017619  1966.69833198
0.36300002 27490.40115836  1500.97597434
0.36400002 27205.97071183  1936.38505714
0.36500002 26929.22693318  2069.78048012
0.36600002 26661.78672199  1908.05085714
0.36700002 26402.15550096  2186.09857903
0.36800002 26151.72436137  2026.49721676
0.36900002 25909.36007026  1581.76650722
0.37000002 25674.47769487  1571.66322654
0.37100002 25447.80030186  1561.98605652
0.37200002 25229.86807388  1976.25565984
0.37300002 25019.62207166  1965.04121059
0.37400002 24817.27671875  1814.76344603
0.37500002 24622.92206020  1527.60615698
0.37600002 24436.59665178  1520.07856673
0.37700002 24257.77832626  1925.58253476
0.37800002 24086.53671049  1506.25164454
0.37900002 23923.78699126  1500.02151541
0.38000002 23767.68912316  1765.82054706
0.38100002 23618.40818069  1353.33485287
0.38200002 23477.62160535  1483.66836764
0.38300002 23343.54087116  1747.96442324
0.38400002 23216.74165198  1742.99696210
0.38500002 23096.60840171  1604.75242777
0.38600002 22984.42341729  1467.67042684
0.38700002 22878.23067041  1597.81570572
0.38800002 22778.86106580  1993.71990924
0.38900002 22686.31515532  1459.86444941
0.39000002 22600.89285454  1325.54242872
0.39100002 22521.23767246  1324.24883788
0.39200002 22448.70252403  1455.68618414
0.39300002 22381.73446819  1719.58874066
0.39400002 22322.30604709  1851.63537433
0.39500002 22267.70234302  1984.05237276
0.39600002 22219.37887681  1720.11329724
0.39700002 22176.29593515  1323.92493005
0.39800002 22140.26121479  1590.11363578
0.39900002 22108.77884016  1724.48483124
0.40000002 22083.30411584  1593.97296660
0.40100002 22062.93587948  1596.47411588
0.40200002 22048.41226083  1466.10924275
0.40300002 22038.74329196  1602.65748813
0.40400002 22034.29547728  1606.30021640
0.40500002 22034.23090717  1610.26167099
0.40600002 22040.10544965  1883.76790204
0.40700002 22050.06164756  2024.19575515
0.40800002 22064.44187298  2030.48035957
0.40900002 22083.14562692  1358.11352041
0.41000002 22106.86112719  1771.75446899
0.41100002 22134.50861046  2325.45158480
0.41200002 22165.41274274  1510.46212292
0.41300002 22201.70355595  1516.59844177
0.41400002 22241.09402338  1799.86061912
0.41500002 22284.19830200  1668.64084792
0.41600002 22329.96019727  1536.41298417
0.41700002 22380.67217066  1683.92185391
0.41800002 22435.10263756  1551.05089434
0.41900002 22490.87669241  1416.92529876
0.42000002 22550.49405785  1993.68927412
0.42100002 22613.70833964  2004.02692802
0.42200002 22679.46648381  2158.51832488
0.42300002 22747.43341945  2025.43156764
0.42400002 22818.09568452  1891.04976946
0.42500002 22891.77608481  2047.89838559
0.42600002 22966.41258126  1912.29843420
0.42700002 23044.61611614  1627.41086724
0.42800002 23124.02531859  2083.24353967
0.42900002 23206.38082093  1945.85512404
0.43000002 23290.32420875  1806.86343774
0.43100002 23374.54112744  1514.67033683
0.43200002 23461.63885390  1828.60021893
0.43300002 23549.49591841  1686.37948263
0.43400002 23639.18226603  1850.94805914
0.43500002 23729.47529641  1707.09853372
0.43600002 23821.63199895  1873.80966183
0.43700002 23914.03912885  2670.95915688
0.43800002 24006.88393051  2055.10939626
0.43900002 24101.51267747  1908.83989451
0.44000002 24196.04430560  1760.62524733
0.44100002 24291.42028413  2415.78186174
0.44200002 24386.98094330  1944.61795257
0.44300002 24483.02786151  1793.62670613
0.44400002 24578.94719535  2132.83824395
0.44500002 24674.50621225  1815.79699821
0.44600002 24769.96636533  2325.15685291
0.44700002 24866.23830364  1671.01129320
0.44800002 24961.10865142  2521.69612102
0.44900002 25056.30974389  1860.43108665
0.45000002 25151.29753852  1701.48535912
0.45100002 25244.69677942  2567.38578414
0.45200002 25337.97999617  2238.23056904
0.45300002 25430.01971143  2078.14130931
0.45400002 25521.43825739  2786.94118979
0.45500002 25612.23657923  1927.06477155
0.45600002 25701.41819033  1938.01553049
0.45700002 25789.97878360  2126.12595168
0.45800002 25876.72564707  3385.06402595
0.45900002 25962.13722825  2149.66506438
0.46000002 26046.64395867  1981.23806662
0.46100002 26128.84056516  1810.72873698
0.46200002 26210.14806168  2184.35384299
0.46300002 26289.74643688  2195.71972647
0.46400002 26366.95798830  1839.09540685
0.46500002 26443.50993380  2033.24157518
0.46600002 26517.12687887  2043.27730849
0.46700002 26588.86808200  2426.50021617
0.46800002 26659.35204673  3000.77680861
0.46900002 26726.96517106  2072.67624725
0.47000002 26792.67324069  2082.19269959
0.47100002 26856.45521866  2091.58083156
0.47200002 26918.01169804  2291.79962460
0.47300002 26977.21528887  2877.12014693
0.47400002 27033.39039289  2118.74207247
0.47500002 27087.72174930  1934.06342457
0.47600002 27140.21553810  2718.63551931
0.47700002 27189.08190147  2339.34871768
