# SAXS profile: number of points = 501, q_min = 0, q_max = 0.5, delta_q = 0.001
#    q    intensity    error
0.00000000 1664650.74656090 324.60689558
0.00100000 1664568.79600653 898.86717119
0.00200000 1664322.86888864 898.73437766
0.00300000 1663913.20817784 1098.18275652
0.00400000 1663339.67626963 1621.75624599
0.00500000 1662602.76786520 2094.87957043
0.00600000 1661702.40975793 2966.13892218
0.00700000 1660639.16255737 2391.32049347
0.00800000 1659412.85492604 3584.33191797
0.00900000 1658024.69872069 2487.03715440
0.01000000 1656474.11754523 3826.45537675
0.01100000 1654762.32667019 3276.42954946
0.01200000 1652889.30672586 4834.70143414
0.01300000 1650856.21908260 5200.19731946
0.01400000 1648663.12178343 5935.18750153
0.01500000 1646311.25631029 5531.60606752
0.01600000 1643800.25483528 5449.19808838
0.01700000 1641132.31027919 5317.26892383
0.01800000 1638307.28982813 5603.01118333
0.01900000 1635325.95149145 5396.57588343
0.02000000 1632189.47456411 5655.53678520
0.02100000 1628899.84944829 5912.90672158
0.02200000 1625455.63722764 8411.73330482
0.02300000 1621860.09496338 7006.43592916
0.02400000 1618112.75731490 6674.71542827
0.02500000 1614216.10748747 7554.53172806
0.02600000 1610170.29687714 9781.78500093
0.02700000 1605977.33254665 9443.14714788
0.02800000 1601637.03634509 8360.54571313
0.02900000 1597152.12731965 8624.62188352
0.03000000 1592523.85488677 13329.42527809
0.03100000 1587752.51283864 8383.33365353
0.03200000 1582839.75025402 8618.56283709
0.03300000 1577789.04990576 8046.72452548
0.03400000 1572598.98100419 9081.75953434
0.03500000 1567272.35265260 11848.57953320
0.03600000 1561810.75586987 11268.46512436
0.03700000 1556215.80677834 11531.55966153
0.03800000 1550489.14918570 9977.39813676
0.03900000 1544632.83165888 10194.57716106
0.04000000 1538646.64834499 15140.28372130
0.04100000 1532534.86207327 10620.46708660
0.04200000 1526297.94745560 12798.00888315
0.04300000 1519936.89832395 14044.21759242
0.04400000 1513455.42455756 12258.98950825
0.04500000 1506854.94919235 19754.86930182
0.04600000 1500135.30959208 10575.95442427
0.04700000 1493300.64030248 12902.11813226
0.04800000 1486351.72623955 16387.02854425
0.04900000 1479292.19938550 13313.63041419
0.05000000 1472121.48248601 20271.11375778
0.05100000 1464844.45093469 14853.52342441
0.05200000 1457459.18728051 12745.48118672
0.05300000 1449971.98212599 14093.72832328
0.05400000 1442382.45214064 15469.55252061
0.05500000 1434693.56605048 14461.71182042
0.05600000 1426906.07886452 15860.06180668
0.05700000 1419025.19578747 14814.62373555
0.05800000 1411050.07915858 16234.13191873
0.05900000 1402983.07277931 15152.21789371
0.06000000 1394828.21256694 20420.28598599
0.06100000 1386586.65022978 16763.83338467
0.06200000 1378260.67122050 14327.02034703
0.06300000 1369853.46196007 14465.65323464
0.06400000 1361363.68391386 19909.94480836
0.06500000 1352797.81980681 14731.96894683
0.06600000 1344156.48553747 14859.65064288
0.06700000 1335441.21982303 17707.95140357
0.06800000 1326655.62197409 16477.06359619
0.06900000 1317801.79106973 13836.91945406
0.07000000 1308880.99472994 15333.54157131
0.07100000 1299895.88802245 14038.87624819
0.07200000 1290849.10125405 14134.79832090
0.07300000 1281743.48313855 15650.08866242
0.07400000 1272581.18111156 17179.84675012
0.07500000 1263363.51462724 20163.28263855
0.07600000 1254092.23483441 18830.19578881
0.07700000 1244772.27997088 16020.21999439
0.07800000 1235404.19439703 17567.44846817
0.07900000 1225989.58758986 19125.43846346
0.08000000 1216533.13131213 17737.05388659
0.08100000 1207035.21621087 16331.18724156
0.08200000 1197497.98393318 14908.85059957
0.08300000 1187925.03975357 17961.42744404
0.08400000 1178317.58646721 27042.38987876
0.08500000 1168678.60011278 21106.33650888
0.08600000 1159009.58181423 16637.58332810
0.08700000 1149314.25738520 16688.04380087
0.08800000 1139592.49475849 18256.27262341
0.08900000 1129849.59195091 21354.15829087
0.09000000 1120085.09793517 15289.16230503
0.09100000 1110302.03403160 18386.60254739
0.09200000 1100502.42433770 15352.00954085
0.09300000 1090691.19733932 18454.49592620
0.09400000 1080865.06633882 23103.49187880
0.09500000 1071029.76138136 15422.82928881
0.09600000 1061186.82817786 18528.32289096
0.09700000 1051340.20966118 23182.05271288
0.09800000 1041489.67619707 29385.63259554
0.09900000 1031638.62462317 24759.32815520
0.10000000 1021787.16264389 17028.08386624
0.10100000 1011938.20623754 15482.65528361
0.10200000 1002094.89404293 17030.60352532
0.10300000 992257.53385095 24766.74920997
0.10400000 982430.11413510 18567.93003068
0.10500000 972614.74865341 20103.94780054
0.10600001 962808.98189263 16998.39337515
0.10700001 953020.10880596 20070.60443593
0.10800001 943247.05243159 16964.29903635
0.10900001 933493.28619621 21563.69592604
0.11000001 923758.82172880 23070.87765861
0.11100001 914046.40557289 16891.57837013
0.11200001 904357.95619099 19927.52850280
0.11300001 894694.88585699 27538.70988322
0.11400001 885059.60693139 18320.73472610
0.11500001 875453.63256561 18279.47270871
0.11600001 865878.18580531 16715.77916414
0.11700001 856335.88820051 18188.57512197
0.11800001 846826.02693215 24185.35246827
0.11900001 837351.63764348 16579.56320627
0.12000001 827913.36299766 19534.61672011
0.12100001 818516.09930951 17974.61438759
0.12200001 809157.77544102 14928.96166021
0.12300001 799841.76789760 17852.46910058
0.12400001 790567.72925120 19270.08930846
0.12500001 781337.53039361 17720.73602434
0.12600001 772154.83471912 19122.41538293
0.12700001 763018.36197371 17579.94388835
0.12800001 753929.98996218 18965.10979131
0.12900001 744891.58162788 15977.92517899
0.13000001 735904.65241350 18798.68523198
0.13100001 726968.64700439 14393.97988918
0.13200001 718086.35888252 17190.98824204
0.13300001 709258.73090735 21384.15174497
0.13400001 700486.03011758 15603.32705650
0.13500001 691770.59418128 14112.12078666
0.13600001 683112.56086672 15441.76016648
0.13700001 674513.58132692 16754.91815021
0.13800001 665972.57938800 13885.52893502
0.13900001 657493.47139985 13807.36355053
0.14000001 649074.90224789 15100.72831296
0.14100001 640719.82230222 15012.06614455
0.14200001 632427.17245488 13565.56348898
0.14300001 624199.53211523 20224.06579445
0.14400001 616033.77599083 17418.35583776
0.14500001 607936.12674733 17307.94234495
0.14600001 599904.01809876 18519.03791233
0.14700001 591939.87901846 15769.27912099
0.14800001 584040.75004857 18274.63593119
0.14900001 576211.21911494 18150.65425848
0.15000001 568449.77655448 16738.00446039
0.15100001 560757.48537860 19177.90690486
0.15200001 553136.06466277 16502.81526793
0.15300001 545584.75091774 13863.30917502
0.15400001 538102.38583105 16264.14537926
0.15500001 530692.75841151 14901.85335946
0.15600001 523352.84598512 17254.94414648
0.15700001 516087.67659101 15900.66206623
0.15800001 508891.43094045 14564.47344094
0.15900001 501769.95023931 12042.47937416
0.16000001 494718.71423679 11947.45751277
0.16100001 487742.93205511 15407.79995093
0.16200001 480839.62374974 15283.48816236
0.16300001 474009.38120133 11660.63132803
0.16400001 467252.97594884 13877.41404083
0.16500001 460569.48248375 13761.81678633
0.16600001 453960.38721794 13646.04988404
0.16700001 447424.15575370 15785.12496028
0.16800001 440962.10824212 15649.74596044
0.16900001 434574.94981982 17730.65878986
0.17000001 428260.15647990 12083.36088565
0.17100001 422019.71474770 15243.35281650
0.17200001 415853.01317318 15107.94068202
0.17300001 409759.66303755 10694.72771033
0.17400001 403740.83827327 12717.83700622
0.17500001 397794.17901123 14702.47355062
0.17600001 391919.76502807 12486.56430352
0.17700001 386121.16337020 11340.37910380
0.17800001 380393.52698584 12256.28001837
0.17900001 374738.35562618 16188.69772770
0.18000001 369156.77122125 19042.95294294
0.18100001 363647.53782995 11913.09390204
0.18200001 358208.37492923 9832.82035629
0.18300001 352841.21190493 11686.10149033
0.18400001 347545.31546446 11573.25955170
0.18500001 342320.63922092 14326.11942819
0.18600001 337166.46971354 12294.77589895
0.18700001 332081.97253677 13110.59689516
0.18800001 327065.65849165 11126.77422758
0.18900001 322122.07665406 12852.67146575
0.19000001 317242.99249439 14542.41946305
0.19100001 312435.29451027 10797.76428847
0.19200001 307693.79973681 11580.05670027
0.19300001 303021.55448822 9699.72041751
0.19400001 298414.45348218 8728.62317681
0.19500001 293874.36724016 12095.86952720
0.19600001 289399.30914749 11117.27498626
0.19700001 284991.36968503 10157.09289557
0.19800001 280646.87752178 12565.96453489
0.19900001 276367.15607835 10778.31959644
0.20000001 272149.65565347 9846.37500689
0.20100001 267996.87902540 11368.42814556
0.20200001 263905.22391852 9643.09733775
0.20300001 259875.95865658 7952.20471075
0.20400001 255908.61384243 8656.10927236
0.20500001 252000.82994152 10901.55641855
0.20600001 248152.90358444 11557.72203076
0.20700001 244364.76359442 9149.01718144
0.20800001 240634.69991194 8298.28801872
0.20900001 236965.22242845 7464.40485935
0.21000001 233350.12074329 10339.74433892
0.21100001 229793.20336937 9499.65147637
0.21200001 226291.27846874 10122.00936442
0.21300001 222844.83725373 10014.64745963
0.21400001 219453.47479120 9200.58736559
0.21500001 216117.18981489 12603.95510589
0.21600001 212832.44959490 11084.31449895
0.21700001 209601.17489584 9595.54224040
0.21800001 206422.02860637 8137.15675239
0.21900001 203293.30838057 7379.54744313
0.22000001 200214.56033608 7964.53558675
0.22100001 197187.33901335 7879.60643955
0.22200001 194208.75472474 6496.28315272
0.22300001 191278.11506814 8355.02846125
0.22400001 188394.84474926 6994.15894204
0.22500001 185560.63612679 7548.60703459
0.22600001 182770.87054483 6223.34843634
0.22700001 180027.74116754 6156.94903909
0.22800001 177329.14232341 6700.38195955
0.22900001 174674.29353180 7231.51609420
0.23000001 172063.58966975 5962.00366401
0.23100001 169496.97438198 5898.49498745
0.23200001 166970.71575894 6419.18947094
0.23300001 164487.32317809 6350.85584827
0.23400001 162043.82082573 7425.65844054
0.23500001 159640.17607256 8476.89375038
0.23600001 157276.58229726 6150.30104163
0.23700001 154952.04737367 6084.96718817
0.23800001 152665.13545921 6020.34990159
0.23900001 150416.10557947 7039.47407408
0.24000001 148203.34527218 5893.30630350
0.24100001 146027.98768299 6360.97944435
0.24200001 143888.13064038 5769.19487092
0.24300001 141782.55724802 5708.16602482
0.24400001 139711.49287989 6674.71688807
0.24500001 137673.71474713 6096.19237738
0.24600001 135669.41176172 7037.17272097
0.24700001 133697.92519638 5470.91935784
0.24800001 131758.04378102 5413.27948483
0.24900001 129848.53452153 5843.18432990
0.25000001 127970.94183062 5781.72742543
0.25100001 126122.43144536 5244.17094759
0.25200001 124305.43401539 4717.39144406
0.25300001 122516.02271131 5134.64675475
0.25400001 120755.95555439 4618.91551848
0.25500001 119022.12252087 4570.44972104
0.25600001 117317.13439951 5879.34846860
0.25700001 115637.94699833 5370.22651269
0.25800001 113985.31585951 4871.16270373
0.25900001 112359.33651974 5696.61863108
0.26000001 110757.86098766 4769.78750912
0.26100001 109180.61480594 4719.87820139
0.26200001 107629.14465777 5944.35794072
0.26300001 106099.98701949 5041.87162174
0.26400001 104595.30695054 4157.66364802
0.26500001 103113.22790513 5759.90518333
0.26600001 101653.33016131 6921.06731153
0.26700001 100215.63499067 4028.66871726
0.26800001 98799.95377255  3986.57832337
0.26900001 97404.57673474  4733.86265332
0.27000001 96030.61009431  6245.83117610
0.27100001 94676.62786693  5407.92923968
0.27200001 93343.35671848  4969.13383006
0.27300001 92029.27333044  4160.64364417
0.27400001 90733.16679756  4491.29196903
0.27500001 89457.95069699  4814.62713437
0.27600001 88198.87954984  5130.52906622
0.27700001 86959.87625538  3988.84971261
0.27800001 85737.45343668  3588.11259614
0.27900001 84532.97148240  3905.42346732
0.28000001 83345.15936814  4566.89822372
0.28100001 82174.33457701  4518.76687226
0.28200001 81020.45744942  3783.25043966
0.28300001 79882.49208688  4423.89262116
0.28400001 78759.78002935  4040.37690674
0.28500001 77653.40743790  3997.59760411
0.28600001 76562.00165230  5273.59092342
0.28700001 75486.45201953  3587.11636976
0.28800001 74424.13160469  4194.17213511
0.28900001 73377.99584567  3830.33156445
0.29000001 72345.47672594  3157.88020856
0.29100001 71327.54743066  3124.14672534
0.29200001 70323.11177156  3399.77099953
0.29300001 69332.51214866  3363.32032354
0.29400001 68354.75842390  3932.10766447
0.29500001 67391.53438434  3291.40269514
0.29600001 66439.91442762  4439.84749180
0.29700001 65501.89479222  3220.72831940
0.29800001 64576.62744797  3475.51425378
0.29900001 63664.11830626  3437.86255128
0.30000001 62763.13761751  3117.13137734
0.30100001 61875.22414586  3083.24256515
0.30200001 60998.30374281  3881.32225090
0.30300001 60134.05264325  3016.32422338
0.30400001 59281.37945819  2983.33556247
0.30500001 58440.67431141  3218.91249346
0.30600001 57610.16084514  2918.24283577
0.30700001 56792.02725960  3148.55014034
0.30800001 55984.64748110  3632.84394704
0.30900001 55188.57863098  3849.40354176
0.31000001 54403.43656535  4568.25678468
0.31100001 53628.76135217  2509.82615011
0.31200001 52865.61009191  2730.24456246
0.31300001 52112.35838301  2699.94141566
0.31400001 51371.11353460  3640.92784415
0.31500001 50638.79162221  2640.30672019
0.31600002 49918.23813991  2610.97356953
0.31700002 49207.09874197  3755.48595380
0.31800002 48506.12898017  2553.12021976
0.31900002 47816.00237774  3442.75233421
0.32000002 47136.00421694  3631.35793682
0.32100002 46465.59966201  2693.14628393
0.32200002 45806.15962530  2663.17024672
0.32300002 45154.96365536  2852.89073883
0.32400002 44514.91902490  3038.14336731
0.32500002 43884.36774266  2789.72938950
0.32600002 43263.57474694  2546.49413019
0.32700002 42652.60833538  2518.21011536
0.32800002 42052.26393346  2282.80725573
0.32900002 41459.50137382  2052.24541519
0.33000002 40877.82563235  2841.41779426
0.33100002 40304.53723690  2007.16604945
0.33200002 39742.29283845  2382.15314554
0.33300002 39188.69263455  2356.02431276
0.33400002 38645.07102791  2524.48938445
0.33500002 38110.48425737  2496.99904679
0.33600002 37584.88932421  2089.90786984
0.33700002 37068.69542071  1879.38294683
0.33800002 36562.54683553  2416.96727302
0.33900002 36064.86633769  2023.23909736
0.34000002 35576.47138514  2365.65757679
0.34100002 35097.43943042  2520.69821927
0.34200002 34628.40737600  2494.28430142
0.34300002 34167.63220434  2115.65988629
0.34400002 33716.64099045  2093.80350467
0.34500002 33274.34785726  1726.93873558
0.34600002 32841.69530765  2222.23341824
0.34700002 32416.91220257  2707.46063539
0.34800002 32002.11730818  1842.84201247
0.34900002 31595.69794432  1990.52906477
0.35000002 31198.63359893  2135.39057782
0.35100002 30811.12150081  2277.55820921
0.35200002 30430.84154037  1772.44444947
0.35300002 30060.75450340  2234.71659563
0.35400002 29698.82852052  2055.90150171
0.35500002 29346.11647318  2350.62404084
0.35600002 29001.45119992  1708.33056385
0.35700002 28665.63128564  1847.21336754
0.35800002 28338.71520700  1526.03988618
0.35900002 28020.94671167  1513.13119410
0.36000002 27711.36293468  1800.68444879
0.36100002 27409.72948969  1637.18321997
0.36200002 27118.00699540  1476.57555084
0.36300002 26833.33059137  1611.60991165
0.36400002 26557.76395446  1744.84517446
0.36500002 26289.57901179  1587.62775172
0.36600002 26030.63156387  1719.58360256
0.36700002 25779.31032431  2276.82879569
0.36800002 25536.98793857  1554.81958429
0.36900002 25302.61509916  1544.72472498
0.37000002 25075.61483773  1395.45803182
0.37100002 24856.64633674  2219.20149007
0.37200002 24646.30378845  1792.64899097
0.37300002 24443.45548300  1919.78908458
0.37400002 24248.32429592  1500.36513688
0.37500002 24061.13648400  1357.04816198
0.37600002 23881.83005876  2025.77633070
0.37700002 23709.80173310  1882.08415073
0.37800002 23545.38947106  1606.26654581
0.37900002 23389.24453835  1866.46180258
0.38000002 23239.61366910  1593.77278093
0.38100002 23096.69878806  2382.19362585
0.38200002 22962.22517853  1846.85185860
0.38300002 22834.15668841  1841.34648258
0.38400002 22713.51408424  1311.70550051
0.38500002 22599.26272616  1570.19684860
0.38600002 22492.91549095  1697.42794794
0.38700002 22392.42244662  1563.88685776
0.38800002 22298.73356196  1821.58363097
0.38900002 22211.67504603  1559.25966210
0.39000002 22131.73454962  1557.63155140
0.39100002 22057.38822793  1296.97448925
0.39200002 21989.95074694  1685.19995533
0.39300002 21928.25677667  1555.15204428
0.39400002 21873.79375354  1684.82904369
0.39500002 21824.25469746  2074.17726472
0.39600002 21780.82200424  1815.86721653
0.39700002 21742.58918145  1817.24568988
0.39800002 21711.29012935  1819.18908613
0.39900002 21684.47522874  1821.49600551
0.40000002 21663.65909467  1693.98990317
0.40100002 21647.77533443  2480.18573757
0.40200002 21637.69824322  1438.79881285
0.40300002 21632.43746068  1704.20350390
0.40400002 21632.27631809  2102.65735774
0.40500002 21636.56889911  1317.66710839
0.40600002 21646.64997290  1453.68084781
0.40700002 21660.76847382  1325.63909341
0.40800002 21679.30725236  1596.03067554
0.40900002 21701.96769558  1868.53950712
0.41000002 21729.67895586  1741.52520243
0.41100002 21761.26799431  1479.33106835
0.41200002 21796.12019320  1890.37759393
0.41300002 21836.23820787  1762.83959405
0.41400002 21879.39863213  1906.78968114
0.41500002 21926.27671676  1778.65965154
0.41600002 21975.83353948  1512.04729833
0.41700002 22030.31705583  1519.43103934
0.41800002 22088.31755086  2082.37623578
0.41900002 22147.73192165  2092.96076577
0.42000002 22210.86514081  1683.13944013
0.42100002 22277.64597592  1692.21006852
0.42200002 22347.00353902  2126.87616261
0.42300002 22418.42461193  1853.55543475
0.42400002 22492.58686850  1577.29272889
0.42500002 22569.60657475  1586.41772131
0.42600002 22647.71055320  1450.58592967
0.42700002 22729.29666291  1751.06509789
0.42800002 22812.10152759  1761.55056343
0.42900002 22897.89557604  1772.29720157
0.43000002 22985.08653060  1634.58450608
0.43100002 23072.62528938  1794.12742752
0.43200002 23163.01008471  1654.88133392
0.43300002 23254.12565154  2270.76547748
0.43400002 23347.07565692  1675.73643469
0.43500002 23440.58447945  1839.61715712
0.43600002 23535.96311467  2159.89543739
0.43700002 23631.58558136  2018.37382015
0.43800002 23727.66732305  2187.45375417
0.43900002 23825.48870759  2515.97172675
0.44000002 23923.22097776  2690.28594255
0.44100002 24021.78660638  1751.90898023
0.44200002 24120.55868037  2083.65456035
0.44300002 24219.80924236  2258.25512078
0.44400002 24318.89020324  2110.27179739
0.44500002 24417.62571709  1796.89316168
0.44600002 24516.26041321  1972.57840633
0.44700002 24615.67845351  2812.09523980
0.44800002 24713.69587460  2330.25449445
0.44900002 24811.99699618  2512.21481492
0.45000002 24910.16023831  2022.20690398
0.45100002 25006.71298609  2034.54626497
0.45200002 25103.15643391  2217.48742868
0.45300002 25198.40329915  1716.01134600
0.45400002 25292.97833342  1898.87043838
0.45500002 25386.89473937  1736.46368247
0.45600002 25479.23736127  2794.56288623
0.45700002 25570.91130042  2459.41036544
0.45800002 25660.80642015  2120.09592691
0.45900002 25749.45040137  1954.38337809
0.46000002 25837.13120552  1965.30147829
0.46100002 25922.53009449  2335.36084690
0.46200002 26007.01924470  1806.18757215
0.46300002 26089.75489483  2723.77054011
0.46400002 26170.16763834  2555.51699100
0.46500002 26249.93215640  3302.76662045
0.46600002 26326.77490999  2766.28600478
0.46700002 26401.72781712  2409.42179479
0.46800002 26475.43331424  2421.31086851
0.46900002 26546.32070143  2058.66726797
0.47000002 26615.23414191  2444.47629562
0.47100002 26682.23841000  3211.47436724
0.47200002 26747.05002067  2656.78460448
0.47300002 26809.44074950  2859.22699145
0.47400002 26868.90349276  2680.17325044
0.47500002 26926.48879322  2691.57194734
0.47600002 26982.27783088  1930.58207030
0.47700002 27034.41679544  2326.04133133
