# SAXS profile: number of points = 501, q_min = 0, q_max = 0.5, delta_q = 0.001
#    q    intensity    error
0.00000000 1682732.95097188 353.37391970
0.00100000 1682650.54200280 656.23372697
0.00200000 1682403.24817202 1059.91407991
0.00300000 1681991.29856020 1110.11429660
0.00400000 1681414.56177873 1639.37926003
0.00500000 1680673.55395282 1815.12751011
0.00600000 1679768.17578628 1763.75665638
0.00700000 1678698.99090830 2417.32664737
0.00800000 1677465.83218996 2717.49476288
0.00900000 1676069.92187088 2765.51548931
0.01000000 1674510.66565613 2762.94271764
0.01100000 1672789.32305155 3914.32718637
0.01200000 1670905.80827956 4887.39970350
0.01300000 1668861.33102861 4205.53073968
0.01400000 1666655.94848169 5249.96647045
0.01500000 1664290.89731980 5592.01766400
0.01600000 1661765.78574752 5085.00353170
0.01700000 1659082.85707538 5823.38108956
0.01800000 1656241.99023508 5664.34786149
0.01900000 1653243.88126999 5951.67824113
0.02000000 1650089.70083089 5717.56107202
0.02100000 1646781.51890095 5977.81718464
0.02200000 1643317.87525333 7370.28100536
0.02300000 1639702.02185400 6493.22030210
0.02400000 1635933.48404208 7975.17609835
0.02500000 1632014.78384381 8274.31533198
0.02600000 1627946.01123424 8571.13614118
0.02700000 1623729.12996440 8183.59518984
0.02800000 1619364.15732069 12679.62193330
0.02900000 1614853.68949969 7993.52613004
0.03000000 1610199.02241931 12728.62385730
0.03100000 1605400.40602495 11558.88345524
0.03200000 1600459.53088596 10298.95755560
0.03300000 1595379.88192869 12204.65665939
0.03400000 1590159.84303653 10852.84142948
0.03500000 1584802.60407379 14548.48857722
0.03600000 1579309.47646957 9641.68479942
0.03700000 1573682.19642525 14351.98229514
0.03800000 1567922.35863537 11006.81546701
0.03900000 1562032.08077728 10309.41221056
0.04000000 1556011.09651244 10526.41555569
0.04100000 1549863.57925737 10740.55510226
0.04200000 1543590.26553602 11947.38920952
0.04300000 1537192.03382643 13189.10826244
0.04400000 1530672.52460293 16531.26403346
0.04500000 1524033.15277093 11567.41216701
0.04600000 1517273.86278932 10696.78122992
0.04700000 1510398.81698432 13049.84638567
0.04800000 1503408.62683028 14365.07009774
0.04900000 1496307.23710757 14588.99624088
0.05000000 1489093.74728609 14809.03800636
0.05100000 1481773.23363869 12713.61493687
0.05200000 1474343.68981178 14065.23945626
0.05300000 1466811.49701848 11881.17367972
0.05400000 1459176.22214292 18057.30659110
0.05500000 1451440.74681440 13411.31312619
0.05600000 1443606.15609062 16045.68317371
0.05700000 1435677.36029874 17486.55106469
0.05800000 1427653.51272165 17688.62784855
0.05900000 1419537.21635671 14053.41909831
0.06000000 1411332.25821671 16787.79799579
0.06100000 1403039.92186898 16962.75344809
0.06200000 1394662.51169373 18451.38589219
0.06300000 1386203.02445443 17299.81455405
0.06400000 1377660.50870502 22834.72399969
0.06500000 1369041.21839291 14908.85956570
0.06600000 1360345.58645002 13671.47378349
0.06700000 1351575.72783779 13786.07306912
0.06800000 1342734.54153605 15287.03347096
0.06900000 1333824.67165747 19607.22359135
0.07000000 1324846.93449806 15520.58256445
0.07100000 1315804.53393156 17052.82755847
0.07200000 1306699.78987067 14308.36336938
0.07300000 1297535.49259758 20163.70249975
0.07400000 1288313.97117973 17392.23942600
0.07500000 1279036.60273267 18955.32334098
0.07600000 1269704.85449172 24930.65598671
0.07700000 1260323.96937991 20644.10758641
0.07800000 1250894.27944081 23716.95665043
0.07900000 1241417.68104340 23835.22059399
0.08000000 1231898.25606428 19457.83386732
0.08100000 1222337.44261996 24055.60199941
0.08200000 1212736.40138126 16608.42579627
0.08300000 1203099.03054370 21222.66789481
0.08400000 1193426.93233929 16737.81351171
0.08500000 1183722.48222410 16797.02281130
0.08600000 1173987.66615653 16852.59373893
0.08700000 1164226.11395599 16904.56396844
0.08800000 1154437.55034200 23117.61303129
0.08900000 1144627.14613879 16997.71391854
0.09000000 1134795.06728269 18587.94407527
0.09100000 1124943.72093099 18629.06889383
0.09200000 1115075.42375735 23332.95433846
0.09300000 1105195.01771982 18699.90057857
0.09400000 1095299.31792426 28094.42882512
0.09500000 1085393.84624265 18755.60654464
0.09600000 1075480.57078561 18777.89164862
0.09700000 1065563.15649995 21929.29079173
0.09800000 1055641.40521000 29784.92364842
0.09900000 1045718.64336967 20391.51450457
0.10000000 1035795.25473738 21969.21838613
0.10100000 1025873.78226080 17265.45656747
0.10200000 1015957.63246476 21975.16462384
0.10300000 1006047.22658920 20402.63871498
0.10400000 996146.19750968 17258.23368377
0.10500000 986257.17234641 20385.93671155
0.10600001 976377.06192891 17237.93783946
0.10700001 966513.86259829 26617.79302853
0.10800001 956665.89860293 18769.78581393
0.10900001 946836.96537996 15622.81066407
0.11000001 937027.28052758 15601.50495514
0.11100001 927239.25898764 28039.71651171
0.11200001 917474.86015832 17106.31957297
0.11300001 907735.55286646 18626.73442178
0.11400001 898023.77213728 20138.18403837
0.11500001 888341.17377116 18548.56458176
0.11600001 878688.58354464 15420.98536741
0.11700001 869069.18762804 18459.03041455
0.11800001 859481.79975485 21478.45118747
0.11900001 849929.78604003 16828.61055625
0.12000001 840413.68632992 16778.86003794
0.12100001 830938.35279556 16726.78982974
0.12200001 821501.60918000 21219.38756479
0.12300001 812107.42152681 15105.19875207
0.12400001 802754.80899844 22577.48006687
0.12500001 793445.78045454 17995.35114866
0.12600001 784184.21344692 23901.93595220
0.12700001 774968.68314339 16367.33935932
0.12800001 765801.14518441 23709.20457231
0.12900001 756683.64380806 17706.39809965
0.13000001 747617.06956253 20566.94655309
0.13100001 738601.46686485 17549.17167994
0.13200001 729639.77454412 18923.20844485
0.13300001 720732.51742560 17384.06913984
0.13400001 711879.86600718 20181.79515279
0.13500001 703084.53009060 15777.21759910
0.13600001 694346.79966946 18549.47562779
0.13700001 685667.71117724 14193.32229063
0.13800001 677046.48113994 19762.98771641
0.13900001 668487.51082157 15442.06222820
0.14000001 659988.90368096 16750.51916539
0.14100001 651553.71499619 18041.52321914
0.14200001 643180.91859545 20694.34703186
0.14300001 634873.21497252 16455.91450827
0.14400001 626627.18384385 20443.71283723
0.14500001 618449.63201366 17607.26185400
0.14600001 610337.26499779 14803.73106088
0.14700001 602293.15527949 14707.99954580
0.14800001 594314.26489970 19924.38667077
0.14900001 586404.48921104 13194.10162976
0.15000001 578563.14116463 18346.23807196
0.15100001 570791.07936655 14315.44094599
0.15200001 563089.99307164 14215.20754587
0.15300001 555459.13902317 14114.21738861
0.15400001 547897.02699347 16560.18842237
0.15500001 540408.08061658 15174.65961985
0.15600001 532988.62544169 17572.63581015
0.15700001 525644.12626771 13703.54301856
0.15800001 518368.69065578 16072.02201236
0.15900001 511168.24182181 15948.44989762
0.16000001 504038.13293215 14607.02578186
0.16100001 496983.47121881 12076.69892069
0.16200001 490001.52029483 17970.80660514
0.16300001 483092.74954651 14260.89863984
0.16400001 476258.21008753 12966.13038176
0.16500001 469496.52821484 16366.64974626
0.16600001 462809.64476686 13912.05857852
0.16700001 456195.51146205 17244.19114745
0.16800001 449655.81875512 12538.65309802
0.16900001 443191.34606874 13561.65583006
0.17000001 436799.26188859 13444.68191578
0.17100001 430482.06200638 13327.72526907
0.17200001 424238.46216476 12109.88747436
0.17300001 418068.79364215 10911.59602935
0.17400001 411973.52918307 15140.02791248
0.17500001 405950.86188604 10717.10325993
0.17600001 400000.68995155 12744.02258375
0.17700001 394126.60429220 13680.13508110
0.17800001 388323.63633889 13554.43716661
0.17900001 382593.26324535 12396.02231466
0.18000001 376937.05578419 11257.22570273
0.18100001 371353.45273877 13179.33466024
0.18200001 365839.88497709 11046.53584870
0.18300001 360398.91437648 12931.11365869
0.18400001 355029.37335904 13792.89180658
0.18500001 349731.32042066 12684.75559091
0.18600001 344504.26647824 14495.01769687
0.18700001 339346.78578237 9569.57981118
0.18800001 334258.03049013 13266.70185695
0.18900001 329242.43990152 11260.09197664
0.19000001 324291.66541154 11149.14798363
0.19100001 319412.55512305 12878.71483108
0.19200001 314599.89167071 10018.43402364
0.19300001 309856.93823337 11721.88852726
0.19400001 305179.42438103 10711.79830195
0.19500001 300569.46147419 10604.09110191
0.19600001 296024.42301667 13121.28317028
0.19700001 291547.18378343 12122.53247460
0.19800001 287133.84297964 10285.13474159
0.19900001 282785.41618125 13573.70061819
0.20000001 278499.66092462 8396.76517372
0.20100001 274279.09205591 9141.72257028
0.20200001 270120.04837239 9870.18703403
0.20300001 266023.70662633 13024.52129202
0.20400001 261989.40960165 9667.40967124
0.20500001 258015.40632254 8769.94407543
0.20600001 254101.57924475 11834.78161273
0.20700001 250247.81828678 8588.50552957
0.20800001 246452.71855279 10816.81032859
0.20900001 242718.37833155 8410.19220675
0.21000001 239038.89755354 9835.25590478
0.21100001 235418.25065488 8983.56086967
0.21200001 231852.83995661 8889.23830417
0.21300001 228343.25456772 8795.78258177
0.21400001 224889.23866731 7977.94611889
0.21500001 221490.74553314 15070.23103856
0.21600001 218144.28799968 7810.65660111
0.21700001 214851.57694575 9835.90565761
0.21800001 211611.54679175 9036.87153301
0.21900001 208422.19650645 7565.72609090
0.22000001 205283.38641540 9527.20241401
0.22100001 202196.54472859 9426.40336096
0.22200001 199158.75307720 8660.41878707
0.22300001 196169.44795728 9886.94064455
0.22400001 193227.75743111 6521.43712168
0.22500001 190335.78824644 9678.57529001
0.22600001 187488.58948824 7660.78412875
0.22700001 184688.62654298 7579.62159176
0.22800001 181933.45955420 8124.23902059
0.22900001 179222.59150204 7419.81563907
0.23000001 176556.36197948 6117.67823191
0.23100001 173934.48300835 10895.25653091
0.23200001 171353.70078068 5988.81212552
0.23300001 168816.06757168 6517.98867721
0.23400001 166318.64130469 6449.00562160
0.23500001 163861.79119722 9281.13229237
0.23600001 161445.54777048 8035.14529258
0.23700001 159068.54348761 7382.37145243
0.23800001 156729.62539057 6742.50880321
0.23900001 154429.21929087 6115.39737317
0.24000001 152165.41572540 9351.32606573
0.24100001 149939.68592942 5987.09194236
0.24200001 147749.81112895 8078.22130559
0.24300001 145594.62602215 6927.39263382
0.24400001 143474.43508710 8963.56575608
0.24500001 141388.01463425 7825.82698020
0.24600001 139335.37035636 7227.32600227
0.24700001 137316.31646315 6640.61737830
0.24800001 135329.32143143 5054.55039458
0.24900001 133372.81773108 7502.22135228
0.25000001 131448.97779456 5938.86509772
0.25100001 129554.71797624 5386.88542830
0.25200001 127692.34563220 5815.10969520
0.25300001 125857.86574317 5274.70340284
0.25400001 124053.35053548 6643.05723547
0.25500001 122275.45170371 7043.06635135
0.25600001 120527.04623902 5575.58142281
0.25700001 118804.82998865 7816.17013476
0.25800001 117109.44160492 5459.64242594
0.25900001 115441.46848187 8554.21321925
0.26000001 113798.12226316 7128.31471584
0.26100001 112179.82867675 5731.26771828
0.26200001 110587.48933166 5671.47965873
0.26300001 109018.07999647 4748.82778935
0.26400001 107473.33917541 4699.27197781
0.26500001 105951.95648441 4650.23159014
0.26600001 104453.01598320 6275.01523212
0.26700001 102976.94508031 5381.57540455
0.26800001 101523.21205819 5325.40034052
0.26900001 100090.13677529 4459.01580435
0.27000001 98678.93747077  4412.42889781
0.27100001 97288.25816962  5954.04168174
0.27200001 95918.58379174  5106.22604980
0.27300001 94568.75171887  4275.45346754
0.27400001 93237.15805218  4615.23954200
0.27500001 91926.86482245  4566.92686051
0.27600001 90633.30753363  4142.39551687
0.27700001 89360.16612402  3726.31910373
0.27800001 88104.02441642  4424.58431560
0.27900001 86866.29279918  4013.22291726
0.28000001 85645.55571683  4692.94844761
0.28100001 84442.28362829  3929.09964318
0.28200001 83256.36212075  4947.92583502
0.28300001 82086.80639752  3846.58792985
0.28400001 80932.89040824  4151.85747445
0.28500001 79795.81973487  3423.24082865
0.28600001 78673.97832554  3386.91492722
0.28700001 77568.46239134  4691.34082748
0.28800001 76476.54499086  3646.78422050
0.28900001 75401.27637379  4919.93351627
0.29000001 74339.90903947  3569.43090149
0.29100001 73293.55645928  3852.30950985
0.29200001 72261.10069813  3493.46307862
0.29300001 71243.03774787  3455.99992474
0.29400001 70238.04347949  3729.64028531
0.29500001 69247.88860552  3074.60639963
0.29600001 68269.88244195  3041.42340676
0.29700001 67305.70458912  4211.99119257
0.29800001 66354.71976660  3868.81211914
0.29900001 65416.94886622  3826.89168984
0.30000001 64490.86124430  3785.29127993
0.30100001 63578.34066245  3456.11876202
0.30200001 62677.17879378  3988.14907545
0.30300001 61788.97410786  3381.09282325
0.30400001 60912.72585279  3901.46027557
0.30500001 60048.84361879  4409.98728414
0.30600001 59195.45268338  2998.54579764
0.30700001 58354.76578302  3504.78739886
0.30800001 57525.17201213  3199.55021879
0.30900001 56707.34102996  3164.26977928
0.31000001 55900.71175115  3390.09882465
0.31100001 55104.85312333  3610.47014758
0.31200001 54320.82737791  3315.47185598
0.31300001 53546.99724797  3026.47642775
0.31400001 52785.51344290  3491.76187957
0.31500001 52033.16500840  2959.64656581
0.31600002 51293.01559793  4877.96601432
0.31700002 50562.60400775  3135.38722298
0.31800002 49842.59634374  3338.95568716
0.31900002 49133.79783367  2830.10688922
0.32000002 48435.43624447  3265.03291184
0.32100002 47746.86806183  2767.40860390
0.32200002 47069.61063125  3192.73184029
0.32300002 46401.01268245  2706.10718778
0.32400002 45743.75829178  3122.01165125
0.32500002 45096.05312510  4410.39420447
0.32600002 44458.56389545  2398.76192857
0.32700002 43831.26254370  2372.14804119
0.32800002 43214.73154006  2559.17652299
0.32900002 42606.08487764  2319.90143144
0.33000002 42008.70534354  2294.30555098
0.33100002 41419.99621718  3300.34545487
0.33200002 40842.60956352  2244.09728874
0.33300002 40274.06977129  2017.73099109
0.33400002 39715.78173696  2195.28993947
0.33500002 39166.85114706  2961.01408694
0.33600002 38627.09076782  2733.63934309
0.33700002 38096.91636922  1931.51375139
0.33800002 37577.03478583  2675.10923309
0.33900002 37065.92103715  1890.36206242
0.34000002 36564.19275283  2618.36196703
0.34100002 36072.17396397  1850.50261199
0.34200002 35590.25821258  2563.56642046
0.34300002 35116.75217183  1812.02449788
0.34400002 34653.40872807  2689.97097991
0.34500002 34198.83355140  2662.37931807
0.34600002 33754.25214241  2283.98157939
0.34700002 33317.64069714  2087.01711211
0.34800002 32891.21606705  2238.41181546
0.34900002 32473.31929751  2557.27401580
0.35000002 32065.06854736  2194.69372067
0.35100002 31666.48821897  1671.99065715
0.35200002 31275.30722388  1987.23311513
0.35300002 30894.50247332  2624.79705445
0.35400002 30521.92689508  1950.35122097
0.35500002 30158.83623021  2093.62651026
0.35600002 29804.04747955  2553.61090900
0.35700002 29458.13397884  1740.09205655
0.35800002 29121.35802045  1568.18520368
0.35900002 28793.84282673  1710.35434492
0.36000002 28474.63923540  1541.90178763
0.36100002 28163.57601223  1835.13869988
0.36200002 27862.66218542  1517.12202786
0.36300002 27568.73418467  1655.77825356
0.36400002 27284.14711863  2240.71068825
0.36500002 27007.08709166  1927.49589703
0.36600002 26739.42733872  1619.20609919
0.36700002 26479.48010428  1900.16758229
0.36800002 26228.71340165  2177.63903332
0.36900002 25985.95888374  1730.66494364
0.37000002 25750.67521283  2006.23520087
0.37100002 25523.56036188  2563.58652418
0.37200002 25305.21727479  1840.57506567
0.37300002 25094.54239108  1407.80389483
0.37400002 24891.55335766  2240.23990831
0.37500002 24696.68792901  1810.76124473
0.37600002 24509.77085259  1663.23312885
0.37700002 24330.34768406  1655.43693484
0.37800002 24158.45913461  1373.40846686
0.37900002 23995.04125838  1641.26089982
0.38000002 23838.24799088  1498.59153094
0.38100002 23688.21273698  1493.06811954
0.38200002 23546.68465074  1758.58422645
0.38300002 23411.76704800  1753.07319960
0.38400002 23284.22332806  2285.92873353
0.38500002 23163.17386737  1877.60696264
0.38600002 23050.14836428  2408.51011669
0.38700002 22943.02278563  1602.34078726
0.38800002 22842.74399569  2799.03576812
0.38900002 22749.23668872  1596.99649121
0.39000002 22662.79081186  1462.09001850
0.39100002 22582.07321244  1726.17375814
0.39200002 22508.50845039  1459.56429961
0.39300002 22440.49278805  1591.47982393
0.39400002 22379.91959141  1326.01029861
0.39500002 22324.24491412  1591.27225287
0.39600002 22274.69252364  1591.74960315
0.39700002 22230.46655210  1327.15891604
0.39800002 22193.26503553  1859.57376543
0.39900002 22160.52699346  1595.55801912
0.40000002 22133.79956535  1730.75253901
0.40100002 22112.10385538  1466.69591822
0.40200002 22096.27036175  2003.57940998
0.40300002 22085.28934085  1739.87917671
0.40400002 22079.47258809  1475.46082561
0.40500002 22078.05915874  1747.92002641
0.40600002 22082.56268735  1348.14051594
0.40700002 22090.99983026  1351.96925367
0.40800002 22103.98684742  1627.29558881
0.40900002 22121.18595795  1496.49830096
0.41000002 22143.42678564  1501.65655862
0.41100002 22169.58543940  1644.09653409
0.41200002 22198.96037156  1787.79335823
0.41300002 22233.71187158  1932.99900171
0.41400002 22271.50344680  1663.68138631
0.41500002 22313.02156559  1949.26565633
0.41600002 22357.15319039  1538.28399815
0.41700002 22406.31338341  1685.85109885
0.41800002 22459.07286495  2258.48447432
0.41900002 22513.19985686  1701.99798983
0.42000002 22571.07656572  1852.97261847
0.42100002 22632.64185609  1432.64629738
0.42200002 22696.68352793  1440.10463809
0.42300002 22762.94619126  1882.04048027
0.42400002 22831.86857993  1746.63802913
0.42500002 22903.78192879  1463.55173460
0.42600002 22976.67087045  1618.82142289
0.42700002 23053.05042087  1776.00708858
0.42800002 23130.67198784  1934.99645684
0.42900002 23211.27763565  1646.84022629
0.43000002 23293.38749972  1957.69284518
0.43100002 23375.80430518  1666.22740983
0.43200002 23461.06230110  2133.31449613
0.43300002 23547.05407404  2146.07861001
0.43400002 23634.92238746  2467.48601418
0.43500002 23723.31681909  1861.80599219
0.43600002 23813.66531632  2341.47875319
0.43700002 23904.19028827  2041.65698927
0.43800002 23995.13843730  1738.08793507
0.43900002 24087.90305073  2066.74217969
0.44000002 24180.52861140  2239.35886082
0.44100002 24273.99570791  1770.30259087
0.44200002 24367.69281482  1781.15659071
0.44300002 24461.90119250  2117.91150562
0.44400002 24555.87556011  1639.10477132
0.44500002 24649.54632348  1813.96019991
0.44600002 24743.09912224  1824.92736225
0.44700002 24837.45826153  2169.80045656
0.44800002 24930.43503120  2518.59731839
0.44900002 25023.68321675  2871.46778521
0.45000002 25116.77255375  2208.89466692
0.45100002 25208.30343150  2050.94766439
0.45200002 25299.71024041  2750.58462769
0.45300002 25389.87429865  2247.76567819
0.45400002 25479.41168739  1912.86692309
0.45500002 25568.32452015  2273.53552408
0.45600002 25655.63159484  1758.69362918
0.45700002 25742.26291373  2122.19225519
0.45800002 25827.15525853  2489.47961336
0.45900002 25910.71849960  2324.19155957
0.46000002 25993.44840536  2156.93645090
0.46100002 26073.74655631  2348.98393859
0.46200002 26153.25572859  1816.34369644
0.46300002 26230.97317209  2921.08131089
0.46400002 26306.40236103  2018.35881681
0.46500002 26381.17830647  2212.85334123
0.46600002 26452.96963436  2408.93979393
0.46700002 26522.95458793  1861.91150032
0.46800002 26591.69250171  2431.94335301
0.46900002 26657.58641122  1879.35993107
0.47000002 26721.50034615  2265.44890672
0.47100002 26783.56700833  2465.15962429
0.47200002 26843.43759624  2094.99618650
0.47300002 26900.95238973  2868.98670835
0.47400002 26955.42541948  2496.74639782
0.47500002 27008.08728481  2314.05302824
0.47600002 27058.95399707  2904.10237538
0.47700002 27106.18885478  2915.27074951
