# SAXS profile: number of points = 501, q_min = 0, q_max = 0.5, delta_q = 0.001
#    q    intensity    error
0.00000000 1682732.95097188 252.40994265
0.00100000 1682650.35436463 555.27463013
0.00200000 1682402.49707028 908.49737719
0.00300000 1681989.61986004 1311.95195023
0.00400000 1681411.57666928 1891.58809563
0.00500000 1680668.89484305 2117.64289132
0.00600000 1679761.46683020 2292.87449557
0.00700000 1678689.85634377 2417.31349360
0.00800000 1677453.91707678 3623.30061386
0.00900000 1676054.83655056 3016.89883476
0.01000000 1674492.06561442 3315.49443308
0.01100000 1672766.82623604 5419.76475298
0.01200000 1670879.07243594 4235.67863433
0.01300000 1668829.98404976 4205.45174529
0.01400000 1666619.55814759 4124.88358928
0.01500000 1664249.25450525 5192.45790527
0.01600000 1661718.46929530 5508.59697197
0.01700000 1659029.46727301 4927.31773883
0.01800000 1656182.21948759 6136.15539931
0.01900000 1653177.36254996 5455.48554258
0.02000000 1650016.14574746 7796.32664133
0.02100000 1646700.56239797 7064.34573297
0.02200000 1643229.13044388 5669.14075759
0.02300000 1639605.18410432 7083.09471774
0.02400000 1635828.23218319 6747.79176544
0.02500000 1631900.74366985 8910.17846737
0.02600000 1627822.88183183 7251.95127025
0.02700000 1623596.77806799 8864.83881427
0.02800000 1619222.10587147 9861.06307698
0.02900000 1614701.61006787 10899.23636839
0.03000000 1610036.58513065 7486.67046498
0.03100000 1605227.37136798 10787.12843194
0.03200000 1600275.52239252 8713.50062075
0.03300000 1595184.82472129 8948.98727924
0.03400000 1589953.20824529 9181.98020128
0.03500000 1584584.29000202 11123.78222949
0.03600000 1579079.09694461 9640.27833236
0.03700000 1573439.52264737 8968.60569387
0.03800000 1567667.22396277 12839.19515845
0.03900000 1561764.09717291 11244.70202039
0.04000000 1555729.96767883 11481.28769350
0.04100000 1549569.18412144 10738.51494387
0.04200000 1543282.21030173 9954.17071825
0.04300000 1536870.21782985 11157.67829936
0.04400000 1530336.80045434 15494.66082420
0.04500000 1523683.09180972 13667.43796859
0.04600000 1516909.34944075 18180.15939819
0.04700000 1510019.64219119 13046.57031530
0.04800000 1503014.73012673 12151.87465848
0.04900000 1495898.13621866 12341.16019825
0.05000000 1488669.47553207 12527.15421994
0.05100000 1481333.45795138 13865.28181233
0.05200000 1473888.35802961 15232.63689010
0.05300000 1466340.36870795 15440.56480230
0.05400000 1458689.19303386 15644.44232485
0.05500000 1450937.72983677 18281.81624878
0.05600000 1443086.64584391 13572.23053750
0.05700000 1435141.76458521 16231.45411512
0.05800000 1427101.45509860 17681.78785428
0.05900000 1418968.42826997 16601.93138617
0.06000000 1410746.75208399 14199.16672309
0.06100000 1402437.54791768 15651.20376616
0.06200000 1394043.29328470 14491.08071106
0.06300000 1385566.77327544 21282.30663257
0.06400000 1377007.20369932 16110.98503674
0.06500000 1368370.55758243 13546.86915376
0.06600000 1359657.74020794 20496.84139265
0.06700000 1350870.58416027 16534.65672393
0.06800000 1342011.92902457 19445.75376180
0.06900000 1333084.64069781 16796.86725920
0.07000000 1324089.58265543 18332.02113032
0.07100000 1315029.77911601 15622.55450762
0.07200000 1305907.43380366 17159.62448405
0.07300000 1296725.66595690 23029.84890647
0.07400000 1287486.58279233 14484.22473520
0.07500000 1278191.81342835 17485.66482730
0.07600000 1268842.41125819 16120.64359078
0.07700000 1259444.14617340 19156.14636150
0.07800000 1249996.83022565 19256.20207267
0.07900000 1240502.76938445 16374.63732391
0.08000000 1230966.13157866 22434.35880044
0.08100000 1221387.89003585 18027.68610276
0.08200000 1211769.65174445 21121.14602102
0.08300000 1202114.99972149 16661.31467809
0.08400000 1192425.83752655 24325.48822735
0.08500000 1182704.28714371 27462.39483670
0.08600000 1172952.54580815 19899.14087393
0.08700000 1163174.09557695 18424.67853912
0.08800000 1153368.85115855 16937.22237470
0.08900000 1143541.90648693 18525.37975522
0.09000000 1133693.06371381 20117.38436063
0.09100000 1123825.47434643 24814.06763936
0.09200000 1113940.83202045 24863.16053893
0.09300000 1104044.32687791 18680.43088861
0.09400000 1094132.76331194 20268.81039294
0.09500000 1084211.55150660 17173.91178308
0.09600000 1074282.39759421 23446.21442965
0.09700000 1064349.58211439 17210.53355190
0.09800000 1054412.58842304 17223.83044171
0.09900000 1044474.84606798 25067.39748436
0.10000000 1034536.41704842 17240.55020089
0.10100000 1024600.40066090 18811.66424088
0.10200000 1014669.56937064 20379.63925939
0.10300000 1004745.06170725 18808.82843994
0.10400000 994830.12451308 17235.43271803
0.10500000 984927.13785547 20358.44489732
0.10600001 975033.46474047 17214.21662998
0.10700001 965156.88856483 20326.20502968
0.10800001 955295.77952767 20304.81274944
0.10900001 945454.07179886 23399.98937836
0.11000001 935631.56523188 17136.09292381
0.11100001 925831.32837874 15553.96704894
0.11200001 916054.94518101 23290.69807769
0.11300001 906303.73459512 18597.35350947
0.11400001 896580.49190426 17012.61563491
0.11500001 886886.63743576 24690.92514886
0.11600001 877223.29744498 16934.79655466
0.11700001 867593.26056729 16892.04157877
0.11800001 857995.46106676 21441.30758191
0.11900001 848433.39715224 21380.52261529
0.12000001 838907.52904773 18271.40684333
0.12100001 829422.81238884 18214.12581809
0.12200001 819977.36413991 16641.44138922
0.12300001 810574.36099812 16584.35220738
0.12400001 801213.15236297 16525.02204610
0.12500001 791896.33769298 17960.20978517
0.12600001 782626.94231353 20872.66153509
0.12700001 773404.02229710 17819.22951348
0.12800001 764229.36940577 16266.62289444
0.12900001 755105.18038311 23559.28273835
0.13000001 746032.40259767 20523.35236283
0.13100001 737010.83552284 14592.81523122
0.13200001 728043.52813657 21786.70360652
0.13300001 719130.95346065 14454.53284599
0.13400001 710273.65638801 17259.65066395
0.13500001 701473.78552981 17172.07907940
0.13600001 692731.79106900 15659.20287546
0.13700001 684049.04397218 15575.79746570
0.13800001 675424.43033166 16899.12004379
0.13900001 666862.38693787 19605.75510055
0.14000001 658361.12603343 22278.94155566
0.14100001 649923.61724686 13843.37370025
0.14200001 641549.16826580 15137.35333919
0.14300001 633240.07254272 13677.98621208
0.14400001 624992.93608874 20390.39550171
0.14500001 616814.44123230 16209.88428024
0.14600001 608702.00269263 13421.87979254
0.14700001 600657.95865702 13334.60731127
0.14800001 592679.35911349 18544.93802159
0.14900001 584770.57505531 14473.07241547
0.15000001 576930.48422040 14374.22369257
0.15100001 569160.08043973 19465.27566951
0.15200001 561460.99429546 14174.08346982
0.15300001 553832.52772950 17910.94479197
0.15400001 546273.32502388 13970.94094679
0.15500001 538787.32506376 15129.14880178
0.15600001 531371.69833662 13765.18449506
0.15700001 524031.20601215 13661.49418552
0.15800001 516760.17236096 16022.14990028
0.15900001 509564.51760271 17121.36859959
0.16000001 502439.42724528 12133.91274072
0.16100001 495390.28109590 15649.37971854
0.16200001 488414.36721383 17912.59776315
0.16300001 481511.84177978 14214.23024036
0.16400001 474683.94661917 12923.27105681
0.16500001 467929.47536830 17477.16673013
0.16600001 461249.92988496 13865.17354696
0.16700001 454643.65215033 16039.82880518
0.16800001 448112.07118739 11359.64154096
0.16900001 441656.16981917 13514.67943460
0.17000001 435272.95696778 11164.75187342
0.17100001 428965.07754854 12174.02947570
0.17200001 422731.09409190 15357.82137360
0.17300001 416571.36010235 11959.76431333
0.17400001 410486.51573246 11852.79870154
0.17500001 404474.47141384 17085.00247940
0.17600001 398535.31380154 15871.66962175
0.17700001 392672.58307438 10484.35846327
0.17800001 386881.41736053 16620.42647483
0.17900001 381163.11525424 12349.68551756
0.18000001 375519.20850706 18351.62458658
0.18100001 369948.47476342 16159.35014098
0.18200001 364447.83180431 11004.50280116
0.18300001 359020.08179384 13872.53661584
0.18400001 353664.26258569 13739.85725053
0.18500001 348380.22042302 9719.80860899
0.18600001 343167.37688836 10588.42991412
0.18700001 338024.59580379 11438.75286242
0.18800001 332950.69842198 9439.15274623
0.18900001 327950.09715511 14019.86731578
0.19000001 323014.78147888 9254.37392663
0.19100001 318151.44283423 10995.31438388
0.19200001 313354.69392466 10885.94258132
0.19300001 308627.93255715 13471.60989269
0.19400001 303966.86071082 8891.03109593
0.19500001 299373.60950101 9681.74298877
0.19600001 294845.80598329 10455.23277424
0.19700001 290385.80202031 10349.35047309
0.19800001 285989.91902530 12805.19922952
0.19900001 281659.20853656 8449.77665543
0.20000001 277391.37111742 9199.68525790
0.20100001 273188.96342672 8277.62598305
0.20200001 269048.22126431 11469.52621459
0.20300001 264970.52535975 8108.09845923
0.20400001 260955.01041978 9629.24033962
0.20500001 256999.87521348 9529.55582335
0.20600001 253105.18838827 8644.80811802
0.20700001 249270.79668071 9332.69906887
0.20800001 245495.30648605 9235.53386657
0.20900001 241780.66696848 9139.30964344
0.21000001 238121.11362406 9797.49368321
0.21100001 234520.43964849 8203.52536671
0.21200001 230974.99152368 11069.47699208
0.21300001 227485.79584101 10953.44158757
0.21400001 224052.20729993 9393.38923514
0.21500001 220674.22383925 9294.79874754
0.21600001 217348.37004607 7782.15875743
0.21700001 214076.67208748 7700.33825906
0.21800001 210857.29946393 9697.32766084
0.21900001 207689.06273691 7539.11333381
0.22000001 204571.24997951 8815.99843471
0.22100001 201505.58242000 9394.19069661
0.22200001 198489.11724780 6639.46128588
0.22300001 195520.89148112 7883.40271729
0.22400001 192600.62681587 7150.29860865
0.22500001 189729.99298577 9647.77059954
0.22600001 186904.26566019 9546.13582001
0.22700001 184125.84598085 6926.81465336
0.22800001 181392.17198065 6853.90354241
0.22900001 178702.87032712 11097.44877212
0.23000001 176058.04061534 7320.49367499
0.23100001 173457.95623794 8450.87202758
0.23200001 170898.75409435 6570.20291189
0.23300001 168382.67066947 7092.27842402
0.23400001 165906.85936271 7017.86048295
0.23500001 163471.63259277 6365.58567423
0.23600001 161076.81354040 6298.90909142
0.23700001 158721.33220216 9632.79810696
0.23800001 156403.99440849 7289.20850418
0.23900001 154125.01752468 6658.20107200
0.24000001 151882.66315965 5490.55853293
0.24100001 149678.03799941 5976.64434002
0.24200001 147509.56127486 6989.74089164
0.24300001 145375.57068474 5852.82075262
0.24400001 143276.50847525 6318.49432265
0.24500001 141211.08191950 7294.96483704
0.24600001 139179.45303848 5672.25887691
0.24700001 137181.25631312 6634.08586913
0.24800001 135214.89733549 5555.30431983
0.24900001 133278.99823753 5497.75893738
0.25000001 131375.65707911 7419.44058454
0.25100001 129501.76481563 4895.16694162
0.25200001 127659.75844309 5813.62567454
0.25300001 125845.42292289 5274.18192422
0.25400001 124060.94401228 6643.46386617
0.25500001 122302.96327722 6575.00761686
0.25600001 120574.16079090 6042.57435393
0.25700001 118871.45967580 5520.39084853
0.25800001 117195.56561137 5918.96232125
0.25900001 115546.66839564 5407.58433677
0.26000001 113922.38372652 4906.06768732
0.26100001 112322.94507854 4414.29195045
0.26200001 110749.26405237 6553.58801039
0.26300001 109198.24829904 4756.67592098
0.26400001 107671.92451287 4707.95512210
0.26500001 106168.64766714 4659.74216660
0.26600001 104687.52082598 5869.82957047
0.26700001 103229.08729167 4564.79045604
0.26800001 101792.75365909 4928.80536541
0.26900001 100377.01379664 6097.90387671
0.27000001 98982.89035648  4426.02015174
0.27100001 97608.95461197  4380.69009029
0.27200001 96255.91347026  6700.85573334
0.27300001 94922.28991577  4291.43693018
0.27400001 93606.85900747  4247.41142847
0.27500001 92312.35572654  4586.07804953
0.27600001 91034.49144306  3782.48329847
0.27700001 89776.64134764  4118.05473351
0.27800001 88535.62095234  4446.25909466
0.27900001 87312.64431775  4033.84435839
0.28000001 86106.51870059  4718.20691550
0.28100001 84917.56231790  5747.22088969
0.28200001 83745.72549516  5688.00994484
0.28300001 82589.99642378  4925.66761985
0.28400001 81449.52045190  4526.55731336
0.28500001 80325.51299941  4135.15760493
0.28600001 79216.70798161  4433.36327203
0.28700001 78123.83221979  3374.94971164
0.28800001 77044.25925752  3339.86879690
0.28900001 75981.15771214  3305.18051692
0.29000001 74931.56860509  4251.99206176
0.29100001 73896.72872941  3560.34455871
0.29200001 72875.51865253  3523.16711603
0.29300001 71868.38903158  3169.39610632
0.29400001 70873.98908531  4077.02641512
0.29500001 69894.18326109  3413.63207206
0.29600001 68926.20612148  3684.79515368
0.29700001 67971.73948559  4253.67165837
0.29800001 67030.23951563  3006.30638459
0.29900001 66101.60085187  4164.40105081
0.30000001 65184.36900294  4120.30415973
0.30100001 64280.36904789  4076.66119801
0.30200001 63387.44995897  3745.24765813
0.30300001 62507.20731631  3990.46030399
0.30400001 61638.58941112  3947.95183869
0.30500001 60782.00084528  2789.89397088
0.30600001 59935.61280420  2760.03510030
0.30700001 59101.67807195  3822.69671867
0.30800001 58278.54455793  4592.05813585
0.30900001 57466.75478845  3206.64506901
0.31000001 56665.98237200  2643.46820281
0.31100001 55875.55954053  3660.96683442
0.31200001 55096.77760155  3104.15259704
0.31300001 54327.77035838  2814.72191553
0.31400001 53570.94107047  3543.71791959
0.31500001 52822.86053579  3004.56444953
0.31600002 52086.78725121  3715.09027659
0.31700002 51360.13129261  2694.86621652
0.31800002 50643.52837477  3150.28083171
0.31900002 49937.78551268  2397.01381811
0.32000002 49242.19642205  3793.61899198
0.32100002 48556.27939385  2345.26840577
0.32200002 47881.25515801  2551.83161448
0.32300002 47214.54772514  2294.62712809
0.32400002 46559.00168227  2496.72658343
0.32500002 45912.73173739  2469.64595710
0.32600002 45276.37163871  2220.80613404
0.32700002 44649.82919105  2855.80321029
0.32800002 44033.93021686  2607.68947092
0.32900002 43425.48249764  3439.29837668
0.33000002 42828.06771528  2764.33776158
0.33100002 42239.06722081  2313.85621193
0.33200002 41661.22546663  2705.27180378
0.33300002 41091.90293156  3088.05665154
0.33400002 40532.64899121  2036.76570826
0.33500002 39982.29810084  2619.64029562
0.33600002 39440.97706522  2193.11563357
0.33700002 38909.06745274  3550.84166389
0.33800002 38386.99617743  2537.57250248
0.33900002 37873.60859058  2704.17578143
0.34000002 37369.40403297  2102.58961749
0.34100002 36874.58778225  1891.66644282
0.34200002 36389.59263929  2433.91801895
0.34300002 35912.91509575  2223.72780804
0.34400002 35446.03039260  3118.36467147
0.34500002 34987.82901005  2905.38945859
0.34600002 34539.31680180  1797.77152468
0.34700002 34098.52218986  2135.93153113
0.34800002 33667.71213024  2291.25625754
0.34900002 33245.35942764  2094.45774314
0.35000002 32832.33457584  1901.48474702
0.35100002 32428.75720415  2054.68615377
0.35200002 32032.40553334  1865.72754866
0.35300002 31646.35261832  2016.50568435
0.35400002 31268.22712350  2164.54312515
0.35500002 30899.37364777  2310.03728332
0.35600002 30538.64334809  2453.01664312
0.35700002 30186.68158436  1783.12736565
0.35800002 29843.74139713  2089.21121546
0.35900002 29509.81251208  2549.64792181
0.36000002 29184.06838075  2054.41259097
0.36100002 28866.20245942  2194.40881491
0.36200002 28558.43191131  2799.01204421
0.36300002 28257.53873376  1542.86168794
0.36400002 27965.79036136  1684.23980429
0.36500002 27681.45796568  1671.68332573
0.36600002 27406.34790379  2112.20733300
0.36700002 27138.89542858  2097.29393807
0.36800002 26880.39044910  1934.17858638
0.36900002 26629.81302474  1625.75016217
0.37000002 26386.61560279  1615.25675064
0.37100002 26151.52855924  1605.18089900
0.37200002 25925.07390961  1740.60954474
0.37300002 25706.10042805  1730.53476279
0.37400002 25494.75945125  1577.48831577
0.37500002 25291.48699041  1569.08392721
0.37600002 25096.12642351  2412.61622801
0.37700002 24908.09860485  1694.74710936
0.37800002 24727.55067881  1546.33745495
0.37900002 24555.38048369  1819.55378004
0.38000002 24389.73970160  1533.26105898
0.38100002 24230.85216217  1666.11347360
0.38200002 24080.41340719  1521.76179736
0.38300002 23936.38151653  2068.10346100
0.38400002 23799.91576771  1374.44520070
0.38500002 23669.76555034  1781.62333738
0.38600002 23547.65827075  1503.63579011
0.38700002 23431.41512077  1636.45010956
0.38800002 23321.94539271  1633.00269376
0.38900002 23219.15428013  1494.15264871
0.39000002 23123.55281693  1627.43572436
0.39100002 23033.53688647  2166.99525294
0.39200002 22950.67115294  1488.23634142
0.39300002 22873.38796037  2162.90766800
0.39400002 22803.51775214  1621.33018899
0.39500002 22738.49586931  1350.66671863
0.39600002 22679.68036950  1620.69003599
0.39700002 22626.22865685  1756.02168926
0.39800002 22579.72806155  1621.67614621
0.39900002 22537.74038678  1757.94383346
0.40000002 22501.82760772  1624.18199368
0.40100002 22470.86095794  1761.49087395
0.40200002 22445.82952940  2170.96073494
0.40300002 22425.63031887  1766.69124023
0.40400002 22410.75817289  1769.88971056
0.40500002 22400.32493720  1773.43380930
0.40600002 22395.71764517  1503.98448972
0.40700002 22395.22370609  1507.64653133
0.40800002 22399.23677048  1511.61256508
0.40900002 22407.53857809  1653.67642542
0.41000002 22420.89792168  1520.47326460
0.41100002 22438.27805561  1664.02277945
0.41200002 22458.89907454  1669.59463631
0.41300002 22485.03718960  1535.95296320
0.41400002 22514.19209781  1401.50852450
0.41500002 22547.25086065  1688.33822444
0.41600002 22582.92765895  1836.33084960
0.41700002 22623.78451011  1702.21362720
0.41800002 22668.15356953  1994.57092709
0.41900002 22714.12222965  2003.38567558
0.42000002 22763.83771548  2012.55098779
0.42100002 22817.45894157  1733.21426333
0.42200002 22873.49656740  1741.58811117
0.42300002 22931.95481778  2041.86135373
0.42400002 22993.13551829  1758.97495050
0.42500002 23057.39738177  1768.04131501
0.42600002 23122.74132717  1629.11281740
0.42700002 23191.62537019  1637.79266125
0.42800002 23261.89998167  2245.35500213
0.42900002 23335.30504996  1655.63997175
0.43000002 23410.29081316  1513.47537279
0.43100002 23485.69515592  1674.06043004
0.43200002 23563.99648994  1530.48164455
0.43300002 23643.22713610  1847.00899140
0.43400002 23724.42720037  2167.22652745
0.43500002 23806.30513156  1712.62567232
0.43600002 23890.18504773  1566.00170409
0.43700002 23974.38357719  2362.67561350
0.43800002 24059.17085649  2376.44471397
0.43900002 24145.79896122  2071.70964905
0.44000002 24232.52204643  2244.17397307
0.44100002 24320.16906849  2096.15547135
0.44200002 24408.14420092  1784.11338492
0.44300002 24496.76848390  2447.22728752
0.44400002 24585.32273440  1805.17740732
0.44500002 24673.74546782  2145.87574503
0.44600002 24762.04752285  2158.38397462
0.44700002 24851.40186892  2338.01999863
0.44800002 24939.41835549  2183.57087760
0.44900002 25027.85659097  1858.31843995
0.45000002 25116.27515727  2888.49736135
0.45100002 25203.33973601  2563.17977263
0.45200002 25290.30425048  2921.40963395
0.45300002 25376.26231747  1900.93590029
0.45400002 25461.63873176  2085.30831096
0.45500002 25546.54804850  1922.12236627
0.45600002 25629.99667569  2459.71089754
0.45700002 25712.87137559  2119.76921667
0.45800002 25794.14247822  2131.11215255
0.45900002 25874.34267233  2499.46162061
0.46000002 25953.60791419  2692.03810849
0.46100002 26030.78781623  2525.50715363
0.46200002 26107.15852440  3082.34181727
0.46300002 26181.93474213  1822.26274442
0.46400002 26254.58716745  2197.50905007
0.46500002 26326.58521637  2024.25123323
0.46600002 26395.88017701  1849.03149404
0.46700002 26463.41750178  1857.73199667
0.46800002 26529.87604694  2239.65224203
0.46900002 26593.58267323  2249.81720079
0.47000002 26655.44266217  2448.16924734
0.47100002 26715.51960918  2648.04242917
0.47200002 26773.59493132  2279.50398049
0.47300002 26829.42953094  2670.60154209
0.47400002 26882.30815749  2106.90100170
0.47500002 26933.52576834  2115.35921411
0.47600002 26983.02759019  2509.82643026
0.47700002 27029.05457082  2325.57996550
