# SAXS profile: number of points = 501, q_min = 0, q_max = 0.5, delta_q = 0.001
#    q    intensity    error
0.00000000 1700912.83420644 280.65061764
0.00100000 1700829.78259602 561.27384159
0.00200000 1700580.56466029 841.78740616
0.00300000 1700165.41836552 1224.11914483
0.00400000 1699584.18562657 1529.62582519
0.00500000 1698837.42320491 2446.32598624
0.00600000 1697924.99606640 1961.10345030
0.00700000 1696847.49443852 2850.70390913
0.00800000 1695604.74080393 2746.87979608
0.00900000 1694197.96714397 3049.55647122
0.01000000 1692626.55464635 3072.11732934
0.01100000 1690891.81710130 3652.32648396
0.01200000 1688993.63253712 4281.59904620
0.01300000 1686933.23024036 3896.81593372
0.01400000 1684710.59421347 5685.89850753
0.01500000 1682327.17921305 4441.34395089
0.01600000 1679782.33818603 5996.82321540
0.01700000 1677078.47032938 4980.92328032
0.01800000 1674215.40184922 5248.66552097
0.01900000 1671193.90912651 6517.65653969
0.02000000 1668015.08680653 9457.64597002
0.02100000 1664681.05990556 6042.79252143
0.02200000 1661190.31097419 8023.54956653
0.02300000 1657546.13084560 7757.31624546
0.02400000 1653748.09742711 8062.02234257
0.02500000 1649798.70500937 6434.21524339
0.02600000 1645698.01255751 8664.60043242
0.02700000 1641448.14221623 6894.08251306
0.02800000 1637048.85426591 7833.27912689
0.02900000 1632502.99200321 9550.14294171
0.03000000 1627811.68626531 10597.05456468
0.03100000 1622975.35084848 8569.31024678
0.03200000 1617995.60540412 12814.52578501
0.03300000 1612875.99413226 9048.23474421
0.03400000 1607614.64944171 8439.97729899
0.03500000 1602215.20920122 10382.35503506
0.03600000 1596678.68530303 9747.72382425
0.03700000 1591006.97491545 9975.61419407
0.03800000 1585201.62197709 10200.77290951
0.03900000 1579264.69924266 11370.70636112
0.04000000 1573195.94030383 10642.67102933
0.04100000 1566999.60908915 9872.09799500
0.04200000 1560676.46553074 12079.63640362
0.04300000 1554227.44849493 13335.27212708
0.04400000 1547656.13898859 13580.68325034
0.04500000 1540963.78835819 10632.65063372
0.04600000 1534150.54480775 15142.06658116
0.04700000 1527220.63363109 13195.18688825
0.04800000 1520174.58405951 13407.94045525
0.04900000 1513016.31215987 14751.90973022
0.05000000 1505745.13043062 13822.74094102
0.05100000 1498365.83335748 14024.70485355
0.05200000 1490876.64117224 13037.71683463
0.05300000 1483283.87692816 12014.59996321
0.05400000 1475587.12346342 13390.95376990
0.05500000 1467789.31357254 14795.31697100
0.05600000 1459891.42704455 18723.10842554
0.05700000 1451898.69258104 17684.12690111
0.05800000 1443809.86007258 16611.03321574
0.05900000 1435627.70113252 14212.71490503
0.06000000 1427356.11476092 16978.40177829
0.06100000 1418996.45582704 15836.00118707
0.06200000 1410550.89861998 14662.67727654
0.06300000 1402022.27841973 16151.29740255
0.06400000 1393410.09665976 19020.04870891
0.06500000 1384720.27951368 19192.22397183
0.06600000 1375953.42930988 15211.16587273
0.06700000 1367111.77969961 15338.99488608
0.06800000 1358197.82708969 18274.55261891
0.06900000 1349214.56413794 17000.10430406
0.07000000 1340162.89465362 21409.10324465
0.07100000 1331045.88443112 18687.88509271
0.07200000 1321865.71439325 17369.31630082
0.07300000 1312625.58180856 20398.20249707
0.07400000 1303327.48194439 23459.89577443
0.07500000 1293973.13048505 16226.42381686
0.07600000 1284563.37627739 17804.04922987
0.07700000 1275104.35589996 17902.46599626
0.07800000 1265595.65365348 17996.77103893
0.07900000 1256039.78281301 22608.71715107
0.08000000 1246440.41899063 16658.67698129
0.08100000 1236799.25629937 18255.15787948
0.08200000 1227117.41558541 16805.37379504
0.08300000 1217398.52245230 19940.98873364
0.08400000 1207644.76084345 18476.96570819
0.08500000 1197857.90240350 20088.07796634
0.08600000 1188040.56307195 24806.28812163
0.08700000 1178196.04842757 20217.84514040
0.08800000 1168324.09432639 15597.12739176
0.08900000 1158429.85280444 18766.56449689
0.09000000 1148513.44024958 18812.65103502
0.09100000 1138577.65184188 18854.84680032
0.09200000 1128624.54807644 22042.03845962
0.09300000 1118658.86778217 18927.70893233
0.09400000 1108677.84951695 15798.66009811
0.09500000 1098686.61566683 15821.08800924
0.09600000 1088687.29150207 19008.48100317
0.09700000 1078683.79321330 20613.64825741
0.09800000 1068675.61356937 20630.78368997
0.09900000 1058666.17156025 17467.99265213
0.10000000 1048655.90917912 22241.99287967
0.10100000 1038647.38821880 17480.43636586
0.10200000 1028643.80917233 23838.82139886
0.10300000 1018646.21424467 17479.96985871
0.10400000 1008657.81139422 19063.63353220
0.10500000 998681.07775267 19054.83586004
0.10600001 988713.22530897 15868.84801289
0.10700001 978762.21347780 20612.73318583
0.10800001 968826.26417796 22176.43423069
0.10900001 958909.43452772 23733.00962157
0.11000001 949011.64641798 22121.46251925
0.11100001 939135.88086175 17355.23189529
0.11200001 929283.35058719 17326.48888738
0.11300001 919455.99445706 22011.77754363
0.11400001 909656.14994878 21968.19705562
0.11500001 899885.62582152 15658.01062660
0.11600001 890145.15890364 17184.25310187
0.11700001 880437.93749736 23375.62834143
0.11800001 870762.62177239 23314.67029604
0.11900001 861122.74387755 21700.29416783
0.12000001 851519.02249717 17000.57808497
0.12100001 841956.26415242 20030.14046777
0.12200001 832432.26623732 16894.21363919
0.12300001 822950.91285642 18368.26524037
0.12400001 813510.97081952 16778.66456372
0.12500001 804115.35149494 18237.33703126
0.12600001 794766.86024710 15140.30940117
0.12700001 785464.75234502 19605.20114245
0.12800001 776210.96788705 27035.42928567
0.12900001 767007.29767712 20939.30021350
0.13000001 757854.74284562 19359.40031849
0.13100001 748753.45174850 17790.38285214
0.13200001 739706.55910681 17708.57585981
0.13300001 730714.16606587 16156.09097336
0.13400001 721776.69555980 23385.56603866
0.13500001 712896.93048545 18906.02748786
0.13600001 704074.68974244 15915.60911206
0.13700001 695311.71659449 15832.24853340
0.13800001 686606.78355423 17178.90253461
0.13900001 677964.64080031 19932.16137949
0.14000001 669382.98515263 15573.19588402
0.14100001 660865.23494540 15484.07318505
0.14200001 652410.30200411 20991.30245704
0.14300001 644020.78009673 15301.93445685
0.14400001 635693.18050919 17974.22552674
0.14500001 627434.56865260 19237.14478235
0.14600001 619241.48209021 15019.70285664
0.14700001 611117.25446411 18993.52516479
0.14800001 603058.47091420 14826.19320691
0.14900001 595069.26843477 13389.05917149
0.15000001 587148.88727398 17288.59980151
0.15100001 579298.52433127 15849.60837357
0.15200001 571519.29861458 17051.27907876
0.15300001 563810.93380795 19536.04977833
0.15400001 556171.54095358 15517.18672488
0.15500001 548605.82975019 15404.85242639
0.15600001 541110.35531447 15291.77936288
0.15700001 533690.20663045 13913.30434352
0.15800001 526339.49168359 13808.51721606
0.15900001 519064.47448510 13703.30277321
0.16000001 511860.20530073 14833.70944980
0.16100001 504731.76574170 13491.48073513
0.16200001 497676.72653043 12168.19653808
0.16300001 490695.38497761 13278.21774433
0.16400001 483788.84798624 21552.79419529
0.16500001 476955.63950128 16626.67437798
0.16600001 470197.91606854 14134.15002434
0.16700001 463513.21971676 11680.53368836
0.16800001 456903.58946074 11582.50653971
0.16900001 450369.89541478 21820.42246316
0.17000001 443909.25074399 12524.90010116
0.17100001 437523.83383134 12416.92699048
0.17200001 431212.44021694 12308.95968726
0.17300001 424975.97067483 14419.43536595
0.17400001 418814.25593292 14292.03715867
0.17500001 412725.59785978 13075.14755771
0.17600001 406710.21611274 11877.97242256
0.17700001 400771.38209002 10700.59640720
0.17800001 394904.43206017 14844.45830228
0.17900001 389110.43611425 14708.37517985
0.18000001 383391.43109990 13531.80119985
0.18100001 377745.66107913 12374.94844150
0.18200001 372170.16048610 12259.28566552
0.18300001 366668.17628351 12144.05057219
0.18400001 361237.95900819 12029.22460324
0.18500001 355880.18596599 13900.68072053
0.18600001 350593.77474320 10817.57143076
0.18700001 345377.52177953 13635.50520406
0.18800001 340230.67930078 14468.31032084
0.18900001 335157.41470650 12417.58280158
0.19000001 330149.83493829 12296.43118327
0.19100001 325214.47174253 9366.17722874
0.19200001 320345.95128311 10201.41730064
0.19300001 315548.04661204 11937.18316740
0.19400001 310815.95766526 10000.50391044
0.19500001 306152.17962677 9000.87450636
0.19600001 301553.88910209 10693.10141288
0.19700001 297023.99721547 12350.25838786
0.19800001 292558.49171151 10479.44566835
0.19900001 288158.64893672 9509.23586432
0.20000001 283821.93788525 11980.12456433
0.20100001 279551.13499865 9317.43976987
0.20200001 275342.21947259 9222.58807713
0.20300001 271196.85780388 12447.93636154
0.20400001 267113.98995004 9035.13113711
0.20500001 263091.89326412 12194.30982918
0.20600001 259130.84313216 12069.01958936
0.20700001 255230.22172244 8759.50162357
0.20800001 251388.93956170 9457.25235336
0.20900001 247608.97669783 9359.61976162
0.21000001 243884.42796978 12350.30801622
0.21100001 240219.22740213 10694.56050951
0.21200001 236609.88991956 11339.52951047
0.21300001 233056.90983172 9725.46530705
0.21400001 229560.07043563 8883.97514586
0.21500001 226119.22151267 8058.88943572
0.21600001 222731.01515032 7974.88437450
0.21700001 219397.30571891 7174.29223621
0.21800001 216116.51049275 7099.42770535
0.21900001 212886.95787437 8430.32393042
0.22000001 209708.56814415 9037.39117148
0.22100001 206582.53022305 8942.95815621
0.22200001 203506.41794220 8168.74800245
0.22300001 200478.99981565 8083.31365479
0.22400001 197499.64277981 7998.73591081
0.22500001 194570.66896047 9234.32438553
0.22600001 191686.92912518 6526.94024536
0.22700001 188850.94114507 7750.44299111
0.22800001 186060.15188390 9586.74977918
0.22900001 183314.35715772 6956.78018313
0.23000001 180613.41209458 6884.08052755
0.23100001 177957.48957149 8050.79720896
0.23200001 175343.14173278 6741.06740273
0.23300001 172772.29025901 8490.03074486
0.23400001 170241.95592915 7801.33799942
0.23500001 167753.03602001 6532.30353157
0.23600001 165304.84521088 7639.56378275
0.23700001 162896.35664181 6978.48024860
0.23800001 160526.54433305 6330.36457519
0.23900001 158195.60733249 7973.05898668
0.24000001 155901.69997346 6199.43139268
0.24100001 153646.19110311 6135.09270094
0.24200001 151427.05853165 6623.41985348
0.24300001 149243.04283572 7100.98431402
0.24400001 147094.28734725 8108.57297358
0.24500001 144979.64454781 6419.69896426
0.24600001 142899.22256236 6353.29973567
0.24700001 140852.96789933 5239.73065373
0.24800001 138838.90912343 5185.63350108
0.24900001 136855.61891018 5645.29454711
0.25000001 134905.43840364 5079.18999618
0.25100001 132985.33376650 6534.89961045
0.25200001 131097.46612067 6965.20870451
0.25300001 129237.61061502 5416.34851713
0.25400001 127408.23546231 6335.37480810
0.25500001 125605.66655250 6752.56095334
0.25600001 123832.99139790 4773.76204425
0.25700001 122086.87576771 5669.71477891
0.25800001 120367.78417902 5143.91750027
0.25900001 118676.37908513 4628.37900331
0.26000001 117009.91202666 5497.12592711
0.26100001 115368.88913886 6347.59658076
0.26200001 113753.87217268 4487.59046955
0.26300001 112162.28363773 4441.62664222
0.26400001 110595.53164901 5715.02436839
0.26500001 109052.40065402 4786.31009119
0.26600001 107531.98256376 7751.98098984
0.26700001 106034.59758411 4688.85012705
0.26800001 104559.84161532 5906.58573235
0.26900001 103106.05991252 4593.37518647
0.27000001 101674.33301825 5786.28656589
0.27100001 100263.34712937 5317.96818340
0.27200001 98873.58351924  4048.87343672
0.27300001 97503.89801703  4808.89247778
0.27400001 96152.48951835  7139.32268460
0.27500001 94822.73883342  6281.05851758
0.27600001 93509.99447499  4662.40854518
0.27700001 92217.74754396  3845.48025458
0.27800001 90942.62794696  4947.73390762
0.27900001 89686.05597474  4520.17743506
0.28000001 88446.73124939  4473.63587832
0.28100001 87224.97584347  4427.53998337
0.28200001 86020.75918982  4016.73954048
0.28300001 84833.19877077  5059.45221415
0.28400001 83661.24154321  5364.77736788
0.28500001 82506.26169906  5663.23007107
0.28600001 81366.77693015  3502.83991264
0.28700001 80243.63375231  4853.13519905
0.28800001 79134.23189573  5145.70367258
0.28900001 78041.80598799  4073.78246540
0.29000001 76963.10601202  5039.15960466
0.29100001 75899.64107808  3324.40443658
0.29200001 74850.19273162  3618.63273890
0.29300001 73815.25312449  3580.77809857
0.29400001 72793.41827240  3543.21980213
0.29500001 71786.59917555  3824.79018513
0.29600001 70791.95728637  3784.53821568
0.29700001 69811.16855866  4056.72719698
0.29800001 68843.72201299  3705.16929414
0.29900001 67889.62937898  4888.05354668
0.30000001 66947.08144740  3929.45913157
0.30100001 66018.37063852  3588.75879780
0.30200001 65101.01303032  3846.49353699
0.30300001 64196.67327920  3220.10528413
0.30400001 63304.35452721  4633.87897077
0.30500001 62424.44701838  3724.86692993
0.30600001 61554.97903733  3968.44968641
0.30700001 60698.33623799  4206.39490044
0.30800001 59852.94415441  4161.27613935
0.30900001 59019.24387801  2744.39497026
0.31000001 58196.86704496  4072.32596427
0.31100001 57385.13385330  3759.87414808
0.31200001 56585.25164109  2922.34545936
0.31300001 55795.64645368  2890.77257963
0.31400001 55018.48653459  4159.39777895
0.31500001 54250.28772530  2828.61013592
0.31600002 53494.55072113  2543.66600723
0.31700002 52748.51714421  3019.32526429
0.31800002 52012.77155097  2986.57348387
0.31900002 51288.24685821  2461.83596576
0.32000002 50574.35053347  2435.15509349
0.32100002 49870.13443850  3131.34588966
0.32200002 49177.16431329  2620.89709618
0.32300002 48492.98141259  2356.75900825
0.32400002 47820.21337574  2564.35906370
0.32500002 47156.77655314  2305.96648264
0.32600002 46503.56847269  2965.30018407
0.32700002 45860.62176427  2707.61123718
0.32800002 45228.46454049  2232.02483077
0.32900002 44604.14823735  2428.69598653
0.33000002 43991.00605732  2839.39962043
0.33100002 43386.57530312  2592.78186289
0.33200002 42793.50937552  2992.55025234
0.33300002 42209.24936310  2537.62019188
0.33400002 41635.14018812  2092.16589353
0.33500002 41070.53354988  2276.95048783
0.33600002 40515.00449192  2867.24700368
0.33700002 39969.06317326  2431.71791862
0.33800002 39433.28875953  2406.21939406
0.33900002 38906.37487960  1984.22521283
0.34000002 38388.84935498  2356.30768500
0.34100002 37881.06368361  2526.28825670
0.34200002 37383.18002210  2500.37411419
0.34300002 36893.74621040  2284.46087354
0.34400002 36414.44699058  2072.89249311
0.34500002 35943.95956700  2238.58990785
0.34600002 35483.52658405  2216.30117541
0.34700002 35030.87321970  2011.47283554
0.34800002 34588.45155311  2534.98773439
0.34900002 34154.58912610  2151.73921685
0.35000002 33730.30568884  3551.80135726
0.35100002 33315.68424435  1759.06821142
0.35200002 32908.38219396  2265.24859561
0.35300002 32511.58219113  2071.63811534
0.35400002 32122.81385470  2052.64790254
0.35500002 31743.55055010  1864.61624763
0.35600002 31372.73570493  1680.01007657
0.35700002 31010.63027766  1665.27092479
0.35800002 30657.83098205  2146.20155955
0.35900002 30314.10538735  2128.05029899
0.36000002 29978.72632067  2435.02216073
0.36100002 29651.49515487  1610.07626317
0.36200002 29334.40594921  1916.71017551
0.36300002 29024.30044077  1743.19956704
0.36400002 28723.43356663  1729.86886849
0.36500002 28430.28359092  1872.98717169
0.36600002 28146.34833395  2014.29351393
0.36700002 27870.32936675  1692.28647931
0.36800002 27603.29939388  1833.41123259
0.36900002 27344.25742074  2124.64890223
0.37000002 27092.78111243  1658.48467436
0.37100002 26849.51868697  1498.20321370
0.37200002 26614.96901251  2084.75062150
0.37300002 26388.09325619  1628.40931198
0.37400002 26168.94863674  1619.20377360
0.37500002 25957.90354973  2342.44132729
0.37600002 25754.86255017  2475.94382855
0.37700002 25559.35414276  1594.13699340
0.37800002 25371.32336153  2019.30372200
0.37900002 25191.73293613  2010.30038354
0.38000002 25018.89521699  1858.77890820
0.38100002 24852.80775046  1566.47254672
0.38200002 24695.26623586  2128.11466869
0.38300002 24544.34081741  1837.88032748
0.38400002 24400.84829056  1690.97886664
0.38500002 24263.84947147  1685.85234114
0.38600002 24134.90997418  1961.44422652
0.38700002 24011.95130644  1537.24519547
0.38800002 23895.74701155  1812.61197543
0.38900002 23786.44405148  1808.95915582
0.39000002 23684.26242349  1666.89846834
0.39100002 23587.75290680  1941.74391128
0.39200002 23498.61456241  1800.81641231
0.39300002 23414.88957250  1798.96605108
0.39400002 23338.77799746  1935.95172661
0.39500002 23267.48448704  1520.29750841
0.39600002 23202.45335606  1934.38862794
0.39700002 23142.87570909  1381.62974529
0.39800002 23090.30330079  1381.95471803
0.39900002 23042.22890778  1797.29393996
0.40000002 23000.26674579  1660.15933237
0.40100002 22963.30341423  1523.15598763
0.40200002 22932.29465464  1663.50873306
0.40300002 22906.29740337  1388.12168841
0.40400002 22885.51837845  1946.41343031
0.40500002 22869.24489598  1671.28449618
0.40600002 22858.81880529  1535.08404960
0.40700002 22852.52833698  1818.14724064
0.40800002 22850.75666572  1822.46218423
0.40900002 22853.40007106  1686.58100516
0.41000002 22861.08678758  1550.32467396
0.41100002 22872.86886685  1413.54336295
0.41200002 22887.75417147  1559.68608192
0.41300002 22908.33428418  1422.60762645
0.41400002 22931.82981816  1427.50647382
0.41500002 22959.28181370  2578.78665551
0.41600002 22989.38608364  1869.38201797
0.41700002 23024.59879494  1876.73513670
0.41800002 23063.56527760  2609.18126349
0.41900002 23103.95729217  1601.10431621
0.42000002 23148.15875311  1900.34818288
0.42100002 23196.34595205  2202.49315251
0.42200002 23246.78808402  2065.01228335
0.42300002 23299.80253400  2519.17476935
0.42400002 23355.44147966  1935.58230435
0.42500002 23414.27649019  1645.78957248
0.42600002 23474.17341043  1653.87296600
0.42700002 23537.56065537  1813.33375882
0.42800002 23602.41932125  2126.34205741
0.42900002 23670.33575750  2137.43142019
0.43000002 23739.88770194  2148.69733772
0.43100002 23809.86170733  1697.16702292
0.43200002 23882.71781240  2171.65563359
0.43300002 23956.49941983  2183.39546059
0.43400002 24032.31262479  2195.35186231
0.43500002 24108.75282449  2838.08251699
0.43600002 24187.19091238  2853.84679099
0.43700002 24266.00418009  1913.13186022
0.43800002 24345.29835975  1763.45177026
0.43900002 24426.58092559  1612.15441749
0.44000002 24507.78666586  1945.42819773
0.44100002 24590.03077368  1956.38294107
0.44200002 24672.58904245  1967.39234348
0.44300002 24755.73472897  1978.47841330
0.44400002 24838.88188213  1823.79498863
0.44500002 24921.83946161  3167.81516409
0.44600002 25004.72436258  1844.22353276
0.44700002 25088.66695816  2023.15019939
0.44800002 25171.21252274  2034.33749250
0.44900002 25254.23335565  1875.12691552
0.45000002 25337.27181454  2571.09977923
0.45100002 25418.86624714  2240.41897720
0.45200002 25500.42716493  2079.30492957
0.45300002 25580.82403997  2787.28671949
0.45400002 25660.82093859  2451.89155688
0.45500002 25740.36576000  2112.76932171
0.45600002 25818.32784934  2300.80039534
0.45700002 25895.74009754  2490.65240062
0.45800002 25971.63439451  1966.96182409
0.45900002 26046.30501869  2516.07318405
0.46000002 26120.21389296  1806.21287630
0.46100002 26191.90788758  2359.62909343
0.46200002 26262.81474925  1823.95257078
0.46300002 26332.22012024  3298.90069302
0.46400002 26399.42015074  1841.35964279
0.46500002 26466.05755461  1849.97751075
0.46600002 26529.92153102  2230.10530960
0.46700002 26592.02509897  2426.78832555
0.46800002 26653.09764218  1875.04550800
0.46900002 26711.33409645  2824.72371458
0.47000002 26767.82195697  2269.37605307
0.47100002 26822.54549137  2658.65083512
0.47200002 26875.21344184  2097.47613248
0.47300002 26925.73814425  2105.86208007
0.47400002 26973.23023424  2306.21129434
0.47500002 27019.09883527  3086.66199724
0.47600002 27063.21824140  3291.83470682
0.47700002 27103.92235767  2526.35672270
