# SAXS profile: number of points = 501, q_min = 0, q_max = 0.5, delta_q = 0.001
#    q    intensity    error
0.00000000 1700912.83420643 306.16431016
0.00100000 1700829.72298910 612.29871482
0.00200000 1700580.32625653 994.83952236
0.00300000 1700164.87955514 1020.09896407
0.00400000 1699583.23067460 1402.15621859
0.00500000 1698835.92147441 1681.84762883
0.00600000 1697922.84540358 2139.38287231
0.00700000 1696844.56303561 3054.32034040
0.00800000 1695600.91216952 2975.77972649
0.00900000 1694193.13635534 2541.28981317
0.01000000 1692620.60997903 3630.67136518
0.01100000 1690884.60669525 3956.67015194
0.01200000 1688985.07679633 3622.87314857
0.01300000 1686923.18493311 4251.04661352
0.01400000 1684698.97515084 4927.74472077
0.01500000 1682313.84113936 4037.55339852
0.01600000 1679767.21555389 5568.42856849
0.01700000 1677061.38832102 7697.71211770
0.01800000 1674196.27396892 6202.89747417
0.01900000 1671172.60524888 6016.22165036
0.02000000 1667991.52251335 7881.26030039
0.02100000 1664655.12068487 7141.37079152
0.02200000 1661161.95355216 6877.21080015
0.02300000 1657515.10438853 7757.17104163
0.02400000 1653714.40836344 8682.00103979
0.02500000 1649762.23176578 9007.70219683
0.02600000 1645658.65629549 6664.91786284
0.02700000 1641405.74274809 6893.90443529
0.02800000 1637003.35503677 8545.15790517
0.02900000 1632454.36766884 8080.64949098
0.03000000 1627759.70106847 9839.80784525
0.03100000 1622919.95240145 7790.01612997
0.03200000 1617936.70952187 9610.54449720
0.03300000 1612813.59394198 10692.95462079
0.03400000 1607548.58595343 9283.59351223
0.03500000 1602145.35780543 13842.53653066
0.03600000 1596604.92674455 8861.15775294
0.03700000 1590929.31190550 9068.29749725
0.03800000 1585119.94176282 10200.24729731
0.03900000 1579178.82201543 9475.07337088
0.04000000 1573105.90879685 12576.98232364
0.04100000 1566905.40309168 10858.65494690
0.04200000 1560577.92966223 10065.72811330
0.04300000 1554124.40206465 11282.94368272
0.04400000 1547548.60453204 18802.71641830
0.04500000 1540851.79731909 17011.00463282
0.04600000 1534033.89273247 11896.43339117
0.04700000 1527099.29893230 10995.11546367
0.04800000 1520048.51339032 12289.59280257
0.04900000 1512885.39713937 18154.62561072
0.05000000 1505609.34852811 17276.86807888
0.05100000 1498225.15501195 11686.15675348
0.05200000 1490730.92882532 14221.57372374
0.05300000 1483133.23501800 15617.39369279
0.05400000 1475431.33902797 14606.77093755
0.05500000 1467628.38584214 13560.88691779
0.05600000 1459725.30910566 18720.97796288
0.05700000 1451727.34852514 21471.04848692
0.05800000 1443633.11651353 14053.76904546
0.05900000 1435445.70603295 16794.71554500
0.06000000 1427168.76591329 20893.75170910
0.06100000 1418803.79299914 18472.82624811
0.06200000 1410352.76790488 15993.40113563
0.06300000 1401818.71344983 17494.69836182
0.06400000 1393201.04545019 16300.45299409
0.06500000 1384505.73683653 15077.26817943
0.06600000 1375733.37744305 16591.34530825
0.06700000 1366886.18710453 22307.58361752
0.06800000 1357966.73539900 21082.43455392
0.06900000 1348977.90699140 16997.12242388
0.07000000 1339920.82042117 17124.18888688
0.07100000 1330798.12156364 15809.88242468
0.07200000 1321612.38292504 14471.65627098
0.07300000 1312366.54905435 18937.45019018
0.07400000 1303062.99228630 24921.08089538
0.07500000 1293702.93292270 17697.85695193
0.07600000 1284287.62406183 17800.22730398
0.07700000 1274823.05363346 19390.05955494
0.07800000 1265308.95939152 14993.91187195
0.07900000 1255747.32231825 22603.45286191
0.08000000 1246142.70196797 19682.82490093
0.08100000 1236495.72501822 21292.45738382
0.08200000 1226808.50125576 15273.76655736
0.08300000 1217084.13218515 16868.78686377
0.08400000 1207324.90776105 16932.73262615
0.08500000 1197532.60963227 16992.98852842
0.08600000 1187709.88939245 17049.57626273
0.08700000 1177859.97462162 24876.40383215
0.08800000 1167982.75152150 23388.85569765
0.08900000 1158083.14676685 17197.53553725
0.09000000 1148161.61749153 26643.09158546
0.09100000 1138220.56922394 23561.16688987
0.09200000 1128262.30668578 20461.03789314
0.09300000 1118291.57758783 15767.91198496
0.09400000 1108305.32559871 18952.02195844
0.09500000 1098309.22203900 17397.21889481
0.09600000 1088304.90440429 23752.25565516
0.09700000 1078296.53899366 20606.24782893
0.09800000 1068283.42425743 19036.81151533
0.09900000 1058269.43755446 20636.25500268
0.10000000 1048254.27361585 17469.15829133
0.10100000 1038241.27273920 25416.14755202
0.10200000 1028233.08105176 17474.82203443
0.10300000 1018230.94078389 19061.28410813
0.10400000 1008238.19302554 17467.72751594
0.10500000 998256.91605606 19046.74285449
0.10600001 988284.83108024 20620.56397076
0.10700001 978329.78739968 31697.88660338
0.10800001 968389.65665186 20583.12312081
0.10900001 958468.71237322 15814.73449849
0.11000001 948567.12232007 17373.00766303
0.11100001 938687.40076956 17346.94398280
0.11200001 928831.23870740 23615.53535589
0.11300001 919000.17303475 22000.86517827
0.11400001 909196.75686939 25093.83167112
0.11500001 899422.77303002 18779.94838518
0.11600001 889678.92108124 17175.25238028
0.11700001 879968.50342798 17132.98756862
0.11800001 870289.93785666 21748.54657136
0.11900001 860646.91466024 20139.13875164
0.12000001 851040.20415571 16991.01847633
0.12100001 841474.74490198 16938.88741284
0.12200001 831948.08895271 24559.10874290
0.12300001 822464.06151208 19887.18194433
0.12400001 813021.50642922 24390.64634210
0.12500001 803623.35498257 24301.57139977
0.12600001 794272.69786655 24209.43297180
0.12700001 784968.45453843 19592.81354862
0.12800001 775712.48913517 27018.06726992
0.12900001 766506.77754082 20925.63601313
0.13000001 757352.60664410 14881.97942202
0.13100001 748249.36165721 16296.87186509
0.13200001 739200.90564535 20645.88226793
0.13300001 730207.06162961 24951.17647216
0.13400001 721268.21465676 16066.25023893
0.13500001 712387.32120161 18892.51264901
0.13600001 703563.84127810 18795.70890598
0.13700001 694799.95083723 20135.30352471
0.13800001 686094.04138419 17166.07372491
0.13900001 677451.30650081 15649.12591815
0.14000001 668869.04188970 16975.89708375
0.14100001 660350.82443807 15472.02054629
0.14200001 651895.44292247 16779.78949225
0.14300001 643505.92075849 18069.64710720
0.14400001 635178.19781610 17959.66439041
0.14500001 626919.67174314 20594.31218824
0.14600001 618726.66316545 13642.92356639
0.14700001 610602.64322292 13555.37931904
0.14800001 602544.42957855 13466.86863643
0.14900001 594555.84801600 14715.25793267
0.15000001 586636.13365438 14616.03995963
0.15100001 578786.60939950 15835.60238037
0.15200001 571008.37453308 17036.03565807
0.15300001 563301.10230349 13012.25607725
0.15400001 555663.06466845 16794.91692217
0.15500001 548098.60599706 15390.60958273
0.15600001 540604.62282872 17823.73525585
0.15700001 533186.18099815 16427.46701188
0.15800001 525837.23670083 16303.58429342
0.15900001 518563.97126130 14934.64307725
0.16000001 511361.82169679 19759.02172304
0.16100001 504235.55130687 13478.21692266
0.16200001 497182.84186768 12156.12105751
0.16300001 490203.85050921 14470.81835017
0.16400001 483299.69894305 13157.83492490
0.16500001 476469.35147844 15423.31363551
0.16600001 469714.51710899 12942.98413002
0.16700001 463032.64995855 12835.26566286
0.16800001 456425.95021427 13884.47806109
0.16900001 449895.60003506 13766.80601111
0.17000001 443438.21711924 13649.02896743
0.17100001 437056.24266744 13531.26191195
0.17200001 430748.33082865 11177.91971286
0.17300001 424515.58498455 14403.81447874
0.17400001 418357.55716287 10981.88639416
0.17500001 412273.02225297 11972.40913165
0.17600001 406261.53596017 12943.49314700
0.17700001 400326.95447959 11757.60320838
0.17800001 394464.21284115 11650.50107654
0.17900001 388674.63549669 11543.63721950
0.18000001 382960.11388062 13516.57785787
0.18100001 377318.87297840 14421.12800644
0.18200001 371748.18237358 11224.93689701
0.18300001 366251.07120856 11119.38304716
0.18400001 360825.74657750 12015.49792865
0.18500001 355473.02553999 10909.46766921
0.18600001 350191.65150787 10805.16391775
0.18700001 344980.76512140 12646.99544686
0.18800001 339839.24327465 9634.44300203
0.18900001 334771.49649153 10495.08691088
0.19000001 329769.48933962 12282.26521078
0.19100001 324839.66681069 14033.07426929
0.19200001 319976.94600898 11115.99962960
0.19300001 315184.87429962 11923.44435817
0.19400001 310458.74909066 9080.91884001
0.19500001 305801.08406716 11687.71798535
0.19600001 301208.84070524 8900.72166346
0.19700001 296685.16859874 13217.32488569
0.19800001 292225.92629517 9595.23874336
0.19900001 287832.35613966 9498.46820151
0.20000001 283502.15404838 11966.62648794
0.20100001 279237.81674273 10999.17812134
0.20200001 275035.54652684 11724.76590259
0.20300001 270896.82554941 9118.38757897
0.20400001 266820.68374013 8204.73641281
0.20500001 262805.42377599 9744.82557422
0.20600001 258851.15221480 8841.06152180
0.20700001 254957.55962887 11136.54673100
0.20800001 251123.22614406 8659.98486294
0.20900001 247350.31598487 11687.30298276
0.21000001 243632.90644426 8482.08003882
0.21100001 239974.79283083 10683.67828188
0.21200001 236372.61425087 8307.31592057
0.21300001 232827.05564800 8221.12372359
0.21400001 229337.43185703 7396.13252705
0.21500001 225903.98065676 8051.21825125
0.21600001 222523.29631448 8691.76036498
0.21700001 219196.87168146 10034.83326002
0.21800001 215923.63992281 8511.71028820
0.21900001 212701.62061123 7721.06919325
0.22000001 209530.82753171 7640.54198721
0.22100001 206412.38394944 8935.59252368
0.22200001 203343.83206918 10202.77725650
0.22300001 200324.00211051 8077.06414702
0.22400001 197352.35528402 7992.77076695
0.22500001 194431.06472663 8568.57742769
0.22600001 191555.09990766 9783.67719044
0.22700001 188726.77977856 7745.34740838
0.22800001 185943.70926682 7664.60005844
0.22900001 183205.61494466 6320.59401450
0.23000001 180512.40165006 10633.08352206
0.23100001 177864.39721044 7427.61757878
0.23200001 175257.71203851 7962.83452306
0.23300001 172694.67140478 8486.21655418
0.23400001 170172.10474211 6598.42367345
0.23500001 167690.92517738 7717.13674165
0.23600001 165250.48536431 10574.37905860
0.23700001 162849.77660756 7557.85848983
0.23800001 160487.72702513 6904.18234318
0.23900001 158164.46091748 6832.70503482
0.24000001 155878.34467458 6762.00291183
0.24100001 153630.43984331 6134.46375311
0.24200001 151418.91289890 6071.14159986
0.24300001 149242.63393851 7100.96485869
0.24400001 147101.42459320 6487.17313143
0.24500001 144994.35881379 8560.46734931
0.24600001 142921.54743713 7413.34101625
0.24700001 140882.80488012 5240.84058946
0.24800001 138876.16609182 6224.43005869
0.24900001 136900.44571368 5133.76695713
0.25000001 134957.69213383 6605.50455399
0.25100001 133044.83169459 8046.55180156
0.25200001 131164.38182869 7466.53278884
0.25300001 129311.84606141 6404.81603844
0.25400001 127489.65836525 6339.42356214
0.25500001 125694.23211125 7239.98811215
0.25600001 123928.67530739 5732.94079096
0.25700001 122189.63460041 7093.10862415
0.25800001 120477.57119888 6084.72002129
0.25900001 118793.10444618 6486.10380965
0.26000001 117133.58882295 5044.35824134
0.26100001 115499.39066145 5900.86414810
0.26200001 113891.11291928 6290.20646416
0.26300001 112306.27811234 6226.26035316
0.26400001 110746.11910524 6603.23766410
0.26500001 109209.53605298 6971.93711153
0.26600001 107695.60858899 7332.45585775
0.26700001 106204.64775794 5977.19785866
0.26800001 104736.28412941 4226.10926460
0.26900001 103288.69718356 6274.78865083
0.27000001 101863.07534225 4140.73420861
0.27100001 100458.20289531 4918.43384651
0.27200001 99074.35736165  5274.22366374
0.27300001 97710.68139713  5622.27287366
0.27400001 96365.04181510  4372.56397929
0.27500001 95041.10151540  4328.17196784
0.27600001 93733.96389726  4284.11102267
0.27700001 92447.25596248  5011.56598291
0.27800001 91177.60577005  4197.36128027
0.27900001 89926.41731495  5665.36455897
0.28000001 88692.37650707  3738.38384670
0.28100001 87475.79722300  4440.27167719
0.28200001 86276.69794822  4028.69060137
0.28300001 85094.08787826  3987.50914671
0.28400001 83927.01388338  4305.45601600
0.28500001 82776.81039692  4261.35040093
0.28600001 81641.99776537  4217.62580419
0.28700001 80523.40896356  4174.33371825
0.28800001 79418.42738839  3442.78899024
0.28900001 78330.32155398  4088.84297866
0.29000001 77255.92232154  3372.22116896
0.29100001 76196.58265671  4672.37466968
0.29200001 75151.13249583  4954.33864430
0.29300001 74120.06292010  4903.04239425
0.29400001 73102.07432301  5175.62710707
0.29500001 72098.84589394  3521.30780015
0.29600001 71107.78506312  3801.42236942
0.29700001 70130.52275790  3761.80141881
0.29800001 69166.38012416  3722.53475450
0.29900001 68215.50931970  3376.66787117
0.30000001 67276.13542033  3645.02118963
0.30100001 66350.42640634  3306.24190435
0.30200001 65435.86199814  3568.87208233
0.30300001 64534.46092138  3825.60302453
0.30400001 63644.69300807  3202.91932726
0.30500001 62767.27952052  3745.32374630
0.30600001 61900.24336411  3135.55697605
0.30700001 61045.86693883  2820.31918610
0.30800001 60202.55396777  3348.46621022
0.30900001 59370.93177468  2760.74845823
0.31000001 58550.51401321  3277.65792964
0.31100001 57740.58982826  2972.48570509
0.31200001 56942.48682135  2673.44988284
0.31300001 56154.38921379  3173.84622863
0.31400001 55378.65815832  4186.62675499
0.31500001 54611.84071756  3106.32164709
0.31600002 53857.32433190  4097.46542918
0.31700002 53112.35177360  3546.84301938
0.31800002 52377.60491711  3007.52221674
0.31900002 51653.94167444  2727.32824955
0.32000002 50940.76332539  3188.63723133
0.32100002 50237.15975721  2669.10042428
0.32200002 49544.74643368  2640.48738621
0.32300002 48860.95941045  2374.64273979
0.32400002 48188.37097363  3288.85647468
0.32500002 47525.11822750  3021.17190878
0.32600002 46872.02012880  3218.70177466
0.32700002 46228.96050149  2274.46496438
0.32800002 45596.60025607  2250.19232919
0.32900002 44972.04884699  3339.17478501
0.33000002 44358.44626537  2642.87635364
0.33100002 43753.51645890  2614.71026740
0.33200002 43159.85888746  2802.58556957
0.33300002 42574.86513200  2346.30092853
0.33400002 41999.90256588  2321.54472427
0.33500002 41434.25781658  2297.11536213
0.33600002 40877.68896591  2273.00400259
0.33700002 40330.54611956  2044.75878510
0.33800002 39793.56727263  2225.85329080
0.33900002 39265.23965164  2202.78004878
0.34000002 38746.23234339  2378.24385387
0.34100002 38236.80299910  2746.16732145
0.34200002 37737.26302240  2135.74050190
0.34300002 37246.03762911  3843.79126536
0.34400002 36764.82948117  1902.58001576
0.34500002 36292.43254328  2260.29280584
0.34600002 35829.88202519  2237.93453728
0.34700002 35375.01033948  2031.23318989
0.34800002 34930.35590001  2560.04590516
0.34900002 34494.12608749  1992.03587590
0.35000002 34067.39098759  1973.01304249
0.35100002 33650.15501446  1776.72826891
0.35200002 33240.30673476  1760.07432497
0.35300002 32840.74288303  1918.22788265
0.35400002 32449.17661299  1900.71061013
0.35500002 32066.99452685  2054.85310661
0.35600002 31693.22306591  2545.75826335
0.35700002 31328.09913247  2859.94230526
0.35800002 30972.11330630  1667.84838054
0.35900002 30625.19307883  2315.26470642
0.36000002 30286.57111806  1804.01969410
0.36100002 29955.95614896  2114.59104472
0.36200002 29635.38558064  1613.64682130
0.36300002 29321.85041349  2401.45966261
0.36400002 29017.46693753  1747.57702909
0.36500002 28720.64491719  1576.76348064
0.36600002 28432.98900272  1565.23611874
0.36700002 28153.11832950  1709.45742594
0.36800002 27882.33779077  1851.94496379
0.36900002 27619.40093457  2299.31523672
0.37000002 27363.97051485  1979.64654067
0.37100002 27116.66481510  1815.73196203
0.37200002 26878.11741039  1503.83074035
0.37300002 26647.07797529  1494.90114523
0.37400002 26423.82989976  1932.24265295
0.37500002 26208.52992962  1478.16115805
0.37600002 26001.23380126  1764.44380934
0.37700002 25801.35737312  1901.81814207
0.37800002 25608.89679445  2038.21219242
0.37900002 25425.00036552  1883.99261633
0.38000002 25247.67674778  1875.77623284
0.38100002 25077.11265690  1580.61048564
0.38200002 24915.03495064  2290.19012116
0.38300002 24759.56495429  1853.99631161
0.38400002 24611.47290120  1989.83767833
0.38500002 24469.86696388  1983.52751006
0.38600002 24336.29345582  1553.99409224
0.38700002 24208.66388225  1690.73316563
0.38800002 24087.74636994  2389.38411436
0.38900002 23973.66468194  1963.44323047
0.39000002 23866.80414576  1539.76694241
0.39100002 23765.53109915  2235.86127173
0.39200002 23671.54484527  1953.61268864
0.39300002 23583.06646669  1811.88708248
0.39400002 23502.10917191  1392.50003441
0.39500002 23425.97057874  1808.95353379
0.39600002 23356.10762101  1529.94190220
0.39700002 23291.65443140  1946.71656961
0.39800002 23234.20257679  1390.56709010
0.39900002 23181.28124714  1390.87694073
0.40000002 23134.48297761  1530.69313874
0.40100002 23092.68653584  1392.48906409
0.40200002 23056.77715109  1672.53869378
0.40300002 23025.87464241  2232.58891111
0.40400002 23000.14756214  1536.98493366
0.40500002 22979.05300155  1679.30927292
0.40600002 22963.79528987  1962.71567642
0.40700002 22952.71121369  2388.00018782
0.40800002 22946.05860259  2252.38521915
0.40900002 22943.84787125  1693.25605313
0.41000002 22946.77763828  1556.13579927
0.41100002 22953.68337277  1844.09900955
0.41200002 22963.88362505  1707.13518957
0.41300002 22979.63476146  1997.84954083
0.41400002 22998.41292627  1574.81639975
0.41500002 23021.04258339  1580.16443780
0.41600002 23046.49132734  1729.86972100
0.41700002 23077.02410922  1736.31537625
0.41800002 23111.36794857  1743.05945327
0.41900002 23147.08205837  1895.74611041
0.42000002 23186.70515879  1757.08860019
0.42100002 23230.30669809  1617.52633203
0.42200002 23276.25997696  1919.94239518
0.42300002 23324.74753488  1631.79941486
0.42400002 23375.93069233  1490.21565225
0.42500002 23430.29322305  1646.91538869
0.42600002 23485.86006150  1805.12328986
0.42700002 23544.89526858  2116.21528702
0.42800002 23605.41834708  1670.90961688
0.42900002 23669.08377110  1984.65276825
0.43000002 23734.46535113  1841.31990920
0.43100002 23800.21454937  1542.25397588
0.43200002 23868.92438553  2015.37272600
0.43300002 23938.64588948  2025.92769763
0.43400002 24010.33885950  1566.67468482
0.43500002 24082.79143962  1732.51609827
0.43600002 24157.27292569  1741.86024685
0.43700002 24232.14064250  2228.87240192
0.43800002 24307.73256958  2080.86354523
0.43900002 24385.12143917  2092.24351863
0.44000002 24462.63369487  2103.66428428
0.44100002 24541.17407627  1627.07991836
0.44200002 24620.09816519  1963.20672073
0.44300002 24699.64150697  2302.99468325
0.44400002 24779.29018760  2315.62477777
0.44500002 24858.78876111  2494.57957040
0.44600002 24938.25554277  1839.32112472
0.44700002 25018.85708001  2185.64745809
0.44800002 25098.10803089  1859.39342159
0.44900002 25177.98535920  1699.51409229
0.45000002 25257.82222365  2563.03763161
0.45100002 25336.32099717  2061.36317402
0.45200002 25414.87496721  2763.10533739
0.45300002 25492.32932619  2256.83602221
0.45400002 25569.39208393  2792.17774790
0.45500002 25646.09530801  1929.61230243
0.45600002 25721.30659999  2644.79347649
0.45700002 25796.02633732  1949.40580270
0.45800002 25869.25434327  1959.20807054
0.45900002 25941.37802963  2326.94171954
0.46000002 26012.74768750  1798.78158784
0.46100002 26082.01735394  1988.23227712
0.46200002 26150.57193280  1997.77303749
0.46300002 26217.65584555  2007.22382667
0.46400002 26282.62436451  2199.85576357
0.46500002 26347.11971706  2209.99650661
0.46600002 26408.89736278  3329.89802630
0.46700002 26468.91931555  2229.74186882
0.46800002 26528.07189559  2426.12493020
0.46900002 26584.41527633  2249.04163897
0.47000002 26639.09223503  2634.87273785
0.47100002 26692.07776673  3401.63855182
0.47200002 26743.07907342  2466.64801525
0.47300002 26791.97005051  2857.36374132
0.47400002 26837.98009023  2868.30925809
0.47500002 26882.35131294  2495.21996713
0.47600002 26925.08633996  2119.13902083
0.47700002 26964.51669300  2513.36272008
