# SAXS profile: number of points = 501, q_min = 0, q_max = 0.5, delta_q = 0.001
#    q    intensity    error
0.00000000 1700912.83420643 280.65061764
0.00100000 1700829.70695006 561.27381662
0.00200000 1700580.25845407 1147.89171080
0.00300000 1700164.73092299 1224.11864987
0.00400000 1699582.96823901 1529.62472954
0.00500000 1698835.50376155 2293.42802085
0.00600000 1697922.24565596 2495.94580273
0.00700000 1696843.75298832 2239.83384703
0.00800000 1695599.84536227 2746.87186546
0.00900000 1694191.79749677 2795.41658537
0.01000000 1692618.94916258 4189.23208007
0.01100000 1690882.58912371 3652.30655153
0.01200000 1688982.69418896 4940.27459710
0.01300000 1686920.38896714 4605.29286500
0.01400000 1684695.73923303 6443.96148823
0.01500000 1682310.10678807 4441.29887969
0.01600000 1679762.99308621 4283.39582385
0.01700000 1677056.63597968 6339.27436837
0.01800000 1674190.90198229 5248.58871389
0.01900000 1671166.67367253 5013.50024724
0.02000000 1667984.96667376 5779.56817097
0.02100000 1664647.88726226 6042.67210473
0.02200000 1661153.98961715 7450.27598192
0.02300000 1657506.41453601 7160.42803673
0.02400000 1653704.93997808 7441.67256922
0.02500000 1649751.96945851 9651.04946210
0.02600000 1645647.57070123 8664.33485603
0.02700000 1641393.84611852 8272.62536333
0.02800000 1636990.55838087 7833.00018107
0.02900000 1632440.58148065 8815.17954474
0.03000000 1627745.01181039 8325.91611811
0.03100000 1622904.37563462 7789.94136149
0.03200000 1617920.07409329 9610.44568275
0.03300000 1612795.90152686 9870.31137237
0.03400000 1607529.86887658 10971.39186131
0.03500000 1602125.49715655 11246.92150940
0.03600000 1596584.06865900 11519.35458773
0.03700000 1590907.22992148 10881.80595592
0.03800000 1585096.66947453 12981.94232380
0.03900000 1579154.43249164 11369.91244048
0.04000000 1573080.23992176 10641.88831620
0.04100000 1566878.52264448 12832.73569547
0.04200000 1560549.78196126 11072.10121668
0.04300000 1554094.91633953 11282.72961635
0.04400000 1547517.80945409 15668.61854840
0.04500000 1540819.61896512 11694.82145134
0.04600000 1534000.36661355 11896.17339610
0.04700000 1527064.38004130 12094.35045241
0.04800000 1520012.20380120 21226.97141373
0.04900000 1512847.55211177 14750.26431968
0.05000000 1505570.09850408 12669.37296888
0.05100000 1498184.46767888 17528.75908840
0.05200000 1490688.71844630 16591.36620949
0.05300000 1483089.33941736 12013.02420930
0.05400000 1475385.93552761 18257.90180359
0.05500000 1467581.46429230 12327.68487513
0.05600000 1459676.79741944 13728.26092035
0.05700000 1451677.26807981 21470.30779710
0.05800000 1443581.40477793 17885.97444034
0.05900000 1435392.39073299 18085.94496795
0.06000000 1427113.80323731 14363.90110065
0.06100000 1418747.01399908 17152.65220082
0.06200000 1410294.33165022 14660.01026276
0.06300000 1401758.55730454 16148.25933517
0.06400000 1393138.98888169 21732.96924293
0.06500000 1384442.01163361 17817.76952320
0.06600000 1375667.95687820 19355.64905890
0.06700000 1366818.90794852 18124.01956758
0.06800000 1357897.73439358 23892.21175503
0.06900000 1348907.05050966 16996.22963217
0.07000000 1339848.15954492 25684.89042126
0.07100000 1330723.57808791 17246.17837979
0.07200000 1321535.85843290 14470.81832775
0.07300000 1312288.44779462 17479.68294365
0.07400000 1302982.85390375 14658.55779338
0.07500000 1293621.00242313 20646.19216641
0.07600000 1284203.83733084 16315.81051818
0.07700000 1274737.30473488 16405.86988118
0.07800000 1265221.22484701 17991.44666106
0.07900000 1255657.78673252 16574.68356228
0.08000000 1246051.21391015 24223.23673475
0.08100000 1236402.40517977 21290.85041612
0.08200000 1226713.22349485 22908.87052377
0.08300000 1216986.93149396 15334.03605648
0.08400000 1207225.66386481 23088.19190514
0.08500000 1197431.38332869 18536.23868411
0.08600000 1187606.75206666 17048.09572635
0.08700000 1177754.94700654 15546.36603051
0.08800000 1167875.69149487 20268.48357778
0.08900000 1157974.18461372 20322.44789451
0.09000000 1148050.56144738 18805.06907989
0.09100000 1138107.67962041 32982.36210495
0.09200000 1128147.50316337 17311.42424945
0.09300000 1118174.79394261 20496.14493613
0.09400000 1108186.55660593 18949.99100856
0.09500000 1098188.56878215 25302.26581402
0.09600000 1088182.22626560 22166.27299102
0.09700000 1078171.90202865 17434.04047543
0.09800000 1068156.98647346 19034.55839392
0.09900000 1058140.91847287 17459.32597578
0.10000000 1048123.92733923 22230.70954431
0.10100000 1038108.91623456 17471.37388194
0.10200000 1028098.91973460 23826.19358555
0.10300000 1018094.83041485 19058.73612190
0.10400000 1008100.16953376 20640.85194225
0.10500000 998117.08577769 19044.07489265
0.10600001 988143.15668572 19031.63809327
0.10700001 978186.26541399 17431.28006995
0.10800001 968244.34537030 17413.87537101
0.10900001 958321.57789688 17393.53745747
0.11000001 948418.04072748 23686.74168209
0.11100001 938536.52678016 20497.63870977
0.11200001 928678.57622999 17315.21286896
0.11300001 918845.71353646 17283.48868534
0.11400001 909040.49089015 18817.13904742
0.11500001 899264.84574891 18776.65086339
0.11600001 889519.29889282 17172.17087379
0.11700001 879807.04539702 23358.87815538
0.11800001 870126.88918207 18638.11884410
0.11900001 860482.21027346 18586.41661736
0.12000001 850873.84012933 21620.70529613
0.12100001 841306.82453433 18475.09873710
0.12200001 831778.38740930 16880.94316775
0.12300001 822292.87336104 19883.04261465
0.12400001 812848.68998328 15240.91365530
0.12500001 803449.10732980 16703.70772847
0.12600001 794096.84386819 15127.54558855
0.12700001 784791.19624826 19588.38918149
0.12800001 775533.76600986 18007.89489545
0.12900001 766326.63252226 14943.37003850
0.13000001 757171.14978532 22317.62069186
0.13100001 748066.43095032 19255.23084031
0.13200001 739016.61402650 16217.72035932
0.13300001 730021.36555241 19075.45918116
0.13400001 721081.21251435 20442.65333856
0.13500001 712199.09103558 15981.74835635
0.13600001 703374.56520097 18790.65239534
0.13700001 694609.32050748 20129.77905749
0.13800001 685902.35675950 15731.17129409
0.13900001 677258.41011418 14222.42728310
0.14000001 668675.03426806 18385.22093426
0.14100001 660155.77149409 21091.97789400
0.14200001 651699.31553377 18172.63627078
0.14300001 643308.78287970 15285.01740218
0.14400001 634980.22816002 20716.23092090
0.14500001 626720.65685839 15097.70133591
0.14600001 618526.85942850 15002.36968317
0.14700001 610401.95316175 16261.10879937
0.14800001 602342.99675833 20193.54991903
0.14900001 594353.65473787 13372.95786255
0.15000001 586433.14928969 13282.71145813
0.15100001 578582.90912721 14510.86004560
0.15200001 570804.03563197 19649.92985385
0.15300001 563096.13229360 14308.27339677
0.15400001 555457.62346684 14205.82939055
0.15500001 547892.64609680 16666.89508083
0.15600001 540398.11280772 17816.92662014
0.15700001 532979.30547097 12631.61013583
0.15800001 525629.91125047 16297.15616753
0.15900001 518356.26314664 14928.66108326
0.16000001 511153.77682433 13578.80072229
0.16100001 504027.29085428 13472.65012050
0.16200001 496974.15415941 13366.12050708
0.16300001 489995.09964460 15670.04402638
0.16400001 483090.92859817 13152.15115199
0.16500001 476260.48166103 24903.66176179
0.16600001 469505.43937703 14113.33417401
0.16700001 462823.74660121 13995.79075803
0.16800001 456217.05069753 13878.12333749
0.16900001 449686.81603015 13760.41722026
0.17000001 443229.65938252 17053.26194999
0.17100001 436847.79691497 12397.74106188
0.17200001 430540.25720847 13407.02424259
0.17300001 424307.68813214 12181.87430156
0.17400001 418150.04617274 14269.37099953
0.17500001 412065.86383803 18493.51684245
0.17600001 406054.88200839 11858.83338914
0.17700001 400120.68469431 11751.54506450
0.17800001 394258.42247754 11644.42305786
0.17900001 388469.43874217 14684.14547804
0.18000001 382755.67154627 14548.54376267
0.18100001 377114.98526332 13383.81145920
0.18200001 371545.16841023 11218.80689010
0.18300001 366048.76229710 17175.00873832
0.18400001 360624.26088619 13009.52082605
0.18500001 355272.41208937 10903.31084212
0.18600001 349992.00545520 14725.91432523
0.18700001 344782.03743437 11667.42469800
0.18800001 339641.65245814 15406.14608338
0.18900001 334574.93649410 9535.38614060
0.19000001 329574.13523050 9442.29942049
0.19100001 324645.47591352 11219.74817771
0.19200001 319783.86079210 10183.51752811
0.19300001 314993.11289494 10082.93002021
0.19400001 310268.38350677 9982.88571106
0.19500001 305611.92924663 9883.49025888
0.19600001 301021.24061538 14232.28492886
0.19700001 296498.98628335 10567.22437052
0.19800001 292041.31262927 11332.66367215
0.19900001 287649.30777791 12944.21946175
0.20000001 283320.78115961 9396.33415124
0.20100001 279058.03345264 9301.00469456
0.20200001 274857.51110954 13391.05857416
0.20300001 270720.54280423 10769.26370176
0.20400001 266646.24118630 8199.37230403
0.20500001 262632.81011975 10549.96048117
0.20600001 258680.43445416 9638.43344335
0.20700001 254788.77962099 8744.35132993
0.20800001 250956.49667734 9440.98385128
0.20900001 247185.62530467 11679.52134775
0.21000001 243470.32107708 8476.41962900
0.21100001 239814.42803098 11439.14875785
0.21200001 236214.38815297 9056.46006992
0.21300001 232670.94232324 9709.35888216
0.21400001 229183.69343805 8869.40935537
0.21500001 225752.56848515 8045.82192120
0.21600001 222374.11482899 7962.10555789
0.21700001 219050.19282466 10744.41246604
0.21800001 215779.46128701 8506.02676610
0.21900001 212559.87207499 7014.47611013
0.22000001 209391.55122151 10411.99537680
0.22100001 206275.69765562 7555.87916239
0.22200001 203209.77836546 8156.84088928
0.22300001 200192.51094296 8744.40929147
0.22400001 197223.59795042 7321.92642014
0.22500001 194305.05552305 7245.63586308
0.22600001 191431.74810908 9125.55186389
0.22700001 188606.27022655 8385.43517081
0.22800001 185825.98203750 7021.43506333
0.22900001 183090.76853152 8211.62135697
0.23000001 180400.57664694 10001.40844229
0.23100001 177755.41326908 8660.24414404
0.23200001 175151.69083841 7345.86226118
0.23300001 172591.70349890 9086.95361898
0.23400001 170072.17292647 7793.55769295
0.23500001 167594.00207795 7119.39354499
0.23600001 165156.68495460 7632.71655618
0.23700001 162759.05133993 7553.64792996
0.23800001 160400.20541738 7475.45192706
0.23900001 158080.09675789 6829.06050295
0.24000001 155797.23698356 5632.07038335
0.24100001 153552.47214024 6688.74600281
0.24200001 151344.27575049 7171.44884566
0.24300001 149171.19759253 8189.49913522
0.24400001 147033.32313274 6484.16985688
0.24500001 144929.58159704 5882.69199530
0.24600001 142860.12088270 6880.85804782
0.24700001 140824.68964980 6810.28231363
0.24800001 138821.45405189 5703.47970953
0.24900001 136849.20577499 6158.21455120
0.25000001 134909.81421396 7111.09664363
0.25100001 133000.38193029 5530.15614229
0.25200001 131123.38783584 5971.35936455
0.25300001 129274.32441040 6402.95759097
0.25400001 127455.54857234 4875.17496354
0.25500001 125663.71353748 4825.48682814
0.25600001 123901.71674955 7164.61711002
0.25700001 122166.06136029 6618.95751767
0.25800001 120457.59086533 7487.64420246
0.25900001 118776.67270606 5095.51950018
0.26000001 117120.71583458 4585.27624188
0.26100001 115489.95072544 7262.00844523
0.26200001 113885.27330107 4942.05166874
0.26300001 112303.97440543 6670.85639533
0.26400001 110747.45709084 4842.43279043
0.26500001 109214.35122355 4357.65282002
0.26600001 107704.07335350 6038.96767869
0.26700001 106216.61048064 5977.87112072
0.26800001 104751.82367991 5494.75717115
0.26900001 103307.83324154 5857.55442198
0.27000001 101885.72043365 5798.31662427
0.27100001 100484.43433095 4509.74162619
0.27200001 99104.26559053  6493.31178878
0.27300001 97743.98370576  5624.18908859
0.27400001 96401.94864727  4771.89668387
0.27500001 95081.54070535  4723.65116579
0.27600001 93777.91456263  5065.41429483
0.27700001 92494.74572332  5785.54661880
0.27800001 91228.57761287  5726.87423068
0.27900001 89980.92442503  4535.03880566
0.28000001 88750.34820107  4488.99282447
0.28100001 87537.16088186  3702.82208055
0.28200001 86341.55263985  4031.71899134
0.28300001 85162.37467248  3627.91733276
0.28400001 83998.72604069  3950.04027902
0.28500001 82851.85457901  4265.21367561
0.28600001 81720.39862110  3869.86965987
0.28700001 80605.14743742  3482.14253412
0.28800001 79503.54708581  4480.42260809
0.28900001 78418.76099307  4775.70277053
0.29000001 77347.59632681  4051.46728737
0.29100001 76291.57835770  3341.57129024
0.29200001 75249.36351011  3637.93065110
0.29300001 74221.43861865  3600.48215782
0.29400001 73206.61650925  4535.15010743
0.29500001 72206.61802312  4167.76618958
0.29600001 71218.62407155  4441.90579361
0.29700001 70244.50448945  3767.91539918
0.29800001 69283.40861277  4039.56933040
0.29900001 68335.55096069  3075.09993880
0.30000001 67399.12058554  3347.37748234
0.30100001 66476.38876657  3312.51860905
0.30200001 65564.73136516  3277.90889978
0.30300001 64666.14208296  3538.53146230
0.30400001 63779.32517245  3209.69469126
0.30500001 62904.66521435  3464.78912404
0.30600001 62040.41123262  3999.74550153
0.30700001 61188.75379857  3674.99672713
0.30800001 60348.22557666  3076.85442670
0.30900001 59519.12602275  3597.93133842
0.31000001 58701.34504111  3559.94323856
0.31100001 57893.95214806  2980.38079769
0.31200001 57098.36857418  2680.76853148
0.31300001 56312.80863292  3978.50011828
0.31400001 55539.48879634  2624.24096988
0.31500001 54774.94616591  3115.59908543
0.31600002 54022.80306005  3082.54128856
0.31700002 53280.12933754  3812.19343460
0.31800002 52547.61948463  3017.28445367
0.31900002 51826.20799296  2487.65810145
0.32000002 51115.13892479  4184.02989480
0.32100002 50413.59989954  3895.96318471
0.32200002 49723.25682829  2890.91028888
0.32300002 49041.39701997  2383.41200803
0.32400002 48370.80013159  3301.30726530
0.32500002 47709.41915841  2799.58884878
0.32600002 47058.10003321  2539.01990752
0.32700002 46416.83814339  3197.19196271
0.32800002 45786.21050903  2485.50455518
0.32900002 45163.25300716  2459.13924269
0.33000002 44551.36863522  3317.96333623
0.33100002 43947.94986038  2626.32960802
0.33200002 43355.80090572  2598.74682935
0.33300002 42772.22370754  2357.17736015
0.33400002 42198.65273897  2332.53064061
0.33500002 41634.29240721  2937.71581137
0.33600002 41079.04831427  2284.20058969
0.33700002 40533.09704134  3288.04498771
0.33800002 39997.26282807  2033.86091113
0.33900002 39470.09036167  2415.56964453
0.34000002 38951.97284817  2590.11155720
0.34100002 38443.65350232  2366.59142168
0.34200002 37945.05285374  2342.72767414
0.34300002 37454.67209540  2319.19340598
0.34400002 36974.25619627  2296.10141853
0.34500002 36502.59292058  2652.27852722
0.34600002 36040.76143752  2251.10606600
0.34700002 35586.48632920  2229.13760924
0.34800002 35142.43956836  2575.58951795
0.34900002 34706.60550588  2004.30656289
0.35000002 34280.34064746  2887.77603291
0.35100002 33863.53152316  1787.99454911
0.35200002 33453.97710690  1948.52698888
0.35300002 33054.69555590  1930.72485887
0.35400002 32663.33432150  1913.25489850
0.35500002 32281.29274496  1723.82111423
0.35600002 31907.58053319  2562.97652772
0.35700002 31542.51603861  2371.36646810
0.35800002 31186.52134085  2015.27310450
0.35900002 30839.44936136  1831.86337883
0.36000002 30500.69538765  2147.09655351
0.36100002 30169.84167409  2293.51147270
0.36200002 29849.07885892  1787.81066294
0.36300002 29535.20351486  1935.14662596
0.36400002 29230.43155324  1600.36620334
0.36500002 28933.17983613  2064.96114272
0.36600002 28645.02207855  1576.90854012
0.36700002 28364.64208226  2348.59247566
0.36800002 28093.13322576  1710.45049747
0.36900002 27829.64528682  1853.45446390
0.37000002 27573.42340792  1841.35330240
0.37100002 27325.38141561  1982.18326178
0.37200002 27085.93530812  1818.54978273
0.37300002 26854.00021804  1657.16043196
0.37400002 26629.79940397  1947.30417366
0.37500002 26413.46837292  1638.69165548
0.37600002 26205.15819133  1778.28211910
0.37700002 26004.22844394  1769.32778714
0.37800002 25810.69237768  1614.07172430
0.37900002 25625.52477904  1606.72047976
0.38000002 25446.93355474  1599.72155370
0.38100002 25275.07900700  1882.74072442
0.38200002 25111.63015582  1731.19586495
0.38300002 24954.81971205  1868.61698856
0.38400002 24805.25352861  2005.50484280
0.38500002 24662.15855503  2141.90857198
0.38600002 24527.01124923  1566.17237752
0.38700002 24397.80888536  1561.94779884
0.38800002 24275.27708412  1558.10873346
0.38900002 24159.47784513  1695.99542508
0.39000002 24050.89514920  1833.76058753
0.39100002 23947.84859228  1408.13356394
0.39200002 23852.06491417  1968.51101063
0.39300002 23761.73278017  1544.75032122
0.39400002 23678.91572936  1683.57098812
0.39500002 23600.84298337  1682.26816756
0.39600002 23529.03259537  1681.38474893
0.39700002 23462.56433976  1820.92970468
0.39800002 23403.05990520  1680.80784203
0.39900002 23348.02506897  1681.05788461
0.40000002 23299.13592633  1821.87602008
0.40100002 23255.17378847  2103.43056883
0.40200002 23217.10779813  2245.55877263
0.40300002 23183.97403615  1404.94889316
0.40400002 23156.10100576  1969.42648385
0.40500002 23132.64580370  1690.53383543
0.40600002 23115.03914387  1693.40784791
0.40700002 23101.68431318  1555.20546165
0.40800002 23092.69890703  1700.08457409
0.40900002 23088.16015066  1845.89849151
0.41000002 23088.60279505  2135.11864464
0.41100002 23093.10596943  1569.86941819
0.41200002 23100.76939904  2003.52982491
0.41300002 23114.06647374  2009.53703444
0.41400002 23130.32322183  1727.83522654
0.41500002 23150.51324979  1589.05130476
0.41600002 23173.35349987  2029.29066214
0.41700002 23201.35842496  1454.72524218
0.41800002 23233.07597323  1752.23867293
0.41900002 23266.24314771  1758.92806531
0.42000002 23303.23611873  1471.59943063
0.42100002 23344.22562209  1773.22746228
0.42200002 23387.52854535  1929.12038347
0.42300002 23433.33576429  1639.39624775
0.42400002 23481.88388854  2544.84928701
0.42500002 23533.58990935  2105.31505305
0.42600002 23586.46461267  1963.92706904
0.42700002 23642.82612570  1669.65646012
0.42800002 23700.64467779  1982.67752447
0.42900002 23761.62933125  2298.93774674
0.43000002 23824.23485926  2310.35528496
0.43100002 23887.33461378  1857.47922759
0.43200002 23953.35056868  2178.07827042
0.43300002 24020.33332133  2658.33041465
0.43400002 24089.31524853  1886.19347334
0.43500002 24159.08836767  1738.00489953
0.43600002 24230.80717371  2064.82833116
0.43700002 24302.97994414  1596.70585800
0.43800002 24375.86177169  1605.15057373
0.43900002 24450.53421418  1775.10886807
0.44000002 24525.35838479  2271.29354765
0.44100002 24601.21203135  2283.48460896
0.44200002 24677.42683436  2295.74112720
0.44300002 24754.29734697  1978.36353773
0.44400002 24831.27934716  2154.73436746
0.44500002 24908.12252542  2332.89486629
0.44600002 24984.97151436  2345.33938720
0.44700002 25062.91936131  2021.07391308
0.44800002 25139.54167708  2370.40749707
0.44900002 25216.79620237  1872.34720676
0.45000002 25294.04855261  1711.14246568
0.45100002 25369.99942026  2064.10325065
0.45200002 25446.01398569  1901.96240550
0.45300002 25520.90153284  2433.16286746
0.45400002 25595.43032213  2270.95466296
0.45500002 25669.61317134  2282.54211137
0.45600002 25742.36182392  3352.81407466
0.45700002 25814.66320365  1950.81419076
0.45800002 25885.40752398  2495.09454949
0.45900002 25955.13029942  2507.26570575
0.46000002 26024.05644997  1799.56358880
0.46100002 26090.98259211  2169.72621519
0.46200002 26157.13723853  2361.59724751
0.46300002 26221.98091282  2190.05994964
0.46400002 26284.62728498  2750.02926003
0.46500002 26346.81601135  2025.80677913
0.46600002 26406.36148950  2219.71885201
0.46700002 26464.19148191  2043.56496309
0.46800002 26521.13291215  1865.76178880
0.46900002 26575.32762980  2060.91675537
0.47000002 26627.88410589  2445.63813162
0.47100002 26678.80498556  2266.63137900
0.47200002 26727.70086400  2844.49569927
0.47300002 26774.58191644  2284.40743739
0.47400002 26818.56131805  2292.98710138
0.47500002 26860.99801056  2301.45041863
0.47600002 26901.81554520  2117.30749284
0.47700002 26939.30557403  2511.01279157
