# SAXS profile: number of points = 501, q_min = 0, q_max = 0.5, delta_q = 0.001
#    q    intensity    error
0.00000000 1719190.39626457 283.66641538
0.00100000 1719106.81538787 670.45167392
0.00200000 1718856.01261483 1082.87932224
0.00300000 1718438.23104386 1340.38186796
0.00400000 1717853.29896450 1417.22902550
0.00500000 1717101.77944782 2009.00916147
0.00600000 1716183.54943544 2162.39136032
0.00700000 1715099.19423010 2058.11911861
0.00800000 1713848.50235171 3007.80424862
0.00900000 1712432.78907842 2825.51422276
0.01000000 1710851.36352700 3105.19535888
0.01100000 1709105.53628911 3384.02910919
0.01200000 1707195.28568088 3329.03095304
0.01300000 1705121.74463738 4296.90698600
0.01400000 1702884.91511826 4214.64035176
0.01500000 1700486.25967609 4081.16720495
0.01600000 1697925.18717389 6061.59318919
0.01700000 1695203.99275419 5950.16628148
0.01800000 1692322.57721348 5305.43151830
0.01900000 1689281.77053068 5574.63009429
0.02000000 1686082.57621273 7435.62449745
0.02100000 1682727.17397723 6663.59991107
0.02200000 1679214.06025604 8110.60427952
0.02300000 1675546.32902669 9047.95058859
0.02400000 1671723.89187470 6895.86136842
0.02500000 1667749.11228210 11057.17711942
0.02600000 1663621.97336460 7411.43623033
0.02700000 1659344.67313796 8363.09753565
0.02800000 1654916.96675479 7198.88913552
0.02900000 1650341.74893025 11882.46113787
0.03000000 1645620.04072962 8417.34689524
0.03100000 1640752.31787402 8663.17263699
0.03200000 1635740.26862466 9716.29764315
0.03300000 1630587.45598387 9979.19569067
0.03400000 1625291.84733787 17065.56518446
0.03500000 1619857.18054543 8747.22917888
0.03600000 1614284.57145425 10751.13574274
0.03700000 1608575.74067926 11002.65857509
0.03800000 1602732.38268120 13126.37882164
0.03900000 1596756.48711935 11496.64723967
0.04000000 1590647.77753736 11738.98114220
0.04100000 1584410.92385486 10979.96821142
0.04200000 1578046.09989348 13231.91716147
0.04300000 1571554.37647628 11409.48530282
0.04400000 1564939.65671324 11619.67749074
0.04500000 1558202.98217750 19352.88193787
0.04600000 1551344.46604941 16405.46849111
0.04700000 1544368.59704515 14455.29074063
0.04800000 1537275.61968365 19208.25976167
0.04900000 1530069.45186273 14918.17785007
0.05000000 1522749.70483487 16308.65009821
0.05100000 1515320.99441710 13001.45473776
0.05200000 1507781.49020730 14384.23608690
0.05300000 1500137.59551701 17011.56112621
0.05400000 1492388.87243818 13543.42964896
0.05500000 1484538.38039592 14964.14757246
0.05600000 1476587.07690373 13887.30210632
0.05700000 1468540.08382400 21719.70885360
0.05800000 1460395.96269079 20679.20779726
0.05900000 1452158.11791541 15683.30840599
0.06000000 1443829.96371111 19816.56717774
0.06100000 1435412.92616799 14684.27492091
0.06200000 1426909.36932596 14832.72358748
0.06300000 1418321.88760976 17700.65798497
0.06400000 1409650.09754842 13744.08909386
0.06500000 1400900.15027173 15255.80335009
0.06600000 1392072.36729906 15389.36074054
0.06700000 1383169.23294731 16929.99220358
0.06800000 1374193.03946433 17067.47834906
0.06900000 1365146.81476160 18634.25489393
0.07000000 1356031.68424195 17330.08573615
0.07100000 1346850.34074457 18909.77966975
0.07200000 1337605.09887308 17576.13182258
0.07300000 1328299.69537105 23590.60369514
0.07400000 1318935.43865892 25224.64144648
0.07500000 1309514.42489618 14928.46514355
0.07600000 1300037.27951811 15015.43128237
0.07700000 1290510.46219723 16608.87042724
0.07800000 1280933.34300612 16696.96690911
0.07900000 1271308.34297824 15255.70083129
0.08000000 1261639.72999491 21460.49281395
0.08100000 1251928.32822210 20018.33490750
0.08200000 1242176.05754926 17011.60190641
0.08300000 1232385.94104659 18633.67630314
0.08400000 1222560.58814020 18705.17787654
0.08500000 1212701.35014533 18772.61778153
0.08600000 1202811.50844964 21975.36729115
0.08700000 1192894.03972446 17320.82227015
0.08800000 1182948.61713985 23688.54717073
0.08900000 1172980.31784911 17418.75853821
0.09000000 1162989.37666374 15874.80573719
0.09100000 1152978.92057076 15911.10985140
0.09200000 1142950.67078848 15944.16260666
0.09300000 1132909.27675780 15974.02155294
0.09400000 1122852.04043260 20800.83502660
0.09500000 1112784.70496664 17626.51055516
0.09600000 1102708.42562268 24066.61252053
0.09700000 1092627.97841503 17667.79524158
0.09800000 1082542.38350666 19290.90618110
0.09900000 1072455.13571260 20912.87612977
0.10000000 1062366.84501222 27361.25938001
0.10100000 1052279.92438665 30589.77884061
0.10200000 1042197.64453871 22542.73611170
0.10300000 1032120.92043467 16101.08711619
0.10400000 1022053.42167453 17707.07636354
0.10500000 1011997.08772712 17699.82989711
0.10600001 1001949.40848864 20905.67539180
0.10700001 991918.78797891 22496.71917000
0.10800001 981902.46606408 19264.92729082
0.10900001 971905.04664848 16036.43402447
0.11000001 961926.70757785 20820.90456555
0.11100001 951970.11346682 19191.71839091
0.11200001 942036.63894073 15967.52178175
0.11300001 932128.16408448 15939.39235628
0.11400001 922246.94111653 15908.76048331
0.11500001 912395.16648080 15875.67664432
0.11600001 902572.89383359 19008.18603926
0.11700001 892784.07357356 22123.19038504
0.11800001 883026.86591892 17338.23332892
0.11900001 873304.97372820 15719.49026752
0.12000001 863619.15728043 18809.62613159
0.12100001 853974.64731804 21878.83149496
0.12200001 844368.25941998 17136.45463225
0.12300001 834805.07979504 15527.37521575
0.12400001 825282.60976339 18568.85959459
0.12500001 815804.68156479 18502.45104973
0.12600001 806374.03344639 15361.42606104
0.12700001 796989.68576559 24483.52430054
0.12800001 787653.32471918 16765.20180678
0.12900001 778367.30642856 16695.97950981
0.13000001 769132.83691094 21158.84534074
0.13100001 759948.76690273 16551.68492335
0.13200001 750819.94113639 17974.63023814
0.13300001 741745.19952437 14909.07921330
0.13400001 732725.61262181 20772.77209717
0.13500001 723763.92959857 28053.09123389
0.13600001 714859.75087253 20566.51600233
0.13700001 706014.80745657 21921.76080521
0.13800001 697227.93993122 17444.64387969
0.13900001 688504.41648372 14458.59342800
0.14000001 679841.00674415 21567.95695612
0.14100001 671241.96274159 14297.45448071
0.14200001 662705.57787890 21322.55297394
0.14300001 654235.30293129 19784.07649381
0.14400001 645826.71223641 19665.42431521
0.14500001 637487.18880355 13960.97009337
0.14600001 629213.51734098 15261.57458306
0.14700001 621008.72608046 19300.95211713
0.14800001 612870.04511793 15067.41077008
0.14900001 604800.74124115 17690.42251595
0.15000001 596800.29974476 20276.29114052
0.15100001 588870.62632397 20139.37637056
0.15200001 581011.90378453 17334.49096737
0.15300001 573224.52604209 14565.63589407
0.15400001 565506.26818186 21036.83416911
0.15500001 557861.74902122 15664.75865178
0.15600001 550287.88052812 14255.20821785
0.15700001 542789.84184997 15436.94383079
0.15800001 535361.24510551 17875.71281778
0.15900001 528008.50049383 12672.20460999
0.16000001 520726.97459206 18863.33554499
0.16100001 513521.63824861 21213.57987742
0.16200001 506389.74538208 14857.47583087
0.16300001 499331.99518996 14740.28119386
0.16400001 492349.34261293 15841.34084643
0.16500001 485440.72945038 14504.96968078
0.16600001 478607.74524661 14386.94950136
0.16700001 471847.87151716 11890.56692364
0.16800001 465163.29593972 12971.07911973
0.16900001 458555.64999007 16370.43747763
0.17000001 452021.14193331 18550.94854091
0.17100001 445562.08250920 11495.50227157
0.17200001 439177.35756535 14815.64885710
0.17300001 432868.15323680 15817.00306622
0.17400001 426633.73632884 12319.04971828
0.17500001 420473.13220256 13320.58945728
0.17600001 414385.96408266 12102.14265261
0.17700001 408375.84823866 13084.36279555
0.17800001 402437.85959112 14047.09415250
0.17900001 396573.23429408 11778.22561486
0.18000001 390784.65190952 12731.76456060
0.18100001 385068.99183424 12614.86076837
0.18200001 379424.28557025 13539.75627016
0.18300001 373853.51309318 11350.19319368
0.18400001 368354.85158336 13288.40189862
0.18500001 362929.10927504 14176.01167799
0.18600001 357575.17210294 12035.98086161
0.18700001 352291.76483385 15895.40518028
0.18800001 347078.22364517 14759.50215784
0.18900001 341938.81748955 11694.30811067
0.19000001 336865.60539668 9651.20005062
0.19100001 331864.86901551 10513.47954717
0.19200001 326931.40430642 11357.59752227
0.19300001 322069.19342257 10309.43536860
0.19400001 317273.22079719 9280.24214685
0.19500001 312546.00631617 10107.73832191
0.19600001 307884.81163753 10917.59593659
0.19700001 303292.56413079 9908.56853841
0.19800001 298764.98168205 12485.38917454
0.19900001 294303.48744470 10594.92604873
0.20000001 289905.81775572 10488.79298211
0.20100001 285574.41597420 9518.19573427
0.20200001 281305.27578196 11992.04447337
0.20300001 277100.38407413 9327.19936878
0.20400001 272958.28012794 10072.16101279
0.20500001 268877.50933178 9969.97851727
0.20600001 264858.26686019 9868.61948968
0.20700001 260899.98980845 11396.11209352
0.20800001 257001.55983043 8056.99928154
0.20900001 253164.90543468 11962.04234725
0.21000001 249384.22048261 8682.31204654
0.21100001 245663.39897305 7812.09645665
0.21200001 241998.51320698 13917.33515247
0.21300001 238390.92281788 9948.05367949
0.21400001 234839.96533473 9845.66601213
0.21500001 231345.26795709 12742.49796151
0.21600001 227903.81948353 8160.09664241
0.21700001 224517.45396008 8075.89320077
0.21800001 221184.45205688 7992.50055297
0.21900001 217902.87929436 12224.35210640
0.22000001 214673.28659978 7116.41978727
0.22100001 211496.46519717 12677.09872334
0.22200001 208370.18212087 8363.97950582
0.22300001 205292.74906161 8967.18770303
0.22400001 202264.03739942 8874.33506053
0.22500001 199286.29608867 9458.12805962
0.22600001 196354.10224073 7354.44324721
0.22700001 193470.43931249 7278.35827112
0.22800001 190632.00179592 7857.85148563
0.22900001 187839.41008226 7776.55194517
0.23000001 185092.07453883 8337.47289190
0.23100001 182390.34069161 9520.77623437
0.23200001 179730.47592917 6281.58043080
0.23300001 177114.77486818 8703.42044865
0.23400001 174539.80337403 6767.78119591
0.23500001 172006.87789796 6697.94814213
0.23600001 169515.19149123 9039.39801381
0.23700001 167063.38343631 7156.99568492
0.23800001 164651.07791090 8854.11213345
0.23900001 162278.03661749 7594.61247292
0.24000001 159942.50231059 8094.69042482
0.24100001 157645.51655813 6867.03902609
0.24200001 155385.62809397 7929.32897671
0.24300001 153161.28504843 6166.27362773
0.24400001 150972.57796290 6657.89100311
0.24500001 148818.41556005 6589.67975272
0.24600001 146699.07271584 7609.28126173
0.24700001 144614.27007734 7531.51154191
0.24800001 142562.02671769 5857.16114478
0.24900001 140541.02469627 5797.31754298
0.25000001 138553.56840713 7303.15893624
0.25100001 136596.48895334 7228.68653739
0.25200001 134672.39082255 6132.98096821
0.25300001 132776.51290488 5564.66391911
0.25400001 130911.54337781 5508.10344822
0.25500001 129073.78383024 4956.43353358
0.25600001 127266.44458457 5396.73383794
0.25700001 125485.86653243 5827.56391749
0.25800001 123732.86206965 6729.83068638
0.25900001 122007.90506823 5709.97022736
0.26000001 120308.33961531 5181.07889068
0.26100001 118634.63767926 5594.80977768
0.26200001 116987.09463167 6922.71165239
0.26300001 115363.54425053 5482.07588218
0.26400001 113765.29471685 4974.38774687
0.26500001 112190.88583930 5819.34152385
0.26600001 110639.58481421 5760.45025593
0.26700001 109111.75942565 5702.18081741
0.26800001 107606.89716684 5644.52005799
0.26900001 106123.36460812 6446.99470502
0.27000001 104662.06613493 5956.31846560
0.27100001 103222.13376366 5474.90223391
0.27200001 101803.71769040 6670.17989873
0.27300001 100405.60401982 4539.33757256
0.27400001 99026.11961496  4901.79315292
0.27500001 97668.72564975  4043.48543326
0.27600001 96328.75415455  4402.70591700
0.27700001 95009.53986969  4358.08780008
0.27800001 93707.61965331  4705.99688171
0.27900001 92424.72820256  4270.02264505
0.28000001 91159.25767362  4226.59918208
0.28100001 89911.66945433  5324.56931709
0.28200001 88682.03329447  4517.46298983
0.28300001 87469.43134243  3726.19795155
0.28400001 86272.54130984  4794.59671023
0.28500001 85092.91245366  4380.58334045
0.28600001 83929.15728676  4335.78047066
0.28700001 82782.02679835  4291.42047235
0.28800001 81648.81138486  5309.21421160
0.28900001 80533.02254091  4203.82397562
0.29000001 79431.11529647  3467.16834681
0.29100001 78344.81108431  5147.25433188
0.29200001 77272.65936312  3735.74689374
0.29300001 76215.27945877  5041.64097485
0.29400001 75171.28039596  3658.96224648
0.29500001 74142.49138622  4279.50480539
0.29600001 73126.23595552  4235.10615584
0.29700001 72124.05490063  3546.33994734
0.29800001 71135.45509666  4466.59543696
0.29900001 70160.35250412  4420.10241700
0.30000001 69197.13228496  4061.52587174
0.30100001 68247.87306813  3709.95455561
0.30200001 67310.13580804  4588.86872595
0.30300001 66385.84287936  3329.91403647
0.30400001 65473.68788787  2995.42136268
0.30500001 64574.03512506  3260.34318782
0.30600001 63685.08952009  3812.50806461
0.30700001 62809.16041654  2901.78334862
0.30800001 61944.77508486  3158.25450723
0.30900001 61092.12291487  5113.41093007
0.31000001 60251.21854111  3091.79142582
0.31100001 59420.76224189  3893.24852642
0.31200001 58602.69238521  3026.53619153
0.31300001 57794.84957395  4083.20631572
0.31400001 56999.72031019  2962.56060339
0.31500001 56213.48964282  2930.97148875
0.31600002 55440.16023778  3427.03366736
0.31700002 54676.66347242  2868.88466823
0.31800002 53923.59144117  2838.26836989
0.31900002 53181.88794601  2808.00381651
0.32000002 52450.93368802  3535.71760732
0.32100002 51729.77370722  3497.96746371
0.32200002 51020.14274740  2966.31123979
0.32300002 50319.28636262  2445.51743302
0.32400002 49630.10994823  3387.25516436
0.32500002 48950.22218912  3111.76577191
0.32600002 48280.78912592  3315.44194627
0.32700002 47621.71184810  3045.88483404
0.32800002 46973.63497137  3477.22349341
0.32900002 46333.39774605  2522.85362674
0.33000002 45704.47766050  2723.07290796
0.33100002 45084.34525766  2245.20050015
0.33200002 44475.83540416  2221.56808364
0.33300002 43876.14626209  2198.19503183
0.33400002 43286.68258049  2392.67149294
0.33500002 42706.64386424  2582.89794322
0.33600002 42136.17253509  2555.98034702
0.33700002 41575.15493408  2740.21859147
0.33800002 41024.35524071  2086.08856278
0.33900002 40482.69727140  3096.92648793
0.34000002 39950.26343184  2452.14728558
0.34100002 39427.99847286  3033.98462617
0.34200002 38915.45393413  2202.42021971
0.34300002 38411.43436964  2576.63913954
0.34400002 37917.58611571  2943.35276163
0.34500002 37432.90450713  2137.04461952
0.34600002 36958.20060809  2693.14420586
0.34700002 36491.15286940  2285.80592400
0.34800002 36034.67242818  2263.69822915
0.34900002 35586.64216062  2241.95856230
0.35000002 35148.40365901  2035.61989432
0.35100002 34719.79584725  2383.16689983
0.35200002 34298.57294839  1997.72047600
0.35300002 33887.98168343  1799.45191262
0.35400002 33485.31236196  1961.40226450
0.35500002 33092.22720534  2120.55001976
0.35600002 32707.76325253  2101.80096616
0.35700002 32331.97464429  2257.09525682
0.35800002 31965.74521983  2409.89764627
0.35900002 31608.39173845  2389.59452861
0.36000002 31259.60693430  1861.97857524
0.36100002 30918.83951106  2014.67167797
0.36200002 30588.50042637  1832.09831982
0.36300002 30265.03463024  1652.47096908
0.36400002 29950.92393250  2295.73842817
0.36500002 29644.53336942  1627.48495907
0.36600002 29347.36637107  2100.24437383
0.36700002 29058.11914789  1924.80990353
0.36800002 28777.89938832  2070.71384857
0.36900002 28505.82985713  1898.48835841
0.37000002 28241.17343019  2514.59420134
0.37100002 27984.93377971  2030.02719254
0.37200002 27737.45082080  2172.67462571
0.37300002 27497.52378797  2159.65562061
0.37400002 27265.45275756  1993.78632734
0.37500002 27041.42196990  1677.64989848
0.37600002 26825.63551829  1820.38771251
0.37700002 26617.34005119  2112.88455335
0.37800002 26416.44625569  1952.30755301
0.37900002 26224.19520946  1494.77919775
0.38000002 26038.51378480  2083.34158662
0.38100002 25859.72174147  2074.46697637
0.38200002 25689.49318999  1475.86145368
0.38300002 25526.03664923  1764.35973678
0.38400002 25369.94803700  1758.13748225
0.38500002 25220.34547965  2336.41291592
0.38600002 25078.90501755  1892.57965681
0.38700002 24943.43919816  1742.04987613
0.38800002 24814.72266531  1592.73304973
0.38900002 24692.82376227  1733.43631023
0.39000002 24578.35505565  1729.82471077
0.39100002 24469.36080131  1582.67833161
0.39200002 24367.94527748  1867.43757481
0.39300002 24271.91769896  1577.91744437
0.39400002 24183.55045403  1432.87543229
0.39500002 24099.86019269  2004.14446858
0.39600002 24022.65583340  2002.76891172
0.39700002 23950.85629823  2430.77252087
0.39800002 23886.12494176  2287.33543279
0.39900002 23825.90999626  2144.33200126
0.40000002 23771.92300059  1572.86935985
0.40100002 23722.83283622  1859.63295414
0.40200002 23679.78654908  1574.58748118
0.40300002 23641.73193879  1862.49573038
0.40400002 23609.07146300  2007.95162307
0.40500002 23580.90848502  2010.50835269
0.40600002 23558.49332775  1869.71991155
0.40700002 23540.52200553  2161.02002250
0.40800002 23526.91408796  1732.05149722
0.40900002 23517.88692490  1446.35011441
0.41000002 23513.76731454  1594.58620599
0.41100002 23513.91887576  1889.10833199
0.41200002 23517.09606080  1456.88417000
0.41300002 23526.11856769  1899.26364196
0.41400002 23538.02405532  2490.91151368
0.41500002 23553.95627168  1763.72032919
0.41600002 23572.49447733  2506.58131902
0.41700002 23596.43135140  2071.29484217
0.41800002 23624.00183231  2078.67601972
0.41900002 23653.03053316  1639.15509362
0.42000002 23685.89562177  1645.34081733
0.42100002 23723.00912413  1801.99985846
0.42200002 23762.19174787  2261.56670677
0.42300002 23804.10630597  1968.12360264
0.42400002 23848.68900036  1824.42479498
0.42500002 23896.52182391  1679.68659860
0.42600002 23945.54935052  2453.94001372
0.42700002 23997.91330351  2002.86593922
0.42800002 24051.87361276  1702.51195436
0.42900002 24109.13336297  2332.55876340
0.43000002 24167.99222385  1562.46077131
0.43100002 24227.29948745  1883.91489742
0.43200002 24289.49584093  2050.88367852
0.43300002 24352.81749970  2060.97904267
0.43400002 24418.06389200  1911.93449335
0.43500002 24484.19611010  2241.77310207
0.43600002 24552.19037863  1931.27538670
0.43700002 24620.67820290  2102.85222496
0.43800002 24689.91595775  1950.99725144
0.43900002 24760.95668953  1634.22321895
0.44000002 24832.13348334  2299.70399087
0.44100002 24904.32871270  2146.50419347
0.44200002 24976.95594060  1825.69068100
0.44300002 25050.17797378  2168.84451175
0.44400002 25123.55961921  2012.39722087
0.44500002 25196.86733754  2022.80460572
0.44600002 25270.06516160  1863.79374432
0.44700002 25344.49835387  2384.41051813
0.44800002 25417.46717849  2396.61309384
0.44900002 25491.09787044  2064.77902536
0.45000002 25564.83119734  2075.35309496
0.45100002 25637.28649284  2954.95378121
0.45200002 25709.71413061  2271.06770536
0.45300002 25781.01560986  1755.68724624
0.45400002 25852.03684899  2117.28191828
0.45500002 25922.63172576  2305.04052230
0.45600002 25991.81441093  2316.26065101
0.45700002 26060.55540050  2506.50433721
0.45800002 26127.71133229  2698.33951573
0.45900002 26193.88540504  2168.85381433
0.46000002 26259.21932684  2178.99012301
0.46100002 26322.54005858  2006.56732377
0.46200002 26385.09551374  2198.93396433
0.46300002 26446.40153153  2392.87052398
0.46400002 26505.47702685  2033.63282127
0.46500002 26564.09861731  2042.51363949
0.46600002 26620.04714339  1864.73439077
0.46700002 26674.27781898  2059.78783081
0.46800002 26727.71162754  2820.44190317
0.46900002 26778.24557309  1887.86640238
0.47000002 26827.16122958  2843.00854605
0.47100002 26874.47214162  2663.79780493
0.47200002 26919.77124075  1909.95786006
0.47300002 26963.09848125  2108.78403217
0.47400002 27003.44042868  1923.99522174
0.47500002 27042.21152675  2316.97679343
0.47600002 27079.38541224  2712.54216531
0.47700002 27113.31101259  2332.82939010
