# SAXS profile: number of points = 501, q_min = 0, q_max = 0.5, delta_q = 0.001
#    q    intensity    error
0.00000000 1700912.83420643 306.16431016
0.00100000 1700829.77907958 612.29873501
0.00200000 1700580.55400821 1147.89191030
0.00300000 1700165.39337161 1428.13898131
0.00400000 1699584.14748761 1529.62579086
0.00500000 1698837.34817785 1834.74440865
0.00600000 1697924.89815092 1782.82121564
0.00700000 1696847.35929745 2647.08199052
0.00800000 1695604.55308148 2289.06624330
0.00900000 1694197.74121420 3049.55606455
0.01000000 1692626.29021842 3072.11684940
0.01100000 1690891.45420471 3347.96522509
0.01200000 1688993.23904032 5269.65913685
0.01300000 1686932.76626673 4251.07075848
0.01400000 1684710.06990911 4548.71739040
0.01500000 1682326.56556239 6863.89269314
0.01600000 1679781.66813043 5996.82082330
0.01700000 1677077.68590978 5886.54294161
0.01800000 1674214.52384539 7157.26741150
0.01900000 1671192.91232229 6016.29475583
0.02000000 1668014.02638510 8406.79107327
0.02100000 1664679.90912187 6042.78834408
0.02200000 1661189.07559901 6877.32308543
0.02300000 1657544.72957933 6563.87742791
0.02400000 1653746.56137810 8682.16984312
0.02500000 1649797.08396692 7077.62981346
0.02600000 1645696.27502909 8664.59128433
0.02700000 1641446.23980181 8962.29687980
0.02800000 1637046.83829860 7121.15407317
0.02900000 1632500.89308846 8815.50522743
0.03000000 1627809.46914844 9083.17725536
0.03100000 1622972.89803629 7790.27026903
0.03200000 1617993.00767759 8809.97233258
0.03300000 1612873.36749441 9048.22000877
0.03400000 1607611.90780846 16879.92581084
0.03500000 1602212.33911116 9517.14173380
0.03600000 1596675.64399373 11520.01530380
0.03700000 1591003.72973224 9068.72167888
0.03800000 1585198.23578340 10200.75111935
0.03900000 1579261.06149750 13265.79353092
0.04000000 1573192.18421434 12577.67209563
0.04100000 1566995.86565619 13820.90417592
0.04200000 1560672.53285004 11072.97213428
0.04300000 1554223.32789641 10257.87444027
0.04400000 1547651.86058819 12535.98065296
0.04500000 1540959.43573928 10632.62060064
0.04600000 1534145.97879115 14060.44854925
0.04700000 1527215.99784926 10995.95569591
0.04800000 1520169.91051888 14525.22417084
0.04900000 1513011.43048876 13617.10350824
0.05000000 1505740.08669618 14974.58585950
0.05100000 1498360.71617064 23374.42826114
0.05200000 1490871.31530587 11852.42750902
0.05300000 1483278.52046541 13216.01223345
0.05400000 1475581.61202738 15825.61352700
0.05500000 1467783.68183245 17261.13690357
0.05600000 1459885.75058340 14978.42849994
0.05700000 1451892.90721255 16420.90954708
0.05800000 1443803.83494969 15333.19744311
0.05900000 1435621.66526547 16796.77426811
0.06000000 1427349.98240249 15672.30353897
0.06100000 1418990.24281071 17155.59283729
0.06200000 1410544.63843888 14662.61220195
0.06300000 1402015.99549286 17497.16044184
0.06400000 1393403.60858734 16302.82298290
0.06500000 1384713.78990298 17821.26730969
0.06600000 1375946.86654617 13828.26665579
0.06700000 1367105.22416107 22311.15830245
0.06800000 1358191.30429755 18274.46485473
0.06900000 1349208.04663528 17000.02218353
0.07000000 1340156.40995743 15699.93307786
0.07100000 1331039.31987895 17250.27039360
0.07200000 1321859.05527829 14474.35733337
0.07300000 1312618.95180245 17484.08525724
0.07400000 1303320.85745986 32257.19273384
0.07500000 1293966.59688275 17701.46387507
0.07600000 1284556.92026818 14836.63312465
0.07700000 1275097.86389812 23869.83313139
0.07800000 1265589.43891377 17996.68266533
0.07900000 1256033.43585244 19594.12251834
0.08000000 1246434.46800993 21201.85129545
0.08100000 1236793.13953467 18255.06759603
0.08200000 1227111.54369280 19860.80126664
0.08300000 1217392.78734630 15339.14984046
0.08400000 1207639.05301561 18476.87837842
0.08500000 1197852.29167434 18542.75434561
0.08600000 1188035.07125655 20155.01593018
0.08700000 1178190.73481568 17107.33027284
0.08800000 1168318.98625454 20276.17695869
0.08900000 1158424.83804722 21894.23046746
0.09000000 1148508.81474228 18812.57526921
0.09100000 1138573.22005369 18854.77340991
0.09200000 1128620.26991376 18893.10420608
0.09300000 1118654.85853716 18927.64109590
0.09400000 1108673.97143615 17378.46531901
0.09500000 1098683.12692280 20567.34910272
0.09600000 1088684.03253156 22176.49478514
0.09700000 1078680.76359832 20613.59036147
0.09800000 1068672.87081399 15869.79287775
0.09900000 1058663.92689315 23819.93947517
0.10000000 1048653.85234874 17475.81727123
0.10100000 1038645.81307676 23836.92253120
0.10200000 1028642.64084579 27017.30023261
0.10300000 1018645.26338507 25425.38697012
0.10400000 1008657.40659008 19063.62588140
0.10500000 998680.97840294 20642.73679482
0.10600001 988713.49672591 28563.93426445
0.10700001 978763.15486777 22198.34939700
0.10800001 968827.53541866 17424.36404452
0.10900001 958911.03336512 17404.23607472
0.11000001 949013.84695817 18961.29755472
0.11100001 939138.46661788 22088.53777463
0.11200001 929286.50149754 18901.68833030
0.11300001 919459.73373297 15722.76218707
0.11400001 909660.28333052 20399.13281417
0.11500001 899890.52960476 18789.71514292
0.11600001 890150.48262429 17184.35587630
0.11700001 880443.85365101 18700.62833225
0.11800001 870769.09865916 20206.19788606
0.11900001 861129.83446048 17050.37152542
0.12000001 851526.63945456 20091.77200435
0.12100001 841964.64513809 15407.95373187
0.12200001 832441.24999792 19966.10432183
0.12300001 822960.60002076 21429.89503420
0.12400001 813521.24903550 16778.87655194
0.12500001 804126.07476763 22796.97529387
0.12600001 794778.54899604 15140.53207185
0.12700001 785477.17661812 22621.74375268
0.12800001 776223.92137949 16521.92694523
0.12900001 767020.90906705 17948.29011811
0.13000001 757869.41635138 20848.98862654
0.13100001 748768.54083330 22238.42671102
0.13200001 739722.46358217 17708.95661296
0.13300001 730730.79277056 20562.76547795
0.13400001 721794.13031504 17539.59819357
0.13500001 712915.20215357 18906.51205252
0.13600001 704093.63321326 17362.94981372
0.13700001 695331.44438819 17272.03389304
0.13800001 686627.26875375 15747.79715147
0.13900001 677986.15548026 18509.02291746
0.14000001 669405.17033805 14157.92002035
0.14100001 660888.36677887 16892.30745156
0.14200001 652434.04009480 13994.71082010
0.14300001 644045.64271055 19475.94115420
0.14400001 635718.94331842 16592.26520327
0.14500001 627461.07528294 16489.67783629
0.14600001 619268.85553112 13654.87890862
0.14700001 611145.28515486 21707.88155280
0.14800001 603087.61769600 14826.90978057
0.14900001 595099.25988403 18745.62757078
0.15000001 587179.71261148 15959.54534180
0.15100001 579330.31640719 15850.47820480
0.15200001 571551.97523079 19675.67767576
0.15300001 563844.47190742 18234.73108197
0.15400001 556206.10736127 12931.79260641
0.15500001 548641.18874561 15405.84530702
0.15600001 541146.53379772 17841.60206134
0.15700001 533727.41438955 13914.27434985
0.15800001 526377.56908551 13809.51617675
0.15900001 519103.29477085 13704.32762880
0.16000001 511899.91666181 16071.09864219
0.16100001 504772.54304310 13492.57071245
0.16200001 497718.31952084 15819.97753277
0.16300001 490737.83493863 15693.79670221
0.16400001 483832.08364775 13172.32909917
0.16500001 476999.93797609 15440.48872125
0.16600001 470243.12282991 12957.54986134
0.16700001 463559.29320372 15186.20316237
0.16800001 456950.39304220 16217.17021478
0.16900001 450417.71713910 12634.21756231
0.17000001 443957.91924988 13665.02539977
0.17100001 437573.41445436 12418.33408862
0.17200001 431262.77074272 17906.03108681
0.17300001 425027.12859245 14421.17115417
0.17400001 418866.15092042 10995.23698092
0.17500001 412778.50677975 10897.35309364
0.17600001 406763.89402753 15119.41465508
0.17700001 400825.96255576 11772.25907627
0.17800001 394959.57471822 11665.13159027
0.17900001 389166.40709860 14710.49088316
0.18000001 383448.35057678 11451.68553090
0.18100001 377803.15855161 11345.42938722
0.18200001 372228.60653964 10217.67573217
0.18300001 366727.31456511 12146.00923217
0.18400001 361297.87447689 13033.82143748
0.18500001 355940.76837391 16882.27144153
0.18600001 350655.09824882 12786.63876173
0.18700001 345439.46726983 10715.53278096
0.18800001 340293.27101745 12541.50909589
0.18900001 335220.73026861 11464.54951686
0.19000001 330213.83053746 10406.68936109
0.19100001 325278.95855206 11241.64133873
0.19200001 320411.04351706 12058.67019255
0.19300001 315613.80074628 9184.36203570
0.19400001 310882.27306527 11821.29899191
0.19500001 306219.03971945 11703.69225114
0.19600001 301621.39158833 10695.49505115
0.19700001 297092.01740542 10588.36000071
0.19800001 292626.93949206 9608.40601230
0.19900001 288227.52709398 10376.19146576
0.20000001 283891.37172219 17118.65052389
0.20100001 279620.90834185 10167.01670783
0.20200001 275412.41195874 10063.57000861
0.20300001 271267.46009747 10791.02007271
0.20400001 267184.89845199 9037.52961730
0.20500001 263163.28209690 8131.74580116
0.20600001 259202.43026158 9657.88300806
0.20700001 255302.19387610 7965.42882545
0.20800001 251461.05725441 7883.30451757
0.20900001 247681.42352274 13263.34085662
0.21000001 243957.09444023 8493.36664444
0.21100001 240292.10192147 10697.80488327
0.21200001 236682.86022010 9830.62306398
0.21300001 233130.04601042 7483.47483072
0.21400001 229633.36553516 8146.24402749
0.21500001 226192.54309945 8794.36649148
0.21600001 222804.49634690 9427.97270866
0.21700001 219470.66557704 7176.69110368
0.21800001 216190.04268151 8522.21188544
0.21900001 212960.42730603 9838.77220673
0.22000001 209781.98873618 8345.12790650
0.22100001 206655.97136929 10322.46625798
0.22200001 203579.62990939 8171.68673096
0.22300001 200552.04014200 8760.11352763
0.22400001 197572.57343863 7334.88213575
0.22500001 194643.44552363 8577.93704985
0.22600001 191759.45950437 6529.40990489
0.22700001 188923.29006200 7107.29450823
0.22800001 186132.12956153 7033.00284807
0.22900001 183385.97908640 8224.86155099
0.23000001 180684.82262377 6886.80233999
0.23100001 178028.56095123 6814.93363551
0.23200001 175413.72928366 7356.85215409
0.23300001 172842.52498139 6066.77291377
0.23400001 170311.73546276 7204.18675080
0.23500001 167822.31293427 8911.36523828
0.23600001 165373.61797805 9406.45183549
0.23700001 162964.54116865 6981.40127387
0.23800001 160594.25358568 8635.95639504
0.23900001 158262.68346732 8546.18531147
0.24000001 155968.14540876 6765.89846786
0.24100001 153711.89585864 6137.71629196
0.24200001 151492.06375275 6074.07458348
0.24300001 149307.33104693 6011.11343229
0.24400001 147157.78083777 8652.87792257
0.24500001 145042.37099299 8028.09561423
0.24600001 142961.15774338 5296.71114495
0.24700001 140914.03311685 5766.20250792
0.24800001 138898.99904268 5706.66564563
0.24900001 136914.96605573 6161.17376398
0.25000001 134963.80354209 6097.66493250
0.25100001 133042.67010323 10058.02633564
0.25200001 131153.91421923 5475.02040810
0.25300001 129292.95752924 6896.48668089
0.25400001 127462.48037212 7313.16015734
0.25500001 125658.89871168 6272.89252047
0.25600001 123885.16898648 7163.66023557
0.25700001 122137.81880324 5672.08057359
0.25800001 120417.63768352 4678.22544535
0.25900001 118725.02719234 4630.27627958
0.26000001 117057.39101909 4582.79707523
0.26100001 115415.11079553 4989.39547577
0.26200001 113798.81188644 7631.91768028
0.26300001 112205.93619449 4443.35528355
0.26400001 110637.91404429 4837.64302050
0.26500001 109093.39101229 4788.10915810
0.26600001 107571.65428133 4739.06945361
0.26700001 106072.91178002 6396.19688300
0.26800001 104596.76496799 5486.62356603
0.26900001 103141.53601937 7519.01833162
0.27000001 101708.25190110 4961.32876252
0.27100001 100295.82008847 6547.31144521
0.27200001 98904.58391443  4860.17148356
0.27300001 97533.38328083  4810.34669106
0.27400001 96180.42373904  4364.18693369
0.27500001 94849.15947995  5104.78200480
0.27600001 93534.79728901  3886.37101128
0.27700001 92241.00749593  5000.38525301
0.27800001 90964.21718572  4948.90847021
0.27900001 89706.06192630  4144.42025714
0.28000001 88465.07758451  4474.56383600
0.28100001 87241.69208232  4059.35612472
0.28200001 86035.79270241  4382.66348769
0.28300001 84846.54122008  5783.14052328
0.28400001 83672.91033253  6080.92904623
0.28500001 82516.17150791  4601.92710281
0.28600001 81374.94522020  5955.42564782
0.28700001 80250.04496395  4160.16252784
0.28800001 79138.85640794  5146.00438150
0.28900001 78044.68611952  3734.43840758
0.29000001 76964.20469696  3695.43646345
0.29100001 75899.04909976  3989.25420951
0.29200001 74847.76823931  3289.55956983
0.29300001 73810.96115481  3580.56989511
0.29400001 72787.31480859  3542.92271602
0.29500001 71778.67395442  3186.97327444
0.29600001 70782.23232805  4414.68803928
0.29700001 69799.65216153  3432.04905925
0.29800001 68830.34923047  4939.26609460
0.29900001 67874.35975295  3665.21560017
0.30000001 66930.05181166  3021.89198235
0.30100001 65999.46244988  3587.73094862
0.30200001 65080.25077926  3549.47704554
0.30300001 64174.18261495  4096.88001209
0.30400001 63279.97331307  2895.05891613
0.30500001 62398.22840774  4582.52611121
0.30600001 61526.90664360  4249.97127761
0.30700001 60668.39510080  3083.16798499
0.30800001 59821.21747976  3604.52762989
0.30900001 58985.66819323  3565.68381110
0.31000001 58161.50221984  2984.55762771
0.31100001 57347.83978064  3489.04273744
0.31200001 56546.28707649  3451.30279512
0.31300001 55754.89208011  4201.68886609
0.31400001 54975.87657712  3117.13234951
0.31500001 54205.91857605  2826.29672837
0.31600002 53448.39191923  3558.05961853
0.31700002 52700.56308612  3016.58037388
0.31800002 51963.08171829  3729.65036692
0.31900002 51236.85706468  3689.05388333
0.32000002 50521.21163375  4135.41397409
0.32100002 49815.24314008  2646.68399335
0.32200002 49120.68664220  3093.86659465
0.32300002 48434.76826870  2824.71581918
0.32400002 47760.29704219  4190.96626390
0.32500002 47095.17782305  2533.24973506
0.32600002 46440.41521819  2277.90247432
0.32700002 45795.86438918  2929.10362503
0.32800002 45162.10901277  3120.25025945
0.32900002 44536.20044248  2645.45043155
0.33000002 43921.56895063  2180.70600166
0.33100002 43315.59929446  2804.25203112
0.33200002 42721.05315611  2133.91670620
0.33300002 42135.30012091  2322.07649963
0.33400002 41559.76809490  2088.37844567
0.33500002 40993.62041384  2066.07856670
0.33600002 40436.77113631  2044.07887774
0.33700002 39889.39221141  2831.34919325
0.33800002 39352.29894969  2001.06449636
0.33900002 38824.09722542  2970.04357840
0.34000002 38305.21351302  2743.03646957
0.34100002 37796.17571505  2132.83829661
0.34200002 37297.08546417  2302.72216561
0.34300002 36806.38887221  2089.13073133
0.34400002 36325.90006270  3007.78466764
0.34500002 35854.37145182  3163.43134301
0.34600002 35392.79411859  2394.85352746
0.34700002 34939.02036850  2188.58033954
0.34800002 34495.63007474  2167.01558393
0.34900002 34060.66426108  1967.00345424
0.35000002 33635.42139263  2479.26702827
0.35100002 33219.84662743  1929.40878350
0.35200002 32811.69371827  2779.80682347
0.35300002 32413.97096137  1721.18193957
0.35400002 32024.35206836  1705.29682841
0.35500002 31644.29696197  2365.72775293
0.35600002 31272.74520913  2177.05226085
0.35700002 30909.93018872  2157.82232868
0.35800002 30556.39766178  1974.55451043
0.35900002 30211.96051997  2120.87972896
0.36000002 29876.07968526  1941.34774990
0.36100002 29548.26972741  2727.60090773
0.36200002 29230.62520810  2069.08990336
0.36300002 28920.09221882  1894.84453193
0.36400002 28618.79312268  2350.31849653
0.36500002 28325.21131091  2332.58126194
0.36600002 28040.90520699  1698.01709524
0.36700002 27764.48165359  1685.85940586
0.36800002 27497.19514120  1826.36378779
0.36900002 27237.98279686  1662.87892852
0.37000002 26986.26626679  1952.32152555
0.37100002 26742.85889010  2089.15223546
0.37200002 26508.17214718  1928.07199246
0.37300002 26281.19455360  2064.12511802
0.37400002 26062.09652454  1465.99299895
0.37500002 25851.01867675  2478.59578814
0.37600002 25648.03887160  1740.47600028
0.37700002 25452.60037734  1443.16250976
0.37800002 25264.71433656  1436.29907807
0.37900002 25085.35061883  2144.79757951
0.38000002 24912.73664900  1850.89185702
0.38100002 24746.93946135  1985.19957763
0.38200002 24589.68159636  1977.74818449
0.38300002 24439.14321810  1407.69471605
0.38400002 24296.00846590  2244.95128860
0.38500002 24159.48875968  1818.48480509
0.38600002 24031.01606747  2092.50082321
0.38700002 23908.60906669  1808.92544768
0.38800002 23792.97861164  1665.98444131
0.38900002 23684.25639941  1524.08197151
0.39000002 23582.78025433  1659.75615293
0.39100002 23486.98175764  1795.34497061
0.39200002 23398.59041807  1793.15106164
0.39300002 23315.67073776  1929.13868824
0.39400002 23240.40988647  1790.09265632
0.39500002 23169.94237759  2477.33035638
0.39600002 23105.86755224  1651.14537351
0.39700002 23047.20007391  1926.28507344
0.39800002 22995.58949993  1513.91470645
0.39900002 22948.57873277  2065.37218380
0.40000002 22907.70448336  1791.26803694
0.40100002 22871.90857199  1930.84661313
0.40200002 22842.06490634  1518.88317791
0.40300002 22817.21341247  1797.54015780
0.40400002 22797.67691701  1384.95893833
0.40500002 22782.64612300  1526.20953609
0.40600002 22773.51736758  2085.48495175
0.40700002 22768.66817964  1393.44255862
0.40800002 22768.28626671  2095.25164297
0.40900002 22772.37322839  1680.60122388
0.41000002 22781.48707148  2106.71811676
0.41100002 22794.74530508  1408.71532660
0.41200002 22811.19466189  1695.78429152
0.41300002 22833.32925813  2410.51468400
0.41400002 22858.45383267  1849.82046406
0.41500002 22887.47088565  1570.99607603
0.41600002 22919.27193657  2007.04073859
0.41700002 22956.17729499  1583.28762306
0.41800002 22996.87046398  1734.42405258
0.41900002 23039.00286105  2032.04014863
0.42000002 23085.01904105  1749.38282582
0.42100002 23135.00973589  2343.11389708
0.42200002 23187.31757973  1765.48244418
0.42300002 23242.21674715  1626.02556068
0.42400002 23299.76160319  1782.43184711
0.42500002 23360.51925236  1642.01097606
0.42600002 23422.41561141  2550.34984470
0.42700002 23487.79101697  1658.70788022
0.42800002 23554.64550050  1970.46396272
0.42900002 23624.58659353  1828.54308899
0.43000002 23696.23488214  2451.13865236
0.43100002 23768.24383956  2002.23695593
0.43200002 23843.23232298  2013.20341659
0.43300002 23919.15208553  2179.99162438
0.43400002 23997.03723892  1878.96810485
0.43500002 24075.69424399  2046.91562162
0.43600002 24156.29917514  1900.13458316
0.43700002 24237.22917488  1592.38603225
0.43800002 24318.85088123  1921.67568770
0.43900002 24402.30920469  2254.77347737
0.44000002 24485.76287132  2267.62660697
0.44100002 24570.25911720  1954.80990800
0.44200002 24655.10080238  2129.83098375
0.44300002 24740.47388872  2142.03033080
0.44400002 24825.96740972  1988.56008376
0.44500002 24911.18547824  2166.52590372
0.44600002 24996.39292844  1843.60904781
0.44700002 25082.66735664  1685.55532625
0.44800002 25167.53344023  2542.55018630
0.44900002 25252.92455495  2045.48698589
0.45000002 25338.27483874  1714.13437408
0.45100002 25422.20815582  2413.07611251
0.45200002 25506.13574604  1906.45620669
0.45300002 25588.87362495  1742.60237645
0.45400002 25671.23214473  2277.68017999
0.45500002 25753.10267899  2466.11722942
0.45600002 25833.45621791  2125.06020920
0.45700002 25913.25774522  2314.31315891
0.45800002 25991.46199433  1968.46346743
0.45900002 26068.50327758  2158.47217368
0.46000002 26144.69898536  2350.27782668
0.46100002 26218.76173504  2362.04835666
0.46200002 26292.00844712  2008.57808051
0.46300002 26363.77861739  2018.41098661
0.46400002 26433.25463084  2396.83547725
0.46500002 26502.23008753  2223.00716510
0.46600002 26568.39801417  2233.33964292
0.46700002 26632.78074217  2617.46981540
0.46800002 26696.14999287  2065.88166511
0.46900002 26756.65437536  2074.97864516
0.47000002 26815.40653227  2083.95941743
0.47100002 26872.39756958  1902.56583810
0.47200002 26927.28505132  2483.63825443
0.47300002 26979.98798761  2493.76040789
0.47400002 27029.74507799  2503.63025651
0.47500002 27077.78578221  2320.02479578
0.47600002 27124.08524492  2911.09258689
0.47700002 27166.96889608  1947.87176217
