# SAXS profile: number of points = 501, q_min = 0, q_max = 0.5, delta_q = 0.001
#    q    intensity    error
0.00000000 1700912.83420644 331.67800267
0.00100000 1700829.77345690 561.27383857
0.00200000 1700580.53192251 994.83964268
0.00300000 1700165.33661491 1224.11908597
0.00400000 1699584.04169288 1912.03211956
0.00500000 1698837.19244985 1834.74424047
0.00600000 1697924.67249959 2139.38517445
0.00700000 1696847.05229740 2443.45985686
0.00800000 1695604.15455515 2517.97227582
0.00900000 1694197.23992728 3049.55516223
0.01000000 1692625.65753884 3072.11570109
0.01100000 1690890.72599966 3956.68447111
0.01200000 1688992.34278689 3622.88873412
0.01300000 1686931.69660689 4605.32373485
0.01400000 1684708.84747400 6444.01162726
0.01500000 1682325.16056446 6460.12890423
0.01600000 1679780.05912160 5140.12721069
0.01700000 1677075.90597252 4980.91566418
0.01800000 1674212.51838104 5725.80707051
0.01900000 1671190.66913691 10027.14446727
0.02000000 1668011.56026051 5254.23665250
0.02100000 1664677.15869099 6592.12184729
0.02200000 1661186.04037370 7450.41972957
0.02300000 1657541.47040452 7160.57947809
0.02400000 1653743.02361488 9922.45859413
0.02500000 1649793.25919767 10938.12980803
0.02600000 1645692.13978198 11997.09624774
0.02700000 1641441.75660744 11719.89467896
0.02800000 1637042.01955440 7833.24642280
0.02900000 1632495.72842712 8080.85422674
0.03000000 1627803.92552401 8326.21746177
0.03100000 1622967.05376302 9348.29065982
0.03200000 1617986.78220489 9610.84192895
0.03300000 1612866.70153733 10693.30672416
0.03400000 1607604.84775684 9283.91842416
0.03500000 1602204.87024862 10382.28803865
0.03600000 1596667.73901995 9747.65699719
0.03700000 1590995.40900434 12696.14395102
0.03800000 1585189.48878959 11128.03072630
0.03900000 1579251.87174622 10423.06283622
0.04000000 1573182.57616902 11610.08795013
0.04100000 1566985.65092185 14808.01508781
0.04200000 1560661.88278833 14092.77745538
0.04300000 1554212.23641705 12309.36148380
0.04400000 1547640.22308193 11491.22919006
0.04500000 1540947.30838496 11695.79061409
0.04600000 1534133.32669262 12978.76854716
0.04700000 1527202.78798164 13195.03270183
0.04800000 1520156.10967230 16759.72188894
0.04900000 1512997.14250344 11347.47909697
0.05000000 1505725.21091711 12670.67823989
0.05100000 1498345.29268448 14024.51259285
0.05200000 1490855.34066709 13037.53056170
0.05300000 1483261.91905395 13215.86431487
0.05400000 1475564.47515619 15825.42973405
0.05500000 1467765.87438057 17260.92748793
0.05600000 1459867.38294832 22467.36007200
0.05700000 1451873.83846819 13894.43328271
0.05800000 1443784.26180768 15332.98957633
0.05900000 1435601.38753645 12920.41309129
0.06000000 1427329.12635846 13060.06211633
0.06100000 1418968.72707447 15835.69173417
0.06200000 1410522.39146794 15995.32466692
0.06300000 1401993.04559546 18842.78741380
0.06400000 1393380.12750684 16302.54825425
0.06500000 1384689.63271695 16450.11360618
0.06600000 1375921.97548353 15210.81815066
0.06700000 1367079.63056996 16733.05546127
0.06800000 1358164.93920871 14057.00777881
0.06900000 1349181.07410514 28332.80388272
0.07000000 1340128.58459000 19981.31813193
0.07100000 1331010.84976568 14374.91785076
0.07200000 1321829.94483638 14474.03857402
0.07300000 1312589.04426736 16026.71298145
0.07400000 1303290.27023765 24925.42758640
0.07500000 1293935.24953587 17701.03504334
0.07600000 1284524.87322392 20770.76817378
0.07700000 1275065.07478183 19393.74069678
0.07800000 1265555.87132556 20995.57288990
0.07900000 1255999.17505670 15071.99080761
0.08000000 1246399.21293843 18172.50137713
0.08100000 1236757.32629130 19775.75057524
0.08200000 1227074.89382728 21387.91640304
0.08300000 1217355.31645657 18406.41324867
0.08400000 1207600.82471671 20015.98460920
0.08500000 1197813.42469513 18542.15268474
0.08600000 1187995.36098837 18604.00822656
0.08700000 1178150.31532723 21772.21884962
0.08800000 1168277.77257595 26514.06529381
0.08900000 1158382.79090416 20329.61893524
0.09000000 1148466.04261864 23514.84332724
0.09100000 1138529.67158629 17282.88122665
0.09200000 1128575.87042220 17317.99754534
0.09300000 1118609.69980110 15772.39750837
0.09400000 1108628.02902323 17377.74517165
0.09500000 1098636.32853447 22148.50942429
0.09600000 1088636.54078071 17423.62865424
0.09700000 1078632.45267833 22198.25691972
0.09800000 1068623.78856896 15869.06400638
0.09900000 1058613.98765583 20642.97372997
0.10000000 1048603.23145488 19063.60764436
0.10100000 1038594.30040344 25424.78966965
0.10200000 1028590.34683979 23837.58240924
0.10300000 1018592.18819673 22246.05443669
0.10400000 1008603.49323759 19062.60691899
0.10500000 998626.37971631 17465.97620300
0.10600001 988658.17538053 22215.15024610
0.10700001 978706.88512742 19026.06274220
0.10800001 968770.63476816 15839.40062389
0.10900001 958853.38243734 17403.18971033
0.11000001 948955.40680962 20540.14074721
0.11100001 939079.28955603 20509.49264935
0.11200001 929226.52052360 17325.42929079
0.11300001 919399.01394733 18866.06865443
0.11400001 909598.83420124 21966.81288025
0.11500001 899828.17319966 23485.51642640
0.11600001 890087.48986638 15621.03618277
0.11700001 880380.19513248 17141.00320648
0.11800001 870704.68004075 17096.28719781
0.11900001 861064.78467723 23248.75028134
0.12000001 851460.85869024 16999.41684451
0.12100001 841898.12278335 21569.43092180
0.12200001 832373.96740689 26107.41071767
0.12300001 822892.60549902 16836.38350175
0.12400001 813452.63033682 21353.13255245
0.12500001 804056.83468039 27354.01480476
0.12600001 794708.52340696 16653.11789275
0.12700001 785406.36387645 22619.70434563
0.12800001 776152.73885521 24029.68992746
0.12900001 766949.03227790 16451.05751773
0.13000001 757796.66762718 19357.91678697
0.13100001 748695.42040594 16306.58702509
0.13200001 739648.59487459 22133.98524503
0.13300001 730656.46820632 17623.43484396
0.13400001 721719.09246228 17537.77477366
0.13500001 712839.57972267 17450.31373436
0.13600001 704017.50043958 20254.58444267
0.13700001 695254.67813768 20148.48152250
0.13800001 686549.93598205 15746.02352426
0.13900001 677908.27558442 19930.50424207
0.14000001 669326.83346268 22650.02111257
0.14100001 660809.42327511 15482.76551755
0.14200001 652354.67795669 13993.00850216
0.14300001 643965.64329942 20864.48782703
0.14400001 635638.39731002 15207.64937299
0.14500001 627380.22734957 13739.62762708
0.14600001 619187.45231557 15018.39236440
0.14700001 611063.58304311 17635.29583860
0.14800001 603005.34998123 14824.88722871
0.14900001 595016.53293302 16065.44714717
0.15000001 587096.64270700 15957.28750169
0.15100001 579246.74137492 17168.87422447
0.15200001 571468.09479529 14426.71273386
0.15300001 563760.23456126 14325.14823619
0.15400001 556121.42976505 14222.80623743
0.15500001 548556.29429457 12836.21789227
0.15600001 541061.29364050 15290.39287991
0.15700001 533641.74797540 17706.23403350
0.15800001 526291.63704834 15062.46736325
0.15900001 519017.24344690 13702.05587374
0.16000001 511813.64196802 14832.36004436
0.16100001 504685.90284377 18395.80202702
0.16200001 497631.46535656 15817.21687303
0.16300001 490650.83246772 20519.01878246
0.16400001 483744.93060772 15564.49387710
0.16500001 476912.49025136 11875.12156790
0.16600001 470155.57843688 16488.35691425
0.16700001 463471.61991103 15183.33098516
0.16800001 456862.63958715 17372.20269055
0.16900001 450329.71205485 18373.45311940
0.17000001 443869.80632740 12523.78717690
0.17100001 437485.25882300 12415.83223169
0.17200001 431174.58775919 11188.98108073
0.17300001 424938.96096731 12199.99814551
0.17400001 418778.07321727 19787.26489399
0.17500001 412690.31099324 15253.03461467
0.17600001 406675.72553618 14036.41332981
0.17700001 400737.74471106 10699.69828914
0.17800001 394871.57324721 16963.68358793
0.17900001 389078.42625480 10505.11800507
0.18000001 383360.33649991 10408.23362761
0.18100001 377715.43452458 11342.79503457
0.18200001 372140.86979304 12258.32083004
0.18300001 366639.80154137 11131.18490063
0.18400001 361210.57314140 14033.03142947
0.18500001 355853.63870043 10921.14868765
0.18600001 350568.19529010 13766.81367943
0.18700001 345352.80724277 14608.42443654
0.18800001 340206.83690099 12538.32356637
0.18900001 335134.50298996 10506.46716514
0.19000001 330127.93618448 12295.61556414
0.19100001 325193.43818491 10302.12860847
0.19200001 320325.94051447 12982.81098251
0.19300001 315528.99036814 18363.78810716
0.19400001 310797.83193490 16363.50662461
0.19500001 306135.07885655 9900.40891807
0.19600001 301537.68638822 12474.61467539
0.19700001 297008.78369290 10585.39355105
0.19800001 292544.19030555 8732.44449331
0.19900001 288145.21412762 8644.35683236
0.20000001 283809.55409069 11123.91599831
0.20100001 279539.67270250 11011.06822816
0.20200001 275331.74758998 10060.62253244
0.20300001 271187.27690885 9957.99727875
0.20400001 267105.39963698 10677.53885517
0.20500001 263084.31591460 9755.16689521
0.20600001 259124.11489820 10459.54539227
0.20700001 255224.51942403 8759.30592068
0.20800001 251384.09493226 7880.89174866
0.20900001 247605.08724342 8579.51667855
0.21000001 243881.42898128 9262.61711057
0.21100001 240217.18603346 10694.46962777
0.21200001 236608.71596030 11339.47324846
0.21300001 233056.66059658 8977.34299059
0.21400001 229560.72136320 9624.33369816
0.21500001 226120.76107677 8058.94430578
0.21600001 222733.47342890 8699.96988346
0.21700001 219400.50863736 8609.27636597
0.21800001 216120.71477155 8519.47897910
0.21900001 212891.99668255 7025.43622270
0.22000001 209714.43948091 9732.84759650
0.22100001 206589.29084630 8255.30845256
0.22200001 203513.93787821 9530.55816148
0.22300001 200487.35492601 8083.65053286
0.22400001 197508.82465461 9332.29240622
0.22500001 194580.67435189 7255.91368969
0.22600001 191697.70776123 9138.23016111
0.22700001 188862.46538103 7105.00628362
0.22800001 186072.50744303 7030.75002622
0.22900001 183327.35152846 6324.79392684
0.23000001 180627.23390785 10639.84771652
0.23100001 177972.01638377 8051.45440198
0.23200001 175358.41216045 9806.04287178
0.23300001 172788.26532425 7277.84207966
0.23400001 170258.58822814 7201.93862267
0.23500001 167770.37014277 8314.69993753
0.23600001 165322.86662823 6464.95100527
0.23700001 162914.96967125 6397.67116159
0.23800001 160545.76411437 6906.67909888
0.23900001 158215.46294966 7974.05970983
0.24000001 155922.15754619 7327.56214048
0.24100001 153667.24658299 7251.55770926
0.24200001 151448.62337734 6624.36309987
0.24300001 149265.16846305 6555.72650900
0.24400001 147116.93259234 5947.20228137
0.24500001 145002.79406663 6420.72402500
0.24600001 142922.90482990 9001.99958655
0.24700001 140877.14248040 6812.81893264
0.24800001 138863.52166286 6742.51861331
0.24900001 136880.66448396 7186.23522537
0.25000001 134930.99984386 6096.18286135
0.25100001 133011.23743214 5027.82501280
0.25200001 131123.79077261 5473.76290476
0.25300001 129264.27596091 4924.96914711
0.25400001 127435.26731669 6336.71896712
0.25500001 125632.99795043 6271.59955441
0.25600001 123860.68667668 5252.31266703
0.25700001 122114.90011801 5671.01622980
0.25800001 120396.05378938 5145.12560213
0.25900001 118704.95108745 5092.44264260
0.26000001 117038.69223778 5040.27151970
0.26100001 115397.92505831 6349.19413713
0.26200001 113783.11990402 5835.36758039
0.26300001 112191.72866663 4887.07193196
0.26400001 110625.12578570 4837.08385386
0.26500001 109082.14468883 5222.85333484
0.26600001 107561.87999219 4738.63884729
0.26700001 106064.61000436 5542.93678112
0.26800001 104589.99656021 5908.28918527
0.26900001 103136.26532424 5012.42273195
0.27000001 101704.59623363 6201.43804881
0.27100001 100293.64552640 4091.98093112
0.27200001 98903.89462116  6885.19494988
0.27300001 97534.23874033  5211.25462251
0.27400001 96182.79811587  5157.80279306
0.27500001 94853.02470450  7068.44773550
0.27600001 93540.22877331  4663.91602736
0.27700001 92247.90558795  5770.10676761
0.27800001 90972.71796780  4949.37095528
0.27900001 89716.01458497  3768.07279090
0.28000001 88476.59056970  5966.86155042
0.28100001 87254.68443688  4429.04799164
0.28200001 86050.30280603  4018.11907970
0.28300001 84862.55544733  5422.71754974
0.28400001 83690.41130822  3577.76525277
0.28500001 82535.24357191  5311.14317524
0.28600001 81395.54736375  4204.89417584
0.28700001 80272.16744267  4854.86091673
0.28800001 79162.50003523  4461.20290065
0.28900001 78069.79374923  4075.24342661
0.29000001 76990.79084599  3696.71299745
0.29100001 75927.03476037  3658.16470791
0.29200001 74877.25712123  4607.19784875
0.29300001 73841.96948123  4233.36031075
0.29400001 72819.80446759  3544.50415024
0.29500001 71812.61965305  3826.17655623
0.29600001 70817.58946985  4101.40088830
0.29700001 69836.45003537  4058.19630366
0.29800001 68868.57371942  3706.50681304
0.29900001 67914.03793419  4584.19777757
0.30000001 66971.08709230  3628.49367043
0.30100001 66041.90769030  3290.86841600
0.30200001 65124.08666609  4439.83481865
0.30300001 64219.31233317  3806.92101533
0.30400001 63326.45536509  3476.62256413
0.30500001 62446.09218028  2866.27576677
0.30600001 61576.08283162  3402.69449837
0.30700001 60718.94908729  3927.30181290
0.30800001 59873.01244378  3052.62568397
0.30900001 59038.81420127  4117.95748550
0.31000001 58215.85072773  3258.92347803
0.31100001 57403.57975417  4029.73148953
0.31200001 56603.11458551  3720.52289786
0.31300001 55812.95513989  3417.42740502
0.31400001 55035.21987664  3640.57996721
0.31500001 54266.44137533  2829.45238728
0.31600002 53510.09542546  3307.72670534
0.31700002 52763.41668714  2516.81509514
0.31800002 52027.06003734  3485.29291693
0.31900002 51301.93056974  2708.74206234
0.32000002 50587.41572648  3410.09785559
0.32100002 49882.51242298  2650.25801052
0.32200002 49188.94133403  2621.52475253
0.32300002 48504.11890024  3535.95043526
0.32400002 47830.68384511  3264.44432700
0.32500002 47166.58225997  2767.73517807
0.32600002 46512.72067762  2965.88377445
0.32700002 45869.13180464  2933.78980915
0.32800002 45236.33141208  2455.65436699
0.32900002 44611.33287967  2649.91329854
0.33000002 43997.53278565  2402.92536688
0.33100002 43392.42222058  3025.31982048
0.33200002 42798.71645634  2565.35518587
0.33300002 42213.77387709  2326.40118853
0.33400002 41638.94788087  2510.82867612
0.33500002 41073.68344556  2277.12511806
0.33600002 40517.50488645  3481.87194731
0.33700002 39970.86988583  2229.17551910
0.33800002 39434.41275324  2807.33597685
0.33900002 38906.86013621  2182.67495701
0.34000002 38388.64431211  2552.65302442
0.34100002 37880.16449000  2331.90303644
0.34200002 37381.64402535  2115.61424381
0.34300002 36891.53992440  2474.68461533
0.34400002 36411.56007861  2638.01765263
0.34500002 35940.45076941  2238.37137993
0.34600002 35479.32955584  2031.36910993
0.34700002 35026.04177573  2742.53920093
0.34800002 34583.01969915  2353.54751709
0.34900002 34148.48191170  2151.35446233
0.35000002 33723.55538882  1953.09980285
0.35100002 33308.31442913  1934.54699367
0.35200002 32900.40052327  2090.49154826
0.35300002 32502.91896935  1725.90507902
0.35400002 32113.58573975  1881.05337380
0.35500002 31733.71285522  1864.03838140
0.35600002 31362.32452759  3190.95986020
0.35700002 30999.62803951  2330.55214640
0.35800002 30646.21441857  1980.35846953
0.35900002 30301.93407898  1799.93496955
0.36000002 29965.99973518  1784.92485877
0.36100002 29638.25434708  2414.03593091
0.36200002 29320.57453096  1915.80643060
0.36300002 29009.96272908  2059.12725204
0.36400002 28708.57359301  1728.97392654
0.36500002 28414.91481483  1559.97889723
0.36600002 28130.44835596  2168.01375749
0.36700002 27853.90477999  2152.54986336
0.36800002 27586.40039760  2290.36100150
0.36900002 27326.89203293  1516.64257967
0.37000002 27074.96351387  1808.06614910
0.37100002 26831.24686358  1796.62037509
0.37200002 26596.27727690  2083.28649778
0.37300002 26368.98436314  2071.02012999
0.37400002 26149.41093560  2647.62798265
0.37500002 25937.98549298  1755.48294132
0.37600002 25734.50666952  1891.87234743
0.37700002 25538.60411398  1737.64670623
0.37800002 25350.20611587  1441.15928596
0.37900002 25170.29986019  2008.59002399
0.38000002 24997.13961326  1714.30391589
0.38100002 24830.71832747  1991.92031859
0.38200002 24672.85265526  1559.20099741
0.38300002 24521.64660160  1977.42567563
0.38400002 24377.86512660  1548.60395553
0.38500002 24240.58483650  2105.29489279
0.38600002 24111.37625277  2379.43127823
0.38700002 23988.16713121  1535.72253249
0.38800002 23871.73339965  1392.91570986
0.38900002 23762.22541265  1390.09025250
0.39000002 23659.83730309  1526.41447592
0.39100002 23563.12417516  1385.51176714
0.39200002 23473.83861512  1522.16113711
0.39300002 23389.97036987  1658.81677722
0.39400002 23313.70622864  1657.60459139
0.39500002 23242.30058155  1518.65199195
0.39600002 23177.12315544  1518.21752423
0.39700002 23117.45152524  2070.16788217
0.39800002 23064.79539033  1794.55649037
0.39900002 23016.66979047  1657.20030343
0.40000002 22974.63475353  1796.50164967
0.40100002 22937.64486777  1521.45405616
0.40200002 22906.60744235  1938.58627970
0.40300002 22880.61032241  1525.22155636
0.40400002 22859.80453352  1527.60651033
0.40500002 22843.55175815  1808.52407838
0.40600002 22833.18032892  1672.75887015
0.40700002 22826.92383787  2095.51170760
0.40800002 22825.23619535  1680.39396832
0.40900002 22827.93140342  1544.30963261
0.41000002 22835.72770524  1970.95175163
0.41100002 22847.62599874  1553.18168899
0.41200002 22862.63078246  1841.24205731
0.41300002 22883.36545803  2700.00841833
0.41400002 22906.97311875  1568.55505863
0.41500002 22934.56942216  2003.56407966
0.41600002 22964.84021493  1723.74098821
0.41700002 23000.25085518  1730.53895634
0.41800002 23039.41224717  1737.63255402
0.41900002 23080.02311462  2617.27474522
0.42000002 23124.43600572  1460.30820296
0.42100002 23172.87778516  2200.26484996
0.42200002 23223.59293032  1768.24444950
0.42300002 23276.85093244  1776.48934734
0.42400002 23332.78395302  1636.21155224
0.42500002 23391.86727953  1943.16250699
0.42600002 23452.11826419  2703.79484280
0.42700002 23515.80230737  2264.57186951
0.42800002 23580.98936326  1669.18041118
0.42900002 23649.26013097  2135.52829102
0.43000002 23719.14671302  2146.82007073
0.43100002 23789.47269500  2004.02527479
0.43200002 23862.71428847  1859.86003978
0.43300002 23936.86930688  2025.77734544
0.43400002 24013.04425356  2820.33218123
0.43500002 24089.88789719  2363.21811470
0.43600002 24168.75674823  1901.11449591
0.43700002 24247.93020512  1752.39799897
0.43800002 24327.71262346  2082.57393782
0.43900002 24409.43011063  1772.12471001
0.44000002 24491.07811070  3240.16978760
0.44100002 24573.74782686  1629.23955813
0.44200002 24656.80410648  2457.66706578
0.44300002 24740.40030711  1977.25288625
0.44400002 24824.03772670  1988.40551614
0.44500002 24907.46388263  2166.20223653
0.44600002 24990.83765270  2345.89004163
0.44700002 25075.29532894  2190.57790375
0.44800002 25158.32678254  2372.17874475
0.44900002 25241.87100204  2044.59164806
0.45000002 25325.42105829  1884.59129737
0.45100002 25407.53841674  1722.63118629
0.45200002 25489.64264633  1732.02129990
0.45300002 25570.55800559  1915.49059098
0.45400002 25651.09040704  2275.89310423
0.45500002 25731.19320783  1936.01506871
0.45600002 25809.70496517  1946.18089514
0.45700002 25887.66177976  1956.33069341
0.45800002 25964.10073280  1787.62842018
0.45900002 26039.32377343  2335.72745318
0.46000002 26113.78685357  2889.22951441
0.46100002 26186.04203574  2177.63135890
0.46200002 26257.53819495  2188.30333688
0.46300002 26327.50366962  1832.39434225
0.46400002 26395.25495846  3682.13824122
0.46500002 26462.49521435  2404.64705410
0.46600002 26526.90588469  2229.85181435
0.46700002 26589.58703648  2053.24800827
0.46800002 26651.22223088  2624.87900193
0.46900002 26710.07654391  2636.28467983
0.47000002 26767.09151412  2647.53314715
0.47100002 26822.41903186  2088.93009321
0.47200002 26875.64394459  2288.19243390
0.47300002 26926.71007887  2680.28484829
0.47400002 26974.80002327  2690.73642985
0.47500002 27021.22580624  2315.17873681
0.47600002 27065.92455545  2130.22369310
0.47700002 27107.20531596  2332.30405593
