# SAXS profile: number of points = 501, q_min = 0, q_max = 0.5, delta_q = 0.001
#    q    intensity    error
0.00000000 1682732.95097187 378.61491397
0.00100000 1682650.32963157 656.23364414
0.00200000 1682402.38970285 757.08109934
0.00300000 1681989.37781873 1110.11302891
0.00400000 1681411.14708524 1387.16424905
0.00500000 1680668.21922119 1663.86160289
0.00600000 1679760.48898735 1940.12344377
0.00700000 1678688.53004049 2417.31158372
0.00800000 1677452.16901944 2717.47262854
0.00900000 1676052.64075004 4022.52650975
0.01000000 1674489.35258926 3039.19830618
0.01100000 1672763.57214948 3312.07201706
0.01200000 1670875.20057421 5213.13085436
0.01300000 1668825.41431834 4555.89358203
0.01400000 1666614.30641936 4874.84706238
0.01500000 1664243.16734998 4793.02053540
0.01600000 1661711.57229100 5932.31057827
0.01700000 1659021.71040883 4479.35881904
0.01800000 1656173.51958283 6136.12316617
0.01900000 1653167.69765971 8431.15563850
0.02000000 1650005.44527315 6756.77260404
0.02100000 1646688.77239884 5434.07319529
0.02200000 1643216.17518614 6236.00566815
0.02300000 1639591.06265368 7083.03371307
0.02400000 1635812.86772148 9814.87765386
0.02500000 1631884.14513952 8273.65299372
0.02600000 1627804.95212844 7251.87139342
0.02700000 1623577.44116706 7500.92812174
0.02800000 1619201.37191136 9156.58417808
0.02900000 1614679.36200712 7992.66320891
0.03000000 1610012.79801601 8983.87182588
0.03100000 1605202.13762776 9245.96473817
0.03200000 1600248.63799901 11089.72357211
0.03300000 1595156.19342614 8948.82665767
0.03400000 1589923.02019930 10851.22511354
0.03500000 1584552.23112883 11123.55717619
0.03600000 1579045.34235527 11392.81267160
0.03700000 1573403.90755598 10762.08322540
0.03800000 1567629.75603785 13755.95174585
0.03900000 1561724.69704468 14992.55778593
0.04000000 1555688.67928012 12437.73156720
0.04100000 1549525.84432522 11714.41592626
0.04200000 1543236.84032359 11944.65369825
0.04300000 1536822.83851273 11157.33432550
0.04400000 1530287.29767839 14461.21563467
0.04500000 1523631.44475113 13666.97469445
0.04600000 1516855.58145473 11763.21558102
0.04700000 1509963.69920944 13046.08696792
0.04800000 1502956.40993719 12151.40313972
0.04900000 1495837.61418551 12340.66089146
0.05000000 1488606.66831070 12526.62569715
0.05100000 1481268.41461805 12709.28358947
0.05200000 1473820.89407547 11716.87665392
0.05300000 1466270.44079876 15439.82846138
0.05400000 1458616.92246344 13236.94918865
0.05500000 1450863.01501179 14624.69987355
0.05600000 1443009.49959686 18506.59769592
0.05700000 1435062.02318260 12485.04018447
0.05800000 1427019.17415606 16417.85636525
0.05900000 1418883.63232979 16600.93927362
0.06000000 1410659.50510308 14198.28858219
0.06100000 1402347.66123951 13041.83385899
0.06200000 1393950.71497448 15807.40184670
0.06300000 1385471.53316401 19950.79101037
0.06400000 1376909.27043637 17452.32581897
0.06500000 1368270.00579091 16255.04842917
0.06600000 1359554.50780053 15029.87578696
0.06700000 1350764.49930809 15155.57839150
0.06800000 1341903.28838349 22221.91949582
0.06900000 1332973.18835038 15395.84104626
0.07000000 1323975.34618270 16920.40571657
0.07100000 1314912.89258709 17041.27188610
0.07200000 1305787.69738965 18587.88874312
0.07300000 1296603.33182961 15831.52742344
0.07400000 1287361.35160157 18827.66064952
0.07500000 1278063.66907679 21854.88976561
0.07600000 1268711.52523431 20515.06632480
0.07700000 1259310.47513506 16207.32657493
0.07800000 1249860.37973798 19254.10005281
0.07900000 1240363.39934917 17861.23378839
0.08000000 1230823.96641927 19440.86546158
0.08100000 1221242.96107814 18025.54695124
0.08200000 1211621.87894607 21118.57034102
0.08300000 1201964.44446420 15144.75271102
0.08400000 1192272.39054754 19761.91580092
0.08500000 1182548.09271077 18305.84533453
0.08600000 1172793.52486100 18365.94746163
0.08700000 1163012.27894492 16886.93908325
0.08800000 1153204.05809438 20013.85736815
0.08900000 1143374.39919710 20066.22164841
0.09000000 1133522.70477681 17019.84421174
0.09100000 1123652.39708350 18607.68456991
0.09200000 1113765.00766073 17090.72484559
0.09300000 1103865.80480095 20233.86115283
0.09400000 1093951.36046768 23383.21142895
0.09500000 1084027.52790331 17170.99684907
0.09600000 1074095.76790916 20316.52240504
0.09700000 1064160.13499233 17207.47019180
0.09800000 1054220.53719794 18786.21085615
0.09900000 1044279.94954915 20363.45997375
0.10000000 1034339.01981608 17237.26057585
0.10100000 1024400.30713240 20375.32306715
0.10200000 1014466.92947833 20375.56923696
0.10300000 1004539.73426470 17237.90265087
0.10400000 994622.19442300 18798.36035897
0.10500000 984716.75417350 20354.09626641
0.10600001 974820.58025337 17210.45815419
0.10700001 964941.49350544 18758.46351648
0.10800001 955077.98844016 17177.07843048
0.10900001 945233.89081921 23394.53989885
0.11000001 935408.80820370 20246.92460658
0.11100001 925606.32514401 15550.18699442
0.11200001 915827.53364874 26389.57162443
0.11300001 906074.11141673 18592.64164163
0.11400001 896348.63360181 15462.01465765
0.11500001 886652.49576826 16970.52956811
0.11600001 876987.05365575 23086.68527467
0.11700001 867354.67812104 21493.04993605
0.11800001 857754.87976963 18373.11039001
0.11900001 848190.62762761 19847.66162134
0.12000001 838662.83096400 19788.25042872
0.12100001 829176.16478821 18208.70943653
0.12200001 819728.45172794 19661.18784096
0.12300001 810323.62324433 24115.23216393
0.12400001 800960.54236670 24028.81740318
0.12500001 791641.92547589 20946.84633512
0.12600001 782370.65546513 16394.57785784
0.12700001 773146.01355552 23751.04665573
0.12800001 763969.71345310 14782.81465202
0.12900001 754843.81849830 16191.40066992
0.13000001 745769.50013955 19050.68277902
0.13100001 736746.32640712 17505.09354058
0.13200001 727777.53067138 21778.74363200
0.13300001 718863.43702590 17338.98691848
0.13400001 710004.49702520 18690.86926538
0.13500001 701203.33428048 14304.54869376
0.13600001 692460.08485389 21345.08312206
0.13700001 683776.03839872 19815.83052718
0.13800001 675150.35547166 18299.95124801
0.13900001 666586.95604748 19597.65743199
0.14000001 658084.79026377 22269.59035277
0.14100001 649646.11717808 17988.70183306
0.14200001 641270.65020216 19257.35853385
0.14300001 632960.45104752 13671.94638750
0.14400001 624712.55884944 16304.99855508
0.14500001 616533.22205052 14852.28601981
0.14600001 608419.92712949 14757.22602869
0.14700001 600375.20843154 13328.33025596
0.14800001 592395.97109345 21184.08092574
0.14900001 584486.64403942 15781.14013363
0.15000001 576645.94745106 20897.65012164
0.15100001 568874.97525359 23346.63008602
0.15200001 561175.49204200 21894.26285514
0.15300001 553546.62768916 20459.08432484
0.15400001 545987.12439480 15233.04148948
0.15500001 538500.92905888 18901.38350198
0.15600001 531085.02650891 15008.46355746
0.15700001 523744.50175912 13654.01980529
0.15800001 516473.28553759 16013.25497390
0.15900001 509277.54445574 14667.19397263
0.16000001 502152.52179968 13339.68237127
0.16100001 495103.58722844 13234.11951132
0.16200001 488127.68800285 16708.61154909
0.16300001 481225.51910813 14205.77799470
0.16400001 474397.94061851 11741.34958461
0.16500001 467643.65912017 12808.76042802
0.16600001 460964.48791995 12701.87706433
0.16700001 454358.75385534 16029.77759286
0.16800001 447827.77088613 11352.43452798
0.16900001 441372.47384199 11254.99861441
0.17000001 434990.03165827 13388.99380667
0.17100001 428682.68892571 15484.01945517
0.17200001 422449.60429553 12058.82452407
0.17300001 416290.59161978 11951.70344982
0.17400001 410206.76196237 13998.30641305
0.17500001 404195.58828592 12804.91684164
0.17600001 398257.52148095 12688.48523365
0.17700001 392395.79672109 13620.05874747
0.17800001 386605.81441471 14532.51325025
0.17900001 380888.71157995 15425.99354761
0.18000001 375246.05505080 11206.72396344
0.18100001 369676.56993036 11101.38791940
0.18200001 364177.34184939 10996.33535659
0.18300001 358751.15564321 10891.68559984
0.18400001 353396.70598559 16671.49039244
0.18500001 348114.19940244 10683.62528438
0.18600001 342903.03701011 11542.11677105
0.18700001 337761.88316410 11429.86266627
0.18800001 332689.68994897 12261.27910237
0.18900001 327690.82953500 9339.18908300
0.19000001 322757.42653573 10171.70077787
0.19100001 317895.99124129 10986.48597641
0.19200001 313101.14704687 11783.56222590
0.19300001 308376.42117332 13460.63142027
0.19400001 303717.52007839 11548.85924671
0.19500001 299126.17715559 12312.03403353
0.19600001 294600.54557983 11317.08049325
0.19700001 290142.71475992 8617.23903560
0.19800001 285749.11982409 8529.61162985
0.19900001 281420.80681274 10131.14952406
0.20000001 277155.35752241 10863.10475149
0.20100001 272955.24920370 9097.59888593
0.20200001 268817.02328965 9004.02662065
0.20300001 264741.83980582 11341.54095333
0.20400001 260728.80391087 8819.15220913
0.20500001 256776.33180705 8727.82793066
0.20600001 252884.30820200 10992.88139715
0.20700001 249052.57385637 10878.61694027
0.20800001 245279.82123462 8458.47503511
0.20900001 241568.00773963 8370.33186385
0.21000001 237911.19439074 9035.86759011
0.21100001 234313.35999588 17882.79648027
0.21200001 230770.92493262 10322.38396022
0.21300001 227284.61297477 8755.00370569
0.21400001 223854.03713261 7941.22234271
0.21500001 220479.04967765 9286.57801147
0.21600001 217156.28919568 7775.28130226
0.21700001 213887.63121809 6994.12587151
0.21800001 210671.38531291 6920.55533474
0.21900001 207506.32306091 7532.47988326
0.22000001 204391.77523386 6775.58766937
0.22100001 201329.25111257 8045.11725486
0.22200001 198316.03611215 7297.03889378
0.22300001 195351.20774452 9189.32124682
0.22400001 192434.20311893 10391.44745980
0.22500001 189566.98811004 9639.48180122
0.22600001 186744.56737412 7630.38338373
0.22700001 183969.53853616 8179.28607011
0.22800001 181239.23548312 9960.90885320
0.22900001 178553.44473619 6776.10354819
0.23000001 175912.20717629 8533.50157369
0.23100001 173315.54972837 6634.51955737
0.23200001 170759.79085368 7758.47146436
0.23300001 168247.26079065 5905.47913305
0.23400001 165775.01614434 6427.92655501
0.23500001 163343.34925003 9830.00322279
0.23600001 160952.13147471 6866.21825346
0.23700001 158600.25220782 7926.84098027
0.23800001 156286.59417852 6723.44959957
0.23900001 154011.10051269 6098.83986878
0.24000001 151772.47490553 6583.89027282
0.24100001 149571.52773850 6515.33605647
0.24200001 147406.67109474 6984.86544022
0.24300001 145276.36362160 6380.53819208
0.24400001 143180.95737683 5261.90043251
0.24500001 141119.30088914 5728.03269405
0.24600001 139091.23912466 6699.32984935
0.24700001 137096.75157923 6119.99928001
0.24800001 135134.17507843 6056.71401354
0.24900001 133202.04010753 5494.58441437
0.25000001 131302.35326139 5932.24060099
0.25100001 129432.12369253 5871.04140845
0.25200001 127593.84519593 5810.62398512
0.25300001 125783.15582905 5271.57231020
0.25400001 124002.25867479 6640.32126620
0.25500001 122248.07534802 4694.32631546
0.25600001 120522.98724629 5575.39365380
0.25700001 118823.97778813 5058.33697377
0.25800001 117151.72396334 6371.88256785
0.25900001 115506.55648703 5405.70709936
0.26000001 113885.90306275 5796.22331063
0.26100001 112290.05723020 4854.29940375
0.26200001 110720.08069558 5678.27960715
0.26300001 109172.64387095 4755.56059204
0.26400001 107649.92256745 5134.90154944
0.26500001 106150.22076211 4235.39400882
0.26600001 104672.70424957 5449.78460464
0.26700001 103217.79300926 4979.22657039
0.26800001 101785.03050243 6160.53926268
0.26900001 100372.74549966 5691.13493914
0.27000001 98982.13635736  4425.98643667
0.27100001 97611.65206896  3982.55559288
0.27200001 96262.13499104  4730.32153732
0.27300001 94931.95176794  3901.70340231
0.27400001 93619.88993911  5020.36683557
0.27500001 92328.85935253  4204.65645390
0.27600001 91054.17546788  3783.30116974
0.27700001 89799.72556199  3744.64873316
0.27800001 88562.03077542  3706.32116336
0.27900001 87342.32021980  4402.05314742
0.28000001 86139.41455573  3993.85414490
0.28100001 84953.59474927  4671.59839636
0.28200001 83785.08202124  3912.34459015
0.28300001 82632.40374821  4224.16867954
0.28400001 81495.09741052  3832.30713712
0.28500001 80374.19279056  4482.46894409
0.28600001 79268.42231448  3412.50574216
0.28700001 78178.58369550  4728.24096570
0.28800001 77101.95278321  4010.84377363
0.28900001 76041.86300449  3638.60331699
0.29000001 74995.15062706  5237.66156771
0.29100001 73963.21213305  4211.46549820
0.29200001 72944.84119828  4808.88888363
0.29300001 71940.45877461  4758.86157321
0.29400001 70948.84218043  4395.28098113
0.29500001 69971.75332409  3417.42059412
0.29600001 69006.46208539  4611.35704715
0.29700001 68054.58094358  3042.03991218
0.29800001 67115.70785194  3612.16756759
0.29900001 66189.62726986  4169.94671540
0.30000001 65274.76035773  3241.87112664
0.30100001 64373.35604746  3499.33580040
0.30200001 63482.81827834  2885.29422734
0.30300001 62604.99837715  3711.22447949
0.30400001 61738.68253047  5084.18074708
0.30500001 60884.40615457  3632.97268724
0.30600001 60040.27038003  2764.85458190
0.30700001 59208.46505603  3008.97433660
0.30800001 58387.53661552  2706.26245025
0.30900001 57577.82908057  2677.36917900
0.31000001 56779.11221561  2913.62028129
0.31100001 55990.67636855  3406.47291154
0.31200001 55213.85861424  2851.51986314
0.31300001 54446.82468081  3077.33467666
0.31400001 53691.77716562  3044.32390943
0.31500001 52945.58907488  3764.43156146
0.31600002 52211.21288237  3723.96493516
0.31700002 51486.30496575  2455.89686315
0.31800002 50771.36280576  3401.17375540
0.31900002 50067.21457459  2403.22641337
0.32000002 49373.31496318  3565.98784206
0.32100002 48688.82400020  2351.67031056
0.32200002 48015.24657085  2791.60656781
0.32300002 47349.95629817  2531.32878356
0.32400002 46695.84003183  2504.06454028
0.32500002 46050.84203636  2702.26353865
0.32600002 45415.72307083  2450.40545432
0.32700002 44790.48601063  3085.16882250
0.32800002 44175.65203640  2616.08223748
0.32900002 43568.40279816  2803.62685282
0.33000002 42972.13518860  3200.34991972
0.33100002 42384.23129138  2743.95526374
0.33200002 41807.26421413  3132.40941958
0.33300002 41238.87583452  2479.28133258
0.33400002 40680.47470528  2657.45213597
0.33500002 40131.02995114  2022.60400532
0.33600002 39590.44885199  2601.68646952
0.33700002 39059.21249160  3366.51368408
0.33800002 38537.99821902  2351.58876269
0.33900002 38025.16301518  2908.92510842
0.34000002 37521.61408985  3070.76904254
0.34100002 37027.35193098  2089.45356842
0.34200002 36542.85275887  2820.19479523
0.34300002 36066.65767279  2605.45547367
0.34400002 35600.21056148  2210.77318057
0.34500002 35142.38300352  3283.00157567
0.34600002 34694.17935799  2347.58175744
0.34700002 34253.71006450  2145.65250006
0.34800002 33823.15579711  2301.83497679
0.34900002 33400.97127836  3331.74704281
0.35000002 32988.05656248  2605.23189041
0.35100002 32584.55485551  2064.55749343
0.35200002 32188.38751687  1874.81271972
0.35300002 31802.24228543  2195.30888894
0.35400002 31424.17337485  2510.00596720
0.35500002 31055.24470854  1824.18516058
0.35600002 30694.48276450  2136.79651886
0.35700002 30342.40415929  1792.32589858
0.35800002 29999.20129551  2907.82271930
0.35900002 29665.07078187  1601.91389810
0.36000002 29339.09514572  2065.32570061
0.36100002 29021.00400028  2678.92900616
0.36200002 28712.87374379  2032.44086422
0.36300002 28411.68247537  1551.27793663
0.36400002 28119.42190890  2001.39994917
0.36500002 27834.71815434  1680.93870896
0.36600002 27559.13436735  1517.13041879
0.36700002 27291.20042555  1807.76920182
0.36800002 27032.16916054  1795.47676069
0.36900002 26781.08193688  1783.62014148
0.37000002 26537.29316176  1476.80043441
0.37100002 26301.56251548  1614.38998367
0.37200002 26074.43154615  1458.86451411
0.37300002 25854.77464590  1595.49821898
0.37400002 25642.78700450  1875.12888853
0.37500002 25438.75210922  1578.22025562
0.37600002 25242.55484514  1570.21319853
0.37700002 25053.75611152  1562.60284270
0.37800002 24872.43594103  1555.39785525
0.37900002 24699.41392567  1548.65332650
0.38000002 24532.89243259  2243.28779031
0.38100002 24373.15570640  1955.21464339
0.38200002 24221.80871260  2226.46876234
0.38300002 24076.87305686  1386.82795377
0.38400002 23939.42349519  1659.00212681
0.38500002 23808.30709041  1378.50104584
0.38600002 23685.15502545  1787.40030867
0.38700002 23567.89973839  1783.14737868
0.38800002 23457.41681631  1642.48840329
0.38900002 23353.60176759  2049.27865219
0.39000002 23256.92283490  1500.42044778
0.39100002 23165.88197853  1634.58470985
0.39200002 23081.88058239  2041.01538719
0.39300002 23003.49474725  1767.35858516
0.39400002 22932.54212253  1358.75318513
0.39500002 22866.32811225  1765.73794048
0.39600002 22806.44087419  1629.74834208
0.39700002 22751.77527267  1358.28104813
0.39800002 22704.10627673  1630.60899005
0.39900002 22660.92516758  1359.65557447
0.40000002 22623.80102216  1360.82169596
0.40100002 22591.66295976  1770.96054332
0.40200002 22565.42841352  1636.89625467
0.40300002 22544.06404387  1639.40441495
0.40400002 22527.94257808  2189.71612234
0.40500002 22516.26242557  1371.24044669
0.40600002 22510.35492964  1511.68295692
0.40700002 22508.66837889  1377.53057006
0.40800002 22511.46686756  1795.40212509
0.40900002 22518.51166263  1661.86623944
0.41000002 22530.65279774  1666.81777295
0.41100002 22546.75318422  1532.72835409
0.41200002 22566.14419903  1957.16177912
0.41300002 22591.01351521  2104.35300865
0.41400002 22618.97560449  1830.44068753
0.41500002 22650.72712406  1696.08652742
0.41600002 22685.21085308  1844.64800792
0.41700002 22724.74809602  1852.29430508
0.41800002 22767.92765724  1430.96432106
0.41900002 22812.69807625  1868.36006098
0.42000002 22861.20039431  1876.79033530
0.42100002 22913.56329464  1595.47148781
0.42200002 22968.38913978  1603.07879597
0.42300002 23025.63974466  1610.87383287
0.42400002 23085.56786781  1766.04602557
0.42500002 23148.64547317  1627.11836741
0.42600002 23212.76765851  1932.81119067
0.42700002 23280.52166902  2092.45338677
0.42800002 23349.66057648  1502.55072930
0.42900002 23421.84568699  1963.92185392
0.43000002 23495.68641939  2126.59467859
0.43100002 23569.89623372  1985.52815282
0.43200002 23647.12789747  2150.23344161
0.43300002 23725.18603345  1698.96065237
0.43400002 23805.24097307  2485.26727536
0.43500002 23886.05421259  2187.00722734
0.43600002 23968.79998757  1728.27040500
0.43700002 24051.96008315  1738.23523758
0.43800002 24135.63769254  2066.13136258
0.43900002 24221.24429217  1918.32263885
0.44000002 24306.86433127  2090.26889722
0.44100002 24393.54037039  1779.02098352
0.44200002 24480.50049951  1789.40226881
0.44300002 24568.09882369  1636.23545920
0.44400002 24655.68281261  2139.49697746
0.44500002 24743.09994689  1986.37615787
0.44600002 24830.46753852  2497.32439104
0.44700002 24918.89761907  2009.45999923
0.44800002 25005.96689342  1684.15195009
0.44900002 25093.58041252  2032.58010974
0.45000002 25181.04675016  1873.84768272
0.45100002 25267.17752562  1884.42618917
0.45200002 25353.30826627  1722.75737834
0.45300002 25438.36508480  2078.82329325
0.45400002 25522.95090515  2090.32977820
0.45500002 25607.05232380  2101.82695435
0.45600002 25689.69501712  1937.13154457
0.45700002 25771.80464744  3009.88920742
0.45800002 25852.34955691  2135.92122162
0.45900002 25931.71202884  2683.93232219
0.46000002 26010.30811437  2518.05804789
0.46100002 26086.76229001  1988.59398362
0.46200002 26162.40130971  2180.37462849
0.46300002 26236.58419099  1826.06634624
0.46400002 26308.52471204  1835.01968564
0.46500002 26379.91815042  2212.74763933
0.46600002 26448.60472899  2037.99733398
0.46700002 26515.50182751  2233.66597982
0.46800002 26581.34734169  2056.99766153
0.46900002 26644.44886996  2441.96385467
0.47000002 26705.86879955  2830.15458017
0.47100002 26765.38416751  2273.98714665
0.47200002 26822.93014106  2474.01307882
0.47300002 26878.22113909  2675.45825899
0.47400002 26930.66244377  2110.69076907
0.47500002 26981.40920088  2311.76724990
0.47600002 27030.46305312  2514.23864006
0.47700002 27076.04486334  1941.35250872
