# SAXS profile: number of points = 501, q_min = 0, q_max = 0.5, delta_q = 0.001
#    q    intensity    error
0.00000000 1719190.39626458 309.45427133
0.00100000 1719106.79872731 618.87846224
0.00200000 1718855.94593033 850.83372018
0.00300000 1718438.06534491 1546.59431390
0.00400000 1717853.00719086 1546.06776522
0.00500000 1717101.33636888 2009.00864307
0.00600000 1716182.90007093 2162.39054212
0.00700000 1715098.30554606 2675.55346785
0.00800000 1713847.34669590 2776.43281887
0.00900000 1712431.32418883 3339.24122491
0.01000000 1710849.55545873 3669.77245492
0.01100000 1709103.41360168 3999.30216195
0.01200000 1707192.71642818 3661.92853729
0.01300000 1705118.68275972 5013.04914841
0.01400000 1702881.43430163 4597.78007644
0.01500000 1700482.21934926 5305.50476062
0.01600000 1697920.58554882 5628.60699271
0.01700000 1695198.83977071 7323.25931632
0.01800000 1692316.83919978 4823.10320875
0.01900000 1689275.36011193 5574.60893991
0.02000000 1686075.43732116 6904.47922816
0.02100000 1682719.32302051 7774.16362482
0.02200000 1679205.43221241 6951.91080520
0.02300000 1675536.97802676 8444.70675364
0.02400000 1671713.74154285 8149.60486162
0.02500000 1667738.15733388 7154.59702172
0.02600000 1663610.12871747 8758.90772831
0.02700000 1659331.83111287 9756.87161382
0.02800000 1654903.24894507 10798.24419457
0.02900000 1650327.04998802 7426.47206593
0.03000000 1645604.28933476 8417.26632685
0.03100000 1640735.59820858 7875.53123378
0.03200000 1635722.47632176 11335.55728300
0.03300000 1630568.52947136 10810.66984877
0.03400000 1625271.84942233 12799.01640475
0.03500000 1619836.02088330 12245.96088337
0.03600000 1614262.16242175 10750.98649857
0.03700000 1608552.19963383 15586.87153531
0.03800000 1602707.65502828 9375.84021583
0.03900000 1596730.39293247 15328.61248202
0.04000000 1590620.56931494 9782.31695459
0.04100000 1584382.19229277 10979.76910168
0.04200000 1578016.07260154 16285.12662476
0.04300000 1571523.07589033 11409.25806056
0.04400000 1564906.95213175 13732.05914270
0.04500000 1558168.89046644 11826.50242816
0.04600000 1551308.97941836 12030.40169465
0.04700000 1544331.66095414 12231.10732360
0.04800000 1537237.01032383 14688.30031706
0.04900000 1530029.52087081 13770.26632881
0.05000000 1522708.26203280 16308.20624578
0.05100000 1515278.03945456 15364.92003583
0.05200000 1507737.01420038 17979.76473222
0.05300000 1500091.51724321 14580.89022733
0.05400000 1492341.30293574 18467.72448505
0.05500000 1484489.18623575 17457.59364452
0.05600000 1476536.21367571 17674.13930245
0.05700000 1468487.48009545 21718.93084442
0.05800000 1460341.76297723 14216.42772638
0.05900000 1452102.22764800 19603.38098884
0.06000000 1443772.45422964 14531.57043072
0.06100000 1435353.79101250 21358.06540836
0.06200000 1426848.44277728 20225.57762178
0.06300000 1418259.15071379 13615.28848344
0.06400000 1409585.81068354 17866.50098597
0.06500000 1400834.11629682 23576.03928011
0.06600000 1392004.48932489 25181.36239009
0.06700000 1383099.54346532 23982.94720607
0.06800000 1374121.58649890 15644.37499459
0.06900000 1365073.66573372 17199.92899353
0.07000000 1355956.53007921 17329.12526591
0.07100000 1346773.62032299 15999.67135883
0.07200000 1337526.67868750 16110.50959952
0.07300000 1328219.31292641 19166.20558357
0.07400000 1318853.28663186 20771.94023791
0.07500000 1309430.31625858 16420.25693554
0.07600000 1299951.39515963 21020.21504517
0.07700000 1290422.81887321 16607.74245761
0.07800000 1280844.02747445 24284.80389978
0.07900000 1271217.06433320 22881.90823124
0.08000000 1261546.44670837 24524.46407448
0.08100000 1251833.44627474 20016.81774509
0.08200000 1242079.22400007 26288.60800956
0.08300000 1232287.33000713 23290.23163019
0.08400000 1222460.13129525 17145.00414618
0.08500000 1212599.28672596 18771.03783973
0.08600000 1202707.59540688 18834.40182838
0.08700000 1192788.25700429 18893.76687816
0.08800000 1182840.94540968 17370.02009910
0.08900000 1172870.81558381 20583.88378031
0.09000000 1162878.23763017 17460.61755824
0.09100000 1152865.88986681 17500.50503037
0.09200000 1142835.88438271 15942.56133623
0.09300000 1132792.81104192 17569.61732489
0.09400000 1122733.69958624 17598.85156812
0.09500000 1112664.62308386 19226.84559060
0.09600000 1102586.83634642 24063.95883445
0.09700000 1092504.48422393 16059.81667311
0.09800000 1082417.21854985 17681.28609634
0.09900000 1072328.15375603 20910.39998150
0.10000000 1062238.25782049 19311.49243534
0.10100000 1052149.64928025 19317.46846932
0.10200000 1042065.65916156 16099.91519133
0.10300000 1031987.24530148 16099.00178401
0.10400000 1021918.01483562 20923.77233812
0.10500000 1011860.23124102 17697.43627706
0.10600001 1001810.90084189 24118.59857263
0.10700001 991778.62179868 22493.54020089
0.10800001 981760.78693686 17656.96858403
0.10900001 971761.88525434 17637.47904749
0.11000001 961781.92724534 19216.40381087
0.11100001 951823.96714409 22386.90076106
0.11200001 941888.89073102 17561.51919443
0.11300001 931979.05804320 23905.26396429
0.11400001 922096.49148485 20678.01479516
0.11500001 912243.07393663 17460.33325732
0.11600001 902419.51079965 20588.70210845
0.11700001 892629.33361958 15799.53994914
0.11800001 882870.74068100 18911.09215607
0.11900001 873147.53336404 22003.31887717
0.12000001 863460.54480992 21940.53347713
0.12100001 853814.69357170 17187.29059126
0.12200001 844206.92515500 21805.86590406
0.12300001 834642.49783725 17076.78631031
0.12400001 825118.95920612 20112.27557829
0.12500001 815639.86138138 18498.71292780
0.12600001 806207.99970889 21501.56836546
0.12700001 796822.37282182 21418.58639083
0.12800001 787485.21029918 16761.62349118
0.12900001 778198.04853926 18209.83519409
0.13000001 768962.33777050 18132.13277928
0.13100001 759777.54584801 19556.67495198
0.13200001 750647.68247662 19468.04856276
0.13300001 741572.08990087 20867.83959358
0.13400001 732551.35978790 26701.49832313
0.13500001 723588.76906711 19189.57506041
0.13600001 714683.80736765 14686.75293390
0.13700001 705838.12590211 16071.93488464
0.13800001 697050.45515702 18893.55347797
0.13900001 688326.10190497 15900.33370384
0.14000001 679662.13716501 20124.79683055
0.14100001 671062.35820824 14293.62890397
0.14200001 662525.34534834 17053.40319360
0.14300001 654054.30343601 16953.08834470
0.14400001 645645.03720902 15447.05824386
0.14500001 637305.13785914 15352.68149525
0.14600001 629030.82371401 20805.19547581
0.14700001 620825.63197841 17917.02858416
0.14800001 612686.44298064 15062.89691133
0.14900001 604616.68778193 19045.42656371
0.15000001 596615.88832977 14864.68555910
0.15100001 588685.72349253 16106.44215474
0.15200001 580826.73703512 14662.97166835
0.15300001 573039.11341295 13237.20414449
0.15400001 565320.44573022 15772.44118019
0.15500001 557675.89908422 16964.50165075
0.15600001 550101.83062724 12954.89872268
0.15700001 542603.46264995 14145.67293892
0.15800001 535174.83227765 14040.31238749
0.15900001 527822.01979152 16468.04779480
0.16000001 520540.49504360 13828.15890356
0.16100001 513335.06931377 13721.44705047
0.16200001 506203.30990043 13614.33866245
0.16300001 499145.61930601 14734.77937751
0.16400001 492163.05537294 15835.34705420
0.16500001 485254.43948284 13291.11972493
0.16600001 478421.63815611 14381.35512196
0.16700001 471661.95206059 13074.46992843
0.16800001 464977.71396601 15323.34128726
0.16900001 458370.15333166 11688.43946186
0.17000001 451835.97284763 15066.47122604
0.17100001 445377.19103958 14937.95169286
0.17200001 438992.85471862 20505.35721223
0.17300001 432684.05869909 14680.97080496
0.17400001 426450.14428352 13433.18017933
0.17500001 420289.94594227 14424.35162597
0.17600001 414203.22138697 14296.22486137
0.17700001 408193.68851771 14168.40359763
0.17800001 402256.34866026 10800.58347166
0.17900001 396392.20991786 12843.10820796
0.18000001 390604.11730863 16967.84365736
0.18100001 384889.29477144 10507.47824360
0.18200001 379245.04125579 13533.35993650
0.18300001 373675.12074776 11344.77720182
0.18400001 368177.16026363 13281.99168396
0.18500001 362752.19343438 11132.86534244
0.18600001 357399.10690015 12030.05450660
0.18700001 352116.52675473 10922.65517597
0.18800001 346903.74402415 10818.19376851
0.18900001 341765.26543193 13636.43473502
0.19000001 336692.87079514 12540.12656527
0.19100001 331693.19762250 13373.87036006
0.19200001 326760.76908317 10405.69718314
0.19300001 321899.49667997 10304.00337562
0.19400001 317104.62016139 10202.84163582
0.19500001 312378.46249837 14694.28357030
0.19600001 307718.15219349 12730.30055783
0.19700001 303126.97739330 10803.44598484
0.19800001 298600.65698709 13369.84504844
0.19900001 294140.32520812 11471.47322526
0.20000001 289743.77209061 12230.08519795
0.20100001 285413.64389691 11242.44396444
0.20200001 281145.70566159 10273.06457042
0.20300001 276942.05691018 10169.31281039
0.20400001 272801.15186839 10066.36297974
0.20500001 268721.76568080 9133.85324722
0.20600001 264703.82029896 13150.48641405
0.20700001 260746.85775566 8135.30234652
0.20800001 256849.75210089 8857.46411989
0.20900001 253014.57215921 8766.95533974
0.21000001 249235.13736938 11043.60945889
0.21100001 245515.72666255 9368.88057234
0.21200001 241852.38969323 9272.62105920
0.21300001 238246.24256178 11471.55712167
0.21400001 234696.72975692 11353.45483874
0.21500001 231203.46708042 7490.99268756
0.21600001 227763.57105040 9637.81596466
0.21700001 224378.64627545 8804.61849613
0.21800001 221047.15623219 8713.67931066
0.21900001 217767.12900097 8623.57871617
0.22000001 214539.16050388 7823.17085767
0.22100001 211363.85021784 7742.25819956
0.22200001 208239.10434492 9055.27788061
0.22300001 205163.42351381 9650.88789844
0.22400001 202136.28123594 7504.30979574
0.22500001 199160.17969694 7426.68345209
0.22600001 196229.61534048 9354.26620563
0.22700001 193347.47253487 7934.98064807
0.22800001 190510.81386975 6544.04676589
0.22900001 187719.87989916 8419.23701163
0.23000001 184974.18209932 8332.16242671
0.23100001 182274.11989081 6977.45363940
0.23200001 179615.97813184 8788.61022564
0.23300001 177001.84872989 6834.04170267
0.23400001 174428.59726608 6148.60834443
0.23500001 171897.38374339 7302.20120679
0.23600001 169407.41090132 7226.92049086
0.23700001 166957.38534353 7748.49262028
0.23800001 164546.67526181 6488.89844587
0.23900001 162175.26017677 7005.97157102
0.24000001 159841.46530478 8089.57694171
0.24100001 157546.32778116 6290.82516587
0.24200001 155288.07392618 6792.30067482
0.24300001 153065.54228555 5602.19911265
0.24400001 150878.51032210 7762.69972328
0.24500001 148726.11619814 6036.79334205
0.24600001 146608.37056624 5975.02442508
0.24700001 144525.37179219 5913.97849350
0.24800001 142474.91035454 7982.15723022
0.24900001 140455.61561720 5793.79441830
0.25000001 138469.87095625 5734.72997695
0.25100001 136514.52861831 5160.24942590
0.25200001 134592.09440565 6640.10129164
0.25300001 132697.92485326 6572.52852893
0.25400001 130834.62618574 7506.63703255
0.25500001 128998.50994745 6934.96022288
0.25600001 127192.82975348 7845.25411037
0.25700001 125414.15284221 6794.93912248
0.25800001 123662.66914649 4804.29492365
0.25900001 121939.49170404 5231.20444162
0.26000001 120241.51300837 5648.94654842
0.26100001 118569.50042757 5125.75974602
0.26200001 116923.66362932 5535.16649812
0.26300001 115301.73532562 7305.51829591
0.26400001 113705.05930844 4519.77632138
0.26500001 112132.29758226 5368.89466229
0.26600001 110582.60523997 5314.60025932
0.26700001 109056.29346810 5260.87584585
0.26800001 107553.12163464 5641.69926232
0.26900001 106071.08705875 5584.64299792
0.27000001 104611.43983119 4677.70075341
0.27100001 103173.01869209 4630.40529802
0.27200001 101756.08589054 5000.29429729
0.27300001 100359.62935837 6187.17144275
0.27400001 98981.60846652  5307.88900521
0.27500001 97625.78780105  6466.73248998
0.27600001 96287.21332762  5200.95407403
0.27700001 94969.46439489  4752.27222323
0.27800001 93669.07548993  5488.07139269
0.27900001 92387.58021099  4268.30640776
0.28000001 91123.52203048  4224.94229890
0.28100001 89877.33658203  4181.99266909
0.28200001 88649.13984007  4139.47178075
0.28300001 87437.83057646  3724.85175886
0.28400001 86242.33067989  3686.85981107
0.28500001 85064.19657726  4014.17962648
0.28600001 83901.73787553  4334.36398380
0.28700001 82755.98864393  3575.05887863
0.28800001 81624.03497212  6015.28354199
0.28900001 80509.53691683  3852.38152382
0.29000001 79408.96142416  3812.82146326
0.29100001 78323.81839234  5145.87511196
0.29200001 77252.90993378  4753.37177323
0.29300001 76196.78300381  3696.30611848
0.29400001 75154.02679707  4655.79218047
0.29500001 74126.42412746  3620.33472576
0.29600001 73111.31753921  4885.66402583
0.29700001 72110.23811242  3223.32779621
0.29800001 71122.81401139  4465.80170318
0.29900001 70148.85316943  3472.36839627
0.30000001 69186.66351683  3748.53360680
0.30100001 68238.57712555  5255.05307321
0.30200001 67301.83996552  4894.19003399
0.30300001 66378.63104219  3026.86571882
0.30400001 65467.43293668  3594.16223838
0.30500001 64568.88376235  3260.08309550
0.30600001 63680.95130689  3519.00953582
0.30700001 62805.92142101  2901.63370702
0.30800001 61942.43201254  3732.34141762
0.30900001 61090.79490740  2840.72209769
0.31000001 60250.73965343  3091.76685169
0.31100001 59421.28932399  2780.91647203
0.31200001 58604.01943252  3576.89649541
0.31300001 57797.03724830  2994.46464161
0.31400001 57002.72295172  3770.73030179
0.31500001 56217.44779417  2931.17786677
0.31600002 55444.84837474  3954.60399757
0.31700002 54682.14002641  2869.17202304
0.31800002 53929.82346539  2838.59639250
0.31900002 53188.81312335  3063.67578097
0.32000002 52458.74002422  2525.88845177
0.32100002 51738.22774726  2498.95651852
0.32200002 51029.18218120  2966.83679250
0.32300002 50329.11545260  2690.59463950
0.32400002 49640.56427750  2903.97314774
0.32500002 48961.33703392  3112.47234263
0.32600002 48292.46241116  2842.49447212
0.32700002 47634.09389623  2812.31703680
0.32800002 46986.45493262  2782.53799287
0.32900002 46346.94735518  2523.59140299
0.33000002 45718.54188099  2496.91828307
0.33100002 45099.02222971  2470.52455473
0.33200002 44490.97464293  2666.78914638
0.33300002 43891.77149177  2638.77342704
0.33400002 43302.76362162  2175.96397503
0.33500002 42723.32918701  3014.55825019
0.33600002 42153.24758079  2343.93144273
0.33700002 41592.66386335  2952.24742083
0.33800002 41042.37063667  2713.10603942
0.33900002 40501.05616102  2478.66475444
0.34000002 39969.12798451  3066.63148984
0.34100002 39447.16369964  2023.63959363
0.34200002 38934.99508127  3205.12894688
0.34300002 38431.40577894  2181.36669532
0.34400002 37937.93678953  2748.60365057
0.34500002 37453.50898059  1943.83720815
0.34600002 36979.11790836  3464.57372092
0.34700002 36512.42741956  2096.54368173
0.34800002 36056.27599901  2076.30075174
0.34900002 35608.54129251  2617.22790896
0.35000002 35170.51696015  2036.90058622
0.35100002 34742.15685326  2568.14035623
0.35200002 34321.23345641  2180.77127711
0.35300002 33910.78252288  2700.99395588
0.35400002 33508.37008741  2319.61702917
0.35500002 33115.52077120  2298.87956082
0.35600002 32731.31384220  1752.76193927
0.35700002 32355.71055209  2953.75295620
0.35800002 31989.55763510  2239.42908832
0.35900002 31632.45751438  1878.96806535
0.36000002 31283.81703242  1694.01877254
0.36100002 30943.23559498  1848.23954963
0.36200002 30612.99553278  1833.56545429
0.36300002 30289.69473013  1984.58089272
0.36400002 29975.64695118  1805.28342315
0.36500002 29669.42488238  2606.16240512
0.36600002 29372.34864505  2263.72701730
0.36700002 29083.19632078  1765.93176425
0.36800002 28803.13435863  1913.10427472
0.36900002 28531.09484749  2058.51859076
0.37000002 28266.60917703  1573.03687522
0.37100002 28010.35907784  1875.57373270
0.37200002 27762.95688106  1708.67126219
0.37300002 27523.12345995  3088.09459849
0.37400002 27291.15717786  2149.17872956
0.37500002 27067.18783954  1831.90735976
0.37600002 26851.33735168  1518.44319917
0.37700002 26643.08539847  2114.92821912
0.37800002 26442.17532130  1653.56151205
0.37900002 26250.02588102  2394.00247376
0.38000002 26064.32818979  1638.53406927
0.38100002 25885.61275338  1779.89481724
0.38200002 25715.39122112  1625.08422520
0.38300002 25551.93347766  1471.79143804
0.38400002 25395.86467666  1906.59463092
0.38500002 25246.26173566  1754.11034849
0.38600002 25104.80628963  2040.26770382
0.38700002 24969.32236360  2325.14340865
0.38800002 24840.58570980  1449.44824484
0.38900002 24718.72714228  2169.06840950
0.39000002 24604.25488347  1443.03961728
0.39100002 24495.25940135  2016.44984945
0.39200002 24393.79165231  2157.02112905
0.39300002 24297.75973622  2010.39673582
0.39400002 24209.35494547  2151.60652272
0.39500002 24125.66437893  1862.98389160
0.39600002 24048.43102664  1575.29254903
0.39700002 23976.59501763  2003.96390652
0.39800002 23911.87012621  1574.23804434
0.39900002 23851.62773439  1860.42705143
0.40000002 23797.55534429  1717.70762613
0.40100002 23748.48123704  2148.05022966
0.40200002 23705.39055338  1576.29001953
0.40300002 23667.34033223  1864.51315971
0.40400002 23634.62565338  1722.96429177
0.40500002 23606.43587248  1581.39521402
0.40600002 23583.99426017  1439.80291780
0.40700002 23565.93251106  1730.68216561
0.40800002 23552.29636615  2022.90683074
0.40900002 23543.20192712  1592.69768583
0.41000002 23539.12005302  2176.78023004
0.41100002 23539.19419657  1745.66672433
0.41200002 23542.41579270  2333.52436394
0.41300002 23551.35972999  1608.79345938
0.41400002 23563.27127426  2200.22055949
0.41500002 23579.08196466  1912.73521960
0.41600002 23597.66176267  1623.63719451
0.41700002 23621.49701795  2073.49510649
0.41800002 23649.08940871  1932.24894170
0.41900002 23678.09731856  2088.40828245
0.42000002 23710.96337880  1497.34740832
0.42100002 23747.99413795  1503.24810016
0.42200002 23787.18156682  2113.01543871
0.42300002 23829.07260499  1667.08199844
0.42400002 23873.60677944  1674.13675474
0.42500002 23921.38943953  1681.43454338
0.42600002 23970.38761755  1535.30339966
0.42700002 24022.76487307  2467.61852469
0.42800002 24076.74377167  2169.07394918
0.42900002 24133.95356665  2334.96011822
0.43000002 24192.81626943  2189.69190431
0.43100002 24252.06118080  1571.53363899
0.43200002 24314.25189261  1579.21073526
0.43300002 24377.54825912  2380.46770031
0.43400002 24442.76894620  1913.86889918
0.43500002 24508.86160734  2244.03147511
0.43600002 24576.86239598  1611.01340640
0.43700002 24645.37076094  1781.12102930
0.43800002 24714.56078242  2441.18085697
0.43900002 24785.60147063  1799.43475204
0.44000002 24856.74079972  2301.98287455
0.44100002 24928.94391857  1983.34687215
0.44200002 25001.57404605  1993.62560891
0.44300002 25074.76495833  1836.97736790
0.44400002 25148.13148769  2517.95678453
0.44500002 25221.41641019  2362.23797293
0.44600002 25294.57795509  2204.80199194
0.44700002 25369.04774657  2216.24011617
0.44800002 25441.99156620  2398.92549847
0.44900002 25515.66918440  1894.53852673
0.45000002 25589.34422038  2077.34306226
0.45100002 25661.76179053  2087.84103823
0.45200002 25734.17818991  1923.50123996
0.45300002 25805.43773230  2636.02558928
0.45400002 25876.48513481  2472.49827181
0.45500002 25947.09004391  3017.12777330
0.45600002 26016.20155445  2140.09284130
0.45700002 26084.92361226  1971.23777080
0.45800002 26152.12345793  1980.63116396
0.45900002 26218.20212496  3075.39525501
0.46000002 26283.59863476  1999.26202491
0.46100002 26346.84609945  2556.17112972
0.46200002 26409.41780208  2751.20122992
0.46300002 26470.66921988  2763.53799753
0.46400002 26529.73688868  2775.67385353
0.46500002 26588.37139780  1858.52724879
0.46600002 26644.29734632  2053.07642933
0.46700002 26698.47416950  2249.07957064
0.46800002 26751.86608074  2634.79141517
0.46900002 26802.35803211  2267.47959699
0.47000002 26851.31017757  2086.74966936
0.47100002 26898.57246018  1904.41902044
0.47200002 26943.83069596  2293.99785418
0.47300002 26987.11690126  2494.41933341
0.47400002 27027.45552262  2118.27692699
0.47500002 27066.19338874  2512.28418942
0.47600002 27103.29724082  2521.01331235
0.47700002 27137.17940243  2334.88302645
