# SAXS profile: number of points = 501, q_min = 0, q_max = 0.5, delta_q = 0.001
#    q    intensity    error
0.00000000 1700912.83420644 331.67800267
0.00100000 1700829.69327990 561.27381211
0.00200000 1700580.20185830 1147.89167260
0.00300000 1700164.59490724 1020.09879328
0.00400000 1699582.72734474 1274.68709394
0.00500000 1698835.14305229 1681.84685819
0.00600000 1697921.71768116 2674.22681422
0.00700000 1696843.02016822 3054.31756324
0.00800000 1695598.89186094 3204.68204092
0.00900000 1694190.57706245 2795.41457165
0.01000000 1692617.46692684 3909.94651743
0.01100000 1690880.82797437 3956.66130973
0.01200000 1688980.56752905 3952.21470130
0.01300000 1686917.86656228 5313.79151403
0.01400000 1684692.85704963 4927.72682532
0.01500000 1682306.76675919 4441.29006201
0.01600000 1679759.20071326 4283.38615330
0.01700000 1677052.35208476 4528.04155375
0.01800000 1674186.18389808 6202.86009046
0.01900000 1671161.38552870 6517.52969765
0.02000000 1667979.07543615 7355.78805542
0.02100000 1664641.43927083 6042.64869852
0.02200000 1661146.87532829 6304.05267828
0.02300000 1657498.73356052 7757.09442615
0.02400000 1653696.58119972 8061.77120095
0.02500000 1649742.93483344 9007.59683557
0.02600000 1645637.79103127 6664.83335851
0.02700000 1641383.26428008 8961.95303344
0.02800000 1636979.32045586 8545.03244465
0.02900000 1632428.52456947 8815.11443741
0.03000000 1627732.10243506 8325.85008666
0.03100000 1622890.59481130 10126.83777759
0.03200000 1617905.43813657 8809.49551640
0.03300000 1612780.39315509 13982.80665327
0.03400000 1607513.48385313 10127.33541555
0.03500000 1602108.19942091 8651.38467638
0.03600000 1596565.73878321 8860.94025974
0.03700000 1590887.97243646 9974.86804849
0.03800000 1585076.48777086 11127.23745912
0.03900000 1579133.11371900 11369.75894531
0.04000000 1573058.01298422 12576.59939660
0.04100000 1566855.13259137 13819.66291023
0.04200000 1560525.28052817 11071.92737901
0.04300000 1554069.42789151 12308.23044022
0.04400000 1547491.22255021 13579.23610852
0.04500000 1540791.86241756 14884.05008254
0.04600000 1533971.51061880 15140.29951363
0.04700000 1527034.40454883 12094.11304650
0.04800000 1519980.99765771 11171.86085259
0.04900000 1512815.25132295 14749.94938697
0.05000000 1505536.54070660 12669.09058000
0.05100000 1498149.70913719 15191.23875832
0.05200000 1490652.74034873 15405.89678944
0.05300000 1483052.16260933 13213.99538486
0.05400000 1475347.58806437 15823.10361988
0.05500000 1467541.87858960 12327.35235521
0.05600000 1459635.80646731 16223.85274596
0.05700000 1451634.97389330 13892.14734862
0.05800000 1443537.84557044 12775.31052981
0.05900000 1435347.51355085 12918.12822531
0.06000000 1427067.72045568 16974.97132787
0.06100000 1418699.64720311 15832.68880267
0.06200000 1410245.59745880 19990.23227839
0.06300000 1401708.53489410 16147.68307697
0.06400000 1393087.80342505 13582.60671861
0.06500000 1384389.40458725 13705.45574652
0.06600000 1375613.86962302 20737.38005484
0.06700000 1366763.52324304 19517.38402530
0.06800000 1357841.03509975 16864.38644535
0.06900000 1348849.09646718 21244.37426400
0.07000000 1339788.64711538 14268.74975996
0.07100000 1330663.06227544 18682.51026939
0.07200000 1321473.98983294 21705.21129983
0.07300000 1312225.09069704 20391.97886491
0.07400000 1302918.16483047 27849.87707841
0.07500000 1293554.85579099 22119.78907084
0.07600000 1284136.40419160 14831.77616374
0.07700000 1274668.60832733 22370.43512506
0.07800000 1265151.30854618 16491.24808028
0.07900000 1255586.32298728 19587.14755731
0.08000000 1245978.44967068 21194.09442314
0.08100000 1236328.45610909 16727.52479598
0.08200000 1226637.95208489 15271.64322008
0.08300000 1216910.33654418 24532.91353611
0.08400000 1207147.87953027 18469.36342374
0.08500000 1197352.47032279 15445.84759227
0.08600000 1187526.45703508 17046.94309112
0.08700000 1177673.30425075 18654.34601530
0.08800000 1167792.74672855 18708.04068119
0.08900000 1157890.01577539 25010.42551548
0.09000000 1147965.19425985 17236.69820151
0.09100000 1138021.13994159 20416.10020972
0.09200000 1128059.67894034 20457.36323881
0.09300000 1118085.81039559 23647.51600111
0.09400000 1108096.39815746 17369.41185744
0.09500000 1098097.30745004 17393.86216757
0.09600000 1088089.89616861 23747.56310020
0.09700000 1078078.37918435 17432.52821096
0.09800000 1068062.30879308 23791.08904697
0.09900000 1058045.10107765 15870.67726244
0.10000000 1048027.08926250 17465.37226391
0.10100000 1038011.03032206 17469.72646195
0.10200000 1027999.93462601 20647.37965814
0.10300000 1017994.80729764 20644.93566315
0.10400000 1007999.14609368 15875.98729786
0.10500000 998015.21531227 28563.19680612
0.10600001 988040.08707752 17443.84855815
0.10700001 978082.36487009 20598.41557348
0.10800001 968139.41865677 18994.89628798
0.10900001 958215.82322269 18972.67419277
0.11000001 948311.29623661 17368.32220809
0.11100001 938428.99823182 17342.16870368
0.11200001 928570.16940095 22034.97115723
0.11300001 918736.57035197 23565.59413902
0.11400001 908930.66908894 18814.86573603
0.11500001 899154.14598567 21903.39602760
0.11600001 889407.89500508 17170.02022163
0.11700001 879694.83564742 18684.71918911
0.11800001 870013.97341687 18635.70018830
0.11900001 860368.59170527 15486.63538014
0.12000001 850759.73466099 16985.41890260
0.12100001 841191.96093508 20011.95769337
0.12200001 831662.86185574 19947.43468136
0.12300001 822176.80676294 18350.98719154
0.12400001 812732.12792269 16762.60092822
0.12500001 803332.01800352 21256.16619797
0.12600001 793979.31832888 19662.89874500
0.12700001 784673.02056256 22598.58405719
0.12800001 775415.11927567 22506.42489769
0.12900001 766207.71509274 19423.36649306
0.13000001 757051.70203881 19338.88664012
0.13100001 747946.81849795 16290.28247477
0.13200001 738896.66347727 25059.68152315
0.13300001 729901.12416908 22006.51993115
0.13400001 720960.57893524 17519.34289409
0.13500001 712078.09230016 18884.31189816
0.13600001 703253.33684056 15897.04242884
0.13700001 694487.99292611 14375.90213144
0.13800001 685780.85174365 17158.23771974
0.13900001 677136.60925555 19907.81725093
0.14000001 668553.35316476 16967.88490354
0.14100001 660033.93220110 16870.46810272
0.14200001 651577.48507123 15373.97148537
0.14300001 643186.81653452 19449.97024941
0.14400001 634858.24957174 16569.80109542
0.14500001 626598.68653890 19211.51663553
0.14600001 618404.93487099 16362.99534860
0.14700001 610280.20198715 14903.04323560
0.14800001 602221.24364629 14805.60997355
0.14900001 594232.08467752 16044.26704327
0.15000001 586311.65659358 18591.94350780
0.15100001 578461.49374639 13188.92267974
0.15200001 570682.93942434 22265.19593227
0.15300001 562975.26989070 16906.14815260
0.15400001 555336.88232791 18076.21637281
0.15500001 547772.20110460 16663.23114399
0.15600001 540278.09054315 15268.25955933
0.15700001 532859.62782859 18943.16066336
0.15800001 525510.53244771 12533.42679044
0.15900001 518237.31769344 18656.54431756
0.16000001 511035.09884214 13575.64804155
0.16100001 503909.10529171 13469.49102026
0.16200001 496856.51728885 12148.14242118
0.16300001 489877.85697078 13256.09543542
0.16400001 482974.18656970 13148.97285012
0.16500001 476144.22843093 17783.98777150
0.16600001 469389.71229290 12934.03413289
0.16700001 462708.55942299 11660.25624800
0.16800001 456102.58744301 16187.08159265
0.16900001 449572.88314389 11464.10906148
0.17000001 443116.31057571 17048.90085444
0.17100001 436735.08643698 14648.09549080
0.17200001 430428.21348405 15637.45773432
0.17300001 424196.28437070 14392.98060840
0.17400001 418039.39115101 15362.94835033
0.17500001 411955.84630317 10875.63485603
0.17600001 405945.63732507 12933.42861601
0.17700001 400012.28862688 11748.36147185
0.17800001 394150.78987247 12699.53904952
0.17900001 388362.50813329 11534.36703637
0.18000001 382649.58037062 17661.19221623
0.18100001 377009.85179270 10292.36944012
0.18200001 371440.64680450 12235.25548371
0.18300001 365945.14885367 11110.09524403
0.18400001 360521.54174067 10004.47325592
0.18500001 355170.49952900 12882.03462649
0.18600001 349891.14443253 12758.78118450
0.18700001 344681.97392477 11664.03854868
0.18800001 339542.33298975 11551.23071406
0.18900001 334476.60846979 15252.13406685
0.19000001 329476.76368116 9439.50972547
0.19100001 324549.01889406 13085.81706011
0.19200001 319688.42471013 9254.98033267
0.19300001 314898.55654650 14661.67748561
0.19400001 310174.85756366 9979.87651370
0.19500001 305519.22098405 13473.39828208
0.19600001 300929.50392821 8892.46726130
0.19700001 296408.17351876 8803.32316953
0.19800001 291951.58491157 20043.93700936
0.19900001 287560.62828773 8626.81925634
0.20000001 283233.02383430 10247.37128663
0.20100001 278971.38644799 9298.11674976
0.20200001 274771.76110088 13386.88083355
0.20300001 270635.85408939 9109.60327921
0.20400001 266562.35370036 11475.50986920
0.20500001 262550.11307748 8112.79887756
0.20600001 258598.78411341 12044.23893939
0.20700001 254708.08372201 11125.64962288
0.20800001 250876.68970401 10224.47997220
0.20900001 247106.96235699 7783.86968220
0.21000001 243392.51550539 10014.38552387
0.21100001 239737.69839628 8386.02508634
0.21200001 236138.67339936 10562.48336049
0.21300001 232596.28592508 11946.14580987
0.21400001 229109.98165869 8127.67698359
0.21500001 225679.76287885 12430.44192705
0.21600001 222302.40513595 7959.53799221
0.21700001 218979.34893279 8592.75005838
0.21800001 215709.44152772 10629.08323383
0.21900001 212490.90992409 7012.20035904
0.22000001 209323.53837604 9020.79831284
0.22100001 206208.66118596 9613.44823905
0.22200001 203143.60901584 7474.66944717
0.22300001 200127.38960687 8069.13673050
0.22400001 197159.27539981 7984.95103127
0.22500001 194241.73523826 7243.27464955
0.22600001 191369.21041576 8470.95849963
0.22700001 188544.69238730 7093.05166303
0.22800001 185765.24412295 8295.34736860
0.22900001 183030.89667060 6946.02285713
0.23000001 180341.50705858 9998.13362416
0.23100001 177697.24600294 8039.02378936
0.23200001 175094.28632026 6731.50015594
0.23300001 172534.98144468 6661.57594863
0.23400001 170016.25659533 7191.68799412
0.23500001 167538.86781381 8303.22668156
0.23600001 165102.34997446 6456.32770112
0.23700001 162705.46509246 9293.73660566
0.23800001 160347.30339949 6898.14131852
0.23900001 158027.80236825 6826.80138521
0.24000001 155745.62812283 7882.28661213
0.24100001 153501.57155351 5572.10731096
0.24200001 151293.96019677 6066.13162103
0.24300001 149121.56429665 6549.41941371
0.24400001 146984.28347647 5941.83994061
0.24500001 144881.20707138 5880.72847321
0.24600001 142812.15431172 5291.19056755
0.24700001 140777.34800086 7855.37639005
0.24800001 138774.68984892 6738.20538438
0.24900001 136802.90522278 5643.12010740
0.25000001 134863.95474545 6600.91657729
0.25100001 132955.06077794 5528.27168868
0.25200001 131078.47330944 5471.87112718
0.25300001 129229.76720032 5908.38523593
0.25400001 127411.32530250 5360.83176573
0.25500001 125619.95212360 6270.94830670
0.25600001 123858.18753331 6684.62669744
0.25700001 122123.09321972 6616.62950370
0.25800001 120414.83166949 5613.73971804
0.25900001 118734.17829176 6019.82312422
0.26000001 117078.42322214 6417.06868043
0.26100001 115448.03226895 4990.81867113
0.26200001 113843.60528408 5838.46957325
0.26300001 112262.39506837 6223.82747709
0.26400001 110706.03064206 5720.73440412
0.26500001 109173.14113803 6534.01280629
0.26600001 107662.94418241 5174.28134225
0.26700001 106175.55643854 5548.73484205
0.26800001 104710.84775377 4647.59119748
0.26900001 103266.91813975 6273.46557386
0.27000001 101844.88634475 4139.99482583
0.27100001 100443.54339119 5737.33547001
0.27200001 99063.33705059  4462.30822862
0.27300001 97703.14721401  4417.15949458
0.27400001 96361.00748207  6757.31596947
0.27500001 95040.58226233  4328.14832106
0.27600001 93736.79238762  5452.66947124
0.27700001 92453.46275572  4626.37149525
0.27800001 91187.18547446  6869.13100689
0.27900001 89939.32706229  4155.19710693
0.28000001 88708.53428653  4860.78436628
0.28100001 87495.15192537  5181.46314225
0.28200001 86299.35615850  4762.43019501
0.28300001 85119.80849345  4713.93521748
0.28400001 83955.91531135  4306.93865932
0.28500001 82808.87953954  4618.25143051
0.28600001 81677.12427757  4571.06047655
0.28700001 80561.51361987  3828.28330842
0.28800001 79459.46856956  4133.48175064
0.28900001 78374.39730739  4773.00102194
0.29000001 77302.87677933  4723.97902359
0.29100001 76246.37017168  3339.59117160
0.29200001 75203.72143215  3966.24445608
0.29300001 74175.41740357  3925.36327481
0.29400001 73160.10591525  4532.26877599
0.29500001 72159.62986250  3524.27648931
0.29600001 71171.16814485  3804.81082913
0.29700001 70196.45684045  4392.89447703
0.29800001 69234.87412262  4036.73952681
0.29900001 68286.46517232  4916.62572516
0.30000001 67349.48984235  3953.07849343
0.30100001 66426.19219944  3911.83864381
0.30200001 65513.98979951  3275.37207508
0.30300001 64614.81445984  2946.43567886
0.30400001 63727.28926876  3207.07598428
0.30500001 62852.11061577  2884.91201384
0.30600001 61987.25166267  3139.96438163
0.30700001 61134.90926440  3954.20611843
0.30800001 60293.72020742  3074.07547031
0.30900001 59464.06079047  3594.60264497
0.31000001 58645.59079239  3009.39863399
0.31100001 57837.48813805  3248.15348762
0.31200001 57041.21354710  4284.93616453
0.31300001 56254.91878005  3709.44951998
0.31400001 55480.87393905  3407.91284306
0.31500001 54715.78185777  3630.93945600
0.31600002 53962.83049416  2822.52598264
0.31700002 53219.47309958  4061.71037927
0.31800002 52486.24324993  4269.49365932
0.31900002 51764.01916791  2733.14034148
0.32000002 51052.33677458  2703.98714530
0.32100002 50350.06362636  2431.90818830
0.32200002 49658.94101321  2887.17096722
0.32300002 48976.37917574  3094.32778284
0.32400002 48305.04826760  2590.35833601
0.32500002 47642.90857251  2562.71217346
0.32600002 46990.86207058  3457.35284056
0.32700002 46348.93481666  3420.55155144
0.32800002 45717.42558715  2481.77056552
0.32900002 45093.84823790  2455.36015282
0.33000002 44481.23247079  2650.19195611
0.33100002 43877.14666608  3059.11481042
0.33200002 43284.22441999  2162.04711216
0.33300002 42699.98662922  2567.12331772
0.33400002 42125.67094907  2328.49657198
0.33500002 41560.70811698  2304.12576712
0.33600002 41004.76672095  3109.18658386
0.33700002 40458.03748994  2461.46711746
0.33800002 39921.61794344  2233.01580542
0.33900002 39393.71789806  2812.71159113
0.34000002 38875.15199907  2585.00335460
0.34100002 38366.08886582  2558.63458764
0.34200002 37866.82295224  2727.54738642
0.34300002 37375.91835068  2121.45722606
0.34400002 36894.86270095  2863.96385280
0.34500002 36422.62575992  2646.46811305
0.34600002 35960.20283491  2994.76583393
0.34700002 35505.39435374  2409.39617496
0.34800002 35060.81222777  2018.97696776
0.34900002 34624.55403914  2181.34700778
0.35000002 34197.72617280  1980.56140510
0.35100002 33780.36960365  2140.32431946
0.35200002 33370.39457917  1766.96247666
0.35300002 32970.62732754  2275.96251222
0.35400002 32578.87463547  2081.79018781
0.35500002 32196.36170122  2922.78585367
0.35600002 31822.37345230  2044.90581490
0.35700002 31456.82971964  2364.92457034
0.35800002 31100.48945297  2344.66601091
0.35900002 30753.13255793  1826.73616047
0.36000002 30414.05966452  2635.07425415
0.36100002 30082.94113145  2940.30680546
0.36200002 29761.89195775  1782.58860324
0.36300002 29447.81224513  2250.99087464
0.36400002 29142.67903539  1914.67410332
0.36500002 28845.37006576  2058.69415911
0.36600002 28557.00146001  1572.06300484
0.36700002 28276.44545943  2029.11782229
0.36800002 28004.92851991  2015.09472710
0.36900002 27741.28547284  2001.53384168
0.37000002 27485.06744774  1529.54407592
0.37100002 27236.91940485  1671.80219226
0.37200002 26997.58718690  1963.66959706
0.37300002 26765.60476654  2252.32574780
0.37400002 26541.47936606  1940.84577058
0.37500002 26325.28597365  1633.22081917
0.37600002 26117.00434594  1476.91666573
0.37700002 25916.17025918  1763.33630797
0.37800002 25722.79513979  2047.27736216
0.37900002 25537.85033568  1892.35479952
0.38000002 25359.49964926  2029.01366306
0.38100002 25187.93013303  1587.59531149
0.38200002 25024.76653613  1725.20748673
0.38300002 24868.20342420  1862.13116062
0.38400002 24719.00717282  1713.02727823
0.38500002 24576.28911638  1992.15409015
0.38600002 24441.55032394  1560.71526987
0.38700002 24312.75993518  2264.00431242
0.38800002 24190.68627787  1976.13725566
0.38900002 24075.41904843  1830.93570538
0.39000002 23967.40712132  1967.96389197
0.39100002 23864.93323140  1403.25814049
0.39200002 23769.73495701  2662.32928999
0.39300002 23680.02417077  1399.48949480
0.39400002 23597.89627557  1677.81050468
0.39500002 23520.35570138  1676.53103382
0.39600002 23449.36687311  1815.33282249
0.39700002 23383.60323959  1954.40165136
0.39800002 23324.88204575  1675.19310789
0.39900002 23270.74763648  1675.49390921
0.40000002 23222.58717546  1396.83868478
0.40100002 23179.49657279  2236.35793530
0.40200002 23142.36764961  1958.53866698
0.40300002 23110.17433304  1540.52429403
0.40400002 23083.22022495  1542.53626462
0.40500002 23060.83341403  1404.40482146
0.40600002 23044.15232239  1969.58379231
0.40700002 23031.83515412  1691.45805386
0.40800002 23023.90261889  1553.76814186
0.40900002 23020.41059376  1698.90638232
0.41000002 23022.04745665  1561.24022225
0.41100002 23027.68727899  1565.42225540
0.41200002 23036.57939134  2140.67424137
0.41300002 23051.08250651  1717.76674978
0.41400002 23068.61513983  1579.62349655
0.41500002 23089.97927755  1440.81477519
0.41600002 23114.15457765  1590.36948107
0.41700002 23143.44396944  1596.20340621
0.41800002 23176.48440201  1747.97053643
0.41900002 23211.04949085  1462.29618721
0.42000002 23249.48231411  2495.94829210
0.42100002 23291.85989256  1769.24976127
0.42200002 23336.57748886  1480.70591183
0.42300002 23383.93969011  2379.54981562
0.42400002 23433.91972087  1792.69494359
0.42500002 23487.10875961  1650.90895294
0.42600002 23541.48220970  1960.18160908
0.42700002 23599.35469573  1818.09437191
0.42800002 23658.82668837  2588.15746822
0.42900002 23721.35324032  2754.04924171
0.43000002 23785.57706333  1691.51139302
0.43100002 23850.19675411  1854.59138748
0.43200002 23917.89119753  2485.54737103
0.43300002 23986.53166764  2342.28492834
0.43400002 24057.17964968  2197.62346514
0.43500002 24128.65036969  1735.81518985
0.43600002 24202.08776682  1903.73631395
0.43700002 24275.99723140  2073.41302179
0.43800002 24350.51593171  1924.17786011
0.43900002 24427.00074985  2579.49140142
0.44000002 24503.56031793  1945.09271021
0.44100002 24581.18258794  1955.67897938
0.44200002 24659.19804575  1802.46416657
0.44300002 24737.78220729  1812.29001039
0.44400002 24816.58691805  2650.41160845
0.44500002 24895.25391345  1998.59107889
0.44600002 24973.86240414  2009.39706426
0.44700002 25053.72625097  2188.69362901
0.44800002 25132.14481134  2031.18003991
0.44900002 25211.20848778  1871.93231893
0.45000002 25290.30365320  1881.97803554
0.45100002 25368.06138707  1719.95464356
0.45200002 25445.81848551  2074.85213764
0.45300002 25522.57005427  2085.70452368
0.45400002 25599.01303668  2445.98581158
0.45500002 25675.01930007  2107.40568403
0.45600002 25749.56955024  2294.67299922
0.45700002 25823.68151178  2306.31310512
0.45800002 25896.35382573  1961.26044994
0.45900002 25967.84601010  2508.49404346
0.46000002 26038.61157494  2340.74109847
0.46100002 26107.36205864  2352.01235934
0.46200002 26175.37119088  1999.66757690
0.46300002 26241.96040680  3287.59295558
0.46400002 26306.45108205  2385.33756492
0.46500002 26370.49978421  2396.28742896
0.46600002 26431.82693771  2777.32434711
0.46700002 26491.41658700  2045.66728580
0.46800002 26550.14085284  3175.26424579
0.46900002 26606.09002694  2438.44826654
0.47000002 26660.44518665  2260.27265005
0.47100002 26713.01665455  2458.66616942
0.47200002 26763.68908189  2088.77221340
0.47300002 26812.27374002  2096.98802860
0.47400002 26857.98847613  2487.72130051
0.47500002 26902.11208570  1920.81089396
0.47600002 26944.54660485  1927.88240095
0.47700002 26983.75163493  1934.73508393
