# SAXS profile: number of points = 501, q_min = 0, q_max = 0.5, delta_q = 0.001
#    q    intensity    error
0.00000000 1700912.83420644 357.19169518
0.00100000 1700829.68146900 510.24891656
0.00200000 1700580.14959649 841.78720071
0.00300000 1700164.48369941 1224.11847187
0.00400000 1699582.52728859 1784.56172146
0.00500000 1698834.82135241 1987.63681966
0.00600000 1697921.25068886 2317.66260155
0.00700000 1696842.39689145 3461.55863352
0.00800000 1695598.06266107 2746.86897748
0.00900000 1694189.55454374 4066.05510472
0.01000000 1692616.17736003 3072.09849456
0.01100000 1690879.26109194 4261.01592347
0.01200000 1688978.73430649 3622.85954393
0.01300000 1686915.71733769 3896.77547892
0.01400000 1684690.36046206 4169.60882699
0.01500000 1682303.88512080 4037.52950408
0.01600000 1679755.94402798 6853.40455801
0.01700000 1677048.70859680 5886.44123123
0.01800000 1674182.02403256 5248.56088151
0.01900000 1671156.80091622 5514.81769187
0.02000000 1667974.01221428 6830.35388899
0.02100000 1664635.82958215 7141.28803268
0.02200000 1661140.74593450 6304.02941723
0.02300000 1657491.98791000 7160.36571370
0.02400000 1653689.25037800 6821.46846885
0.02500000 1649735.03041901 7077.36360373
0.02600000 1645629.23208587 9330.71817270
0.02700000 1641374.09067601 11719.41154419
0.02800000 1636969.38451275 7832.89886411
0.02900000 1632417.84381944 9549.64482481
0.03000000 1627720.70435316 9839.57211009
0.03100000 1622878.57201371 9347.78100492
0.03200000 1617892.57271866 8008.56860382
0.03300000 1612766.63648008 10692.64329280
0.03400000 1607498.99649104 11815.11816936
0.03500000 1602092.73962396 9516.43131282
0.03600000 1596549.56174495 11519.10562033
0.03700000 1590870.82518709 9067.96412294
0.03800000 1585058.40679167 10199.85131975
0.03900000 1579114.17754111 10422.15405442
0.04000000 1573038.06327197 10641.60299116
0.04100000 1566834.23952095 11845.26740000
0.04200000 1560503.41071617 14091.34645250
0.04300000 1554046.48782182 13333.71948444
0.04400000 1547467.19324478 12534.48484741
0.04500000 1540766.81597364 13820.67898146
0.04600000 1533945.40022835 11895.74713177
0.04700000 1527007.16843023 16491.67818604
0.04800000 1519952.59472554 14523.14771834
0.04900000 1512785.70139389 11345.89328858
0.05000000 1505505.88298410 11517.12054114
0.05100000 1498117.94181269 16359.44868668
0.05200000 1490619.76744133 16590.59878477
0.05300000 1483017.84203000 18018.66762066
0.05400000 1475312.01002517 13388.45711533
0.05500000 1467505.07130232 20955.97339578
0.05600000 1459597.88069849 16223.43120102
0.05700000 1451595.69409732 16417.54806659
0.05800000 1443497.29389938 15329.94197700
0.05900000 1435305.65993715 12917.75154277
0.06000000 1427024.55089193 13057.27525068
0.06100000 1418655.04085466 17151.54024545
0.06200000 1410199.62931458 15991.66454393
0.06300000 1401661.13661505 21529.51606503
0.06400000 1393038.89319351 17656.76879698
0.06500000 1384339.20297756 16445.95050068
0.06600000 1375562.34421868 13824.40220622
0.06700000 1366710.38994747 20910.66994479
0.06800000 1357786.51795585 18269.01845425
0.06900000 1348793.09754249 14162.32818726
0.07000000 1339731.26331642 14268.13862247
0.07100000 1330603.99717878 21555.78576392
0.07200000 1321413.37711940 17363.37258877
0.07300000 1312163.29577145 16021.51459207
0.07400000 1302854.66490391 14657.11566706
0.07500000 1293489.90518149 14745.78561024
0.07600000 1284069.86780828 16314.10843532
0.07700000 1274600.50754791 22369.23995633
0.07800000 1265081.53117239 20987.70358639
0.07900000 1255515.11093429 19586.03664923
0.08000000 1245905.63520540 16651.52959566
0.08100000 1236254.06150568 22808.88850493
0.08200000 1226561.95827284 21378.97593591
0.08300000 1216832.73864403 15332.09322648
0.08400000 1207068.51683620 15390.12431205
0.08500000 1197271.46276035 16989.28285413
0.08600000 1187443.93771662 20144.98734920
0.08700000 1177589.22106765 18653.01413761
0.08800000 1167706.95290198 17147.77740869
0.08900000 1157802.68299538 25008.53912734
0.09000000 1147876.04596290 26636.46489783
0.09100000 1137930.43871258 20414.47302960
0.09200000 1127967.38442370 25176.23320329
0.09300000 1117991.94119947 22069.16195636
0.09400000 1108000.76222563 18946.81392451
0.09500000 1098000.02611641 18973.44134309
0.09600000 1087990.88288651 20579.34851719
0.09700000 1077977.70296463 17430.90027641
0.09800000 1067960.16849045 22202.89294684
0.09900000 1057941.10700407 15869.11735127
0.10000000 1047921.59922566 20638.81686733
0.10100000 1037903.78802140 19055.91444431
0.10200000 1027891.15541569 19057.10291778
0.10300000 1017884.33741155 25406.39425693
0.10400000 1007886.90398816 15874.21948462
0.10500000 997901.34809502 25386.61148996
0.10600001 987924.88546747 23784.29273676
0.10700001 977965.35379851 20595.95132019
0.10800001 968021.00688637 17409.85862819
0.10900001 958095.74913694 20551.15478624
0.11000001 948189.50262611 17366.09155801
0.11100001 938305.73080029 15763.53701949
0.11200001 928445.23720504 18884.57701378
0.11300001 918610.04670557 17279.05579204
0.11400001 908802.55484446 26650.63617564
0.11500001 899024.45974076 20335.93423691
0.11600001 889276.74772632 24970.89225207
0.11700001 879562.08847785 20238.72460902
0.11800001 869879.86526506 18632.82759155
0.11900001 860232.95381967 20129.45206751
0.12000001 850622.58350938 16982.68067973
0.12100001 841053.43199897 18469.53423676
0.12200001 831522.71998969 18409.91388789
0.12300001 822035.29769987 19876.81443487
0.12400001 812589.22432936 22854.07301109
0.12500001 803187.75183938 18216.29907008
0.12600001 793833.45287637 16634.78078891
0.12700001 784525.99999867 21088.05987377
0.12800001 775266.82727642 16501.55519628
0.12900001 766057.93438951 19419.56955206
0.13000001 756900.76735248 14873.10077952
0.13100001 747794.54889045 20728.86587235
0.13200001 738743.04200396 23580.67901237
0.13300001 729746.23632397 20535.06005824
0.13400001 720804.39261837 18975.17653027
0.13500001 711920.78957573 17427.82175050
0.13600001 703095.08128307 14448.60460163
0.13700001 694328.42465235 17247.11888162
0.13800001 685620.25864632 17154.21968025
0.13900001 676974.93855280 17059.76925604
0.14000001 668390.47486452 16963.75105208
0.14100001 659869.94316094 16866.27654266
0.14200001 651412.50682117 18164.63860945
0.14300001 643020.79290251 16667.09973818
0.14400001 634691.36292546 17945.89913322
0.14500001 626430.83120961 17834.48660583
0.14600001 618236.09903869 16358.52795227
0.14700001 610110.53200814 17607.79078443
0.14800001 602050.82002657 14801.42010866
0.14900001 594060.76275837 18712.91490978
0.15000001 586139.61952670 14603.66930955
0.15100001 578288.75866981 17140.47961575
0.15200001 570509.43799385 13093.19221979
0.15300001 562801.06905288 16900.91690120
0.15400001 555162.14031289 14198.27240853
0.15500001 547596.94529482 14095.14603708
0.15600001 540102.04594007 13991.34416040
0.15700001 532683.05043270 16411.96555842
0.15800001 525333.51652366 13782.12545650
0.15900001 518059.70617947 12433.43353517
0.16000001 510857.21306772 17272.08318910
0.16100001 503730.90019934 14688.79374319
0.16200001 496677.76010264 14572.52616932
0.16300001 489698.93241862 13251.25373681
0.16400001 482795.01630801 15533.93038306
0.16500001 475964.71558603 15406.97857090
0.16600001 469210.02639238 19981.30991730
0.16700001 462528.79601715 11655.72620995
0.16800001 455922.65659858 11557.63989048
0.16900001 449392.86565551 13751.42233837
0.17000001 442936.28528620 12497.44787948
0.17100001 436555.03623672 18020.99274683
0.17200001 430248.32427869 15630.92235918
0.17300001 424016.46174432 14386.87922640
0.17400001 417859.80557154 15356.34857997
0.17500001 411776.41507267 13045.07744559
0.17600001 405766.38360311 14005.02739151
0.17700001 399833.13659090 14945.76335167
0.17800001 393972.09547254 10578.15126307
0.17900001 388184.19197906 11529.07104634
0.18000001 382471.52677335 13499.33317511
0.18100001 376832.25611573 12345.02529349
0.18200001 371263.62016679 11210.30554049
0.18300001 365768.72858678 14133.30434024
0.18400001 360345.65211807 11999.51078240
0.18500001 354995.21694555 14856.55053103
0.18600001 349716.49355471 9809.54810765
0.18700001 344508.11399890 10686.64220113
0.18800001 339369.30073529 11545.34415649
0.18900001 334304.31402372 9527.67339983
0.19000001 329305.33496135 10378.05812166
0.19100001 324378.61725306 12144.73600379
0.19200001 319518.93230801 11100.08823287
0.19300001 314730.05276387 11906.23845866
0.19400001 310007.39792769 10881.26018144
0.19500001 305352.88754284 8977.37531799
0.19600001 300764.25720791 11553.85948664
0.19700001 296244.14753113 14077.52255595
0.19800001 291788.78559726 11322.86436021
0.19900001 287399.05235649 9484.16917599
0.20000001 283072.90633761 9388.11338238
0.20100001 278812.43025756 9292.81873968
0.20200001 274614.46139454 8362.01074468
0.20300001 270479.92975194 11587.36073825
0.20400001 266407.97830313 9011.25029203
0.20500001 262397.24408934 8918.88274816
0.20600001 258447.44993117 8024.79369968
0.20700001 254558.44325717 7942.22380505
0.20800001 250728.95596385 13362.60033975
0.20900001 246960.81804825 11668.89920438
0.21000001 243248.23412518 8468.68767140
0.21100001 239595.19153938 11428.69117670
0.21200001 235998.02199340 7540.13715914
0.21300001 232457.47613616 10446.63947143
0.21400001 228973.23400317 12553.45814771
0.21500001 225545.07932064 8038.42700702
0.21600001 222169.66304073 7231.62287388
0.21700001 218848.92871565 7871.99633809
0.21800001 215581.08948904 7790.02303700
0.21900001 212364.72952567 7708.84004627
0.22000001 209199.60450847 6934.96721736
0.22100001 206086.94646403 6862.69564174
0.22200001 203024.19975661 7470.27578327
0.22300001 200010.27053203 9408.48357071
0.22400001 197044.61681081 7315.28174501
0.22500001 194129.46325938 7897.18693883
0.22600001 191259.47420197 7814.86248544
0.22700001 188437.38624449 7733.47069718
0.22800001 185660.41375327 7652.92261682
0.22900001 182928.70386966 6942.14464015
0.23000001 180242.03223948 6245.38671245
0.23100001 177600.32701081 8034.63917395
0.23200001 175000.05198819 10397.62858062
0.23300001 172443.58813879 7263.32427592
0.23400001 169927.60766577 8385.92783492
0.23500001 167452.95493127 6520.61837342
0.23600001 165019.25594511 7039.72179158
0.23700001 162625.20078009 5805.71994245
0.23800001 160270.03356751 6894.81717019
0.23900001 157953.43674323 6823.58879006
0.24000001 155674.23237859 7315.91089668
0.24100001 153433.15134161 7797.47312001
0.24200001 151228.61892451 7165.96844670
0.24300001 149059.18925619 8183.34987726
0.24400001 146924.93576057 7559.28830246
0.24500001 144825.04418714 6412.85325996
0.24600001 142759.07990605 5818.14657680
0.24700001 140727.36884947 6805.57587950
0.24800001 138727.96121169 5181.48959638
0.24900001 136759.27906537 5641.32052832
0.25000001 134823.65292980 5076.11077295
0.25100001 132917.93950294 8541.30719654
0.25200001 131044.59288672 4973.14253533
0.25300001 129199.21425761 5906.98835532
0.25400001 127384.07438770 6334.17339861
0.25500001 125596.01562513 5305.17595100
0.25600001 123837.67694867 4773.94267224
0.25700001 122105.77595854 5198.04312849
0.25800001 120400.88279608 4677.57451794
0.25900001 118723.72462166 6482.31567105
0.26000001 117071.29526969 5958.34385467
0.26100001 115444.28275684 4536.96052702
0.26200001 113843.29875033 5389.34201785
0.26300001 112265.47973016 5779.42716998
0.26400001 110712.58828956 5280.99071130
0.26500001 109183.14625560 5227.68929009
0.26600001 107676.34376508 5174.92532623
0.26700001 106192.54866772 5122.72879014
0.26800001 104731.28380247 4648.49825154
0.26900001 103290.75729628 4601.60345530
0.27000001 101872.24590064 4141.10699183
0.27100001 100474.37797597 6149.03222312
0.27200001 99097.70801751  5681.27186950
0.27300001 97740.85184560  4820.57904115
0.27400001 96402.25032143  5169.57091814
0.27500001 95085.17621304  5511.13707412
0.27600001 93784.83469143  4286.43607243
0.27700001 92505.10078673  3857.46288537
0.27800001 91242.27958545  4964.03645578
0.27900001 89997.83148276  5291.87274164
0.28000001 88770.48620950  3741.67617082
0.28100001 87560.54829380  4814.95477856
0.28200001 86368.23832064  5132.86464633
0.28300001 85192.16704592  6169.61702947
0.28400001 84031.65923320  3592.35360225
0.28500001 82887.86248494  5689.42315025
0.28600001 81759.46846455  3871.71981239
0.28700001 80647.31270052  3483.96407357
0.28800001 79548.57886440  3448.43105700
0.28900001 78466.84615273  4095.96956305
0.29000001 77398.56454803  3716.29225268
0.29100001 76345.43672184  4012.71634404
0.29200001 75306.10720868  4633.58499588
0.29300001 74281.02367767  5241.26927880
0.29400001 73268.93268865  4214.79555243
0.29500001 72271.60765434  4171.51739128
0.29600001 71286.39236070  3810.97071601
0.29700001 70314.75247485  3457.37654285
0.29800001 69356.39123438  4977.01487058
0.29900001 68411.09760114  4309.89935290
0.30000001 67477.03892642  3655.90614210
0.30100001 66556.89117262  3015.02731285
0.30200001 65647.66679599  4177.16123598
0.30300001 64751.52484854  3543.20360745
0.30400001 63866.97145902  2921.91408258
0.30500001 62994.68258902  3758.89288804
0.30600001 62132.69582426  3719.57401161
0.30700001 61283.18791047  3114.41175706
0.30800001 60444.83053662  3361.94163361
0.30900001 59617.89634071  4712.79492886
0.31000001 58802.19466313  2743.12251091
0.31100001 57996.72858213  3528.52113400
0.31200001 57203.19367711  3759.96609841
0.31300001 56419.54771184  3454.56906996
0.31400001 55648.00873085  2629.36853702
0.31500001 54885.45568291  3121.88486706
0.31600002 54134.96751856  4633.41208929
0.31700002 53394.10634297  3565.65859041
0.31800002 52663.28429571  3275.91975472
0.31900002 51943.42193585  3739.92655646
0.32000002 51233.99796578  3700.37567829
0.32100002 50533.94068550  2684.86839575
0.32200002 49845.06567010  2656.49290067
0.32300002 49164.62222679  2867.28090403
0.32400002 48495.50092423  2364.15578200
0.32500002 47835.37169193  2339.14978650
0.32600002 47185.34656311  3240.21790192
0.32700002 46545.39627177  4122.06048902
0.32800002 45915.91992422  2265.95075556
0.32900002 45294.12391375  3363.08885985
0.33000002 44683.35247787  2218.52855558
0.33100002 44080.98908390  2853.80336843
0.33200002 43489.73978142  2172.31260495
0.33300002 42907.12356016  2579.57639059
0.33400002 42334.51557667  2552.77141016
0.33500002 41771.00962903  2526.31078200
0.33600002 41216.46286588  2291.84152619
0.33700002 40671.26010507  2268.23628348
0.33800002 40136.24648397  2857.29952251
0.33900002 39609.59434011  3030.13411052
0.34000002 39092.24633368  2799.39589253
0.34100002 38584.50548678  2177.32374773
0.34200002 38086.28295967  2351.44722129
0.34300002 37596.44486572  2715.96730573
0.34400002 37116.44021718  2112.85345943
0.34500002 36645.20976807  2472.45242015
0.34600002 36183.63278861  1883.35817584
0.34700002 35729.71875958  2611.12797062
0.34800002 35285.83720080  2216.65639794
0.34900002 34850.30212105  2012.60504281
0.35000002 34424.09444347  2174.91438995
0.35100002 34007.37775471  2693.38444574
0.35200002 33598.00890961  2490.62051843
0.35300002 33198.65697884  2467.98827670
0.35400002 32807.34779230  2795.18616429
0.35500002 32425.20719361  1904.65676076
0.35600002 32051.43814135  1716.35459376
0.35700002 31686.29113085  1701.55391432
0.35800002 31329.97826539  2024.54329140
0.35900002 30982.76981881  2007.68357935
0.36000002 30643.74812107  2323.10265509
0.36100002 30312.65274989  1975.17254674
0.36200002 29991.50819879  1633.03769878
0.36300002 29677.36887058  1944.46130050
0.36400002 29372.09681813  1768.93461466
0.36500002 29074.41615387  2075.04117919
0.36600002 28785.81366116  1901.59094053
0.36700002 28504.93258610  2202.86129460
0.36800002 28232.91557730  1875.23034147
0.36900002 27968.86284808  1552.27196160
0.37000002 27712.05948444  1542.17618336
0.37100002 27463.34093675  1685.69994655
0.37200002 27223.26370511  1675.45584410
0.37300002 26990.64517063  1968.42784554
0.37400002 26765.72560514  1806.68656393
0.37500002 26548.63552154  2246.01467152
0.37600002 26339.47078457  2234.24571514
0.37700002 26137.77282557  2074.81650518
0.37800002 25943.42017003  1769.86020784
0.37900002 25757.41009060  1761.80693366
0.38000002 25577.91128160  2046.48877859
0.38100002 25405.17519061  1746.85992886
0.38200002 25240.86003984  1595.09622578
0.38300002 25083.00054119  1878.21516950
0.38400002 24932.53158624  1727.82452078
0.38500002 24788.39819085  2152.87248487
0.38600002 24652.20483399  1717.27267009
0.38700002 24521.96879321  1855.33224679
0.38800002 24398.40230703  2420.19963150
0.38900002 24281.61287971  2272.75907321
0.39000002 24171.88228678  1842.98525227
0.39100002 24067.79557547  1698.22373626
0.39200002 23970.83769025  1695.69713854
0.39300002 23879.41104659  1834.65523763
0.39400002 23795.44007098  1832.84385830
0.39500002 23716.13885875  1549.61258645
0.39600002 23643.19490113  1689.54278768
0.39700002 23575.52458020  1970.44243777
0.39800002 23514.84502673  1829.57260399
0.39900002 23458.56535671  1548.26538690
0.40000002 23408.47194389  1408.01965414
0.40100002 23363.26255712  2394.96815820
0.40200002 23323.94656068  2114.89895459
0.40300002 23289.61275277  1834.75577959
0.40400002 23260.45687628  1695.68738662
0.40500002 23235.77282867  1415.05863231
0.40600002 23216.80926592  1984.34078198
0.40700002 23202.18699579  2129.96086713
0.40800002 23191.95911799  1991.95746303
0.40900002 23186.08133388  1568.53847656
0.41000002 23185.29343493  2429.93479358
0.41100002 23188.44604269  2006.26444667
0.41200002 23194.87260065  1724.30691083
0.41300002 23206.85098656  2161.71827183
0.41400002 23221.89269477  2168.34433312
0.41500002 23240.70057402  1740.26374144
0.41600002 23262.30447084  1600.56293496
0.41700002 23288.97977189  1752.26292107
0.41800002 23319.43896945  1612.18948955
0.41900002 23351.37462943  1912.47767277
0.42000002 23387.07738106  1624.58340726
0.42100002 23426.77798277  1927.78965155
0.42200002 23468.79244542  1638.00444635
0.42300002 23513.37942047  1644.99610221
0.42400002 23560.63521805  2102.78679285
0.42500002 23611.07258653  1961.37189270
0.42600002 23662.67967834  1667.15417574
0.42700002 23717.79830428  2588.56062959
0.42800002 23774.44385889  1988.85119526
0.42900002 23834.14947504  1537.30271399
0.43000002 23895.60544610  2162.79135142
0.43100002 23957.39450433  1707.68316119
0.43200002 24022.31379982  2028.32416181
0.43300002 24088.04042656  1568.13150608
0.43400002 24155.79775440  1733.78246598
0.43500002 24224.47292069  2059.56478532
0.43600002 24295.02180597  1911.04650582
0.43700002 24366.09436502  2081.10821834
0.43800002 24437.75215788  2252.91647820
0.43900002 24511.35066575  2588.39875297
0.44000002 24585.00162265  2439.44690161
0.44100002 24659.79336541  2452.41656641
0.44200002 24734.96465735  2136.73002319
0.44300002 24810.76900944  1817.63702377
0.44400002 24886.68167934  1827.30468890
0.44500002 24962.47762771  2003.98779892
0.44600002 25038.27323849  1846.69793022
0.44700002 25115.26527584  2025.29508783
0.44800002 25190.84887839  2714.56600378
0.44900002 25267.20849789  2046.64398532
0.45000002 25343.39303755  2057.37674429
0.45100002 25418.37722888  1895.70266357
0.45200002 25493.46551685  1905.50917036
0.45300002 25567.40249408  2959.93832702
0.45400002 25641.08723379  2275.00557264
0.45500002 25714.34064202  2286.51927825
0.45600002 25786.22376677  1767.64572299
0.45700002 25857.62467063  2486.98645869
0.45800002 25927.58242406  2142.13696140
0.45900002 25996.37317692  2152.49980107
0.46000002 26064.62513929  2343.07958795
0.46100002 26130.71574661  2354.11629318
0.46200002 26196.07464309  2183.18096423
0.46300002 26260.19732304  2193.25178437
0.46400002 26322.07423137  2019.56124112
0.46500002 26383.56988014  2397.47510864
0.46600002 26442.40372444  2037.51951556
0.46700002 26499.53230059  2418.34743237
0.46800002 26555.79301933  3362.76022942
0.46900002 26609.26446773  2626.33452744
0.47000002 26661.32172631  2637.07145694
0.47100002 26711.56576895  2647.65052451
0.47200002 26759.87371712  2088.47444324
0.47300002 26806.11035138  2668.28035085
0.47400002 26849.57780928  2295.63901150
0.47500002 26891.40851021  2688.06532209
0.47600002 26931.70155023  2697.74867215
0.47700002 26968.66735509  3287.21101972
