# SAXS profile: number of points = 501, q_min = 0, q_max = 0.5, delta_q = 0.001
#    q    intensity    error
0.00000000 1682732.95097188 252.40994265
0.00100000 1682650.31987952 706.71315113
0.00200000 1682402.35608569 908.49730105
0.00300000 1681989.29185309 1412.87105549
0.00400000 1681410.99552088 1387.16412401
0.00500000 1680667.97795078 2420.16198404
0.00600000 1679760.15639994 1940.12305963
0.00700000 1678688.06457260 2215.86833733
0.00800000 1677451.56220291 2943.92761596
0.00900000 1676051.88599991 3268.30131741
0.01000000 1674488.42452766 3039.19662175
0.01100000 1672762.43990289 3914.26427980
0.01200000 1670873.83675703 4561.48577434
0.01300000 1668823.81244684 5607.24825713
0.01400000 1666612.47687153 4124.86606312
0.01500000 1664241.06219306 4793.01447254
0.01600000 1661709.18129189 5508.56618223
0.01700000 1659019.02831625 5375.22189287
0.01800000 1656170.51215539 5664.10340644
0.01900000 1653164.33181801 6943.29050693
0.02000000 1650001.75118713 6756.75747676
0.02100000 1646684.69444244 6520.87168564
0.02200000 1643211.70177355 7369.80481728
0.02300000 1639586.18902028 8853.76582372
0.02400000 1635807.58769816 7361.13448029
0.02500000 1631878.43661307 7000.75881280
0.02600000 1627798.79634322 7251.84396940
0.02700000 1623570.76236409 9546.59651995
0.02800000 1619194.23206253 8452.19427898
0.02900000 1614671.77075668 10172.43262283
0.03000000 1610004.68859501 14973.04429217
0.03100000 1605193.44137310 8475.42176043
0.03200000 1600239.39708029 8713.30391842
0.03300000 1595146.49029949 9762.29697068
0.03400000 1589912.72827650 11685.85909202
0.03500000 1584541.42719982 10267.82892240
0.03600000 1579033.85637817 9640.00213869
0.03700000 1573391.81256898 13452.50061961
0.03800000 1567617.08099533 13755.84052235
0.03900000 1561711.27601244 12181.34851702
0.04000000 1555674.66588030 12437.61953006
0.04100000 1549511.20699768 13666.68947940
0.04200000 1543221.57447323 17916.80331085
0.04300000 1536806.88710681 10142.92592572
0.04400000 1530270.64077330 12395.19276592
0.04500000 1523614.18767478 11564.23222178
0.04600000 1516837.54316024 10693.70517640
0.04700000 1509944.96840299 13045.92513374
0.04800000 1502937.01774204 13255.90511326
0.04900000 1495817.50275001 15706.08450995
0.05000000 1488585.79278728 14803.98639863
0.05100000 1481246.84693762 17330.58891650
0.05200000 1473798.53688196 17575.04837134
0.05300000 1466247.40016080 20190.22764144
0.05400000 1458593.13850988 12033.39395387
0.05500000 1450838.45900802 21936.67852353
0.05600000 1442984.20980559 16038.77024042
0.05700000 1435035.92266738 13733.29442098
0.05800000 1426992.25520155 17680.43486749
0.05900000 1418855.99031897 19154.55676394
0.06000000 1410631.10523008 18070.18530221
0.06100000 1402318.49796263 16954.03143265
0.06200000 1393920.74164613 17124.31711157
0.06300000 1385440.80927477 18620.32534725
0.06400000 1376877.73441312 20136.83780753
0.06500000 1368237.71843413 18963.77566458
0.06600000 1359521.35408536 15029.50927262
0.06700000 1350730.64599769 17910.68920413
0.06800000 1341868.67930370 16666.00977707
0.06900000 1332937.87595049 15395.43318803
0.07000000 1323939.11373836 18329.93788807
0.07100000 1314875.99164425 18460.85978735
0.07200000 1305749.98187605 14297.96297136
0.07300000 1296564.74167622 14391.86930695
0.07400000 1287322.03914663 18827.08570483
0.07500000 1278023.61804380 18940.31090719
0.07600000 1268670.80503245 20514.40787910
0.07700000 1259268.97488745 14733.44769701
0.07800000 1249818.29128585 14810.34744629
0.07900000 1240320.47246604 14883.84636770
0.08000000 1230780.33305822 17944.77809780
0.08100000 1221198.60020391 16522.81783598
0.08200000 1211576.83520769 21117.78522863
0.08300000 1201918.68827350 19687.42903789
0.08400000 1192225.81024070 19761.14373230
0.08500000 1182500.94125938 21355.96800170
0.08600000 1172745.60885110 18365.19709688
0.08700000 1162963.74422936 18421.34657362
0.08800000 1153154.85482023 16934.07983832
0.08900000 1143324.40874913 16978.36826739
0.09000000 1133472.30082036 20113.46692290
0.09100000 1123601.33608059 18606.83899967
0.09200000 1113713.26706510 20197.19104723
0.09300000 1103813.45063822 18676.52446245
0.09400000 1093898.36187242 18705.66286714
0.09500000 1083973.95354091 18731.07079760
0.09600000 1074041.69858389 17190.03819390
0.09700000 1064105.42502051 15642.35048319
0.09800000 1054165.24525538 20350.66101650
0.09900000 1044224.28277900 20362.37447168
0.10000000 1034282.71781256 17236.32230292
0.10100000 1024343.58531938 15672.45759249
0.10200000 1014409.68261086 18807.15640022
0.10300000 1004482.00878412 25071.87211865
0.10400000 994564.10535718 20363.70101520
0.10500000 984658.24328859 17221.67348539
0.10600001 974761.52713638 18773.90789603
0.10700001 964882.19484872 17194.20152132
0.10800001 955018.18242114 18737.45762092
0.10900001 945173.67823227 17154.90306732
0.11000001 935348.38354464 17130.90645096
0.11100001 925545.48218752 15549.16483270
0.11200001 915766.39097137 18626.68926925
0.11300001 906012.67092269 17042.09914241
0.11400001 896286.89559870 17007.04464475
0.11500001 886590.48034454 21597.34511817
0.11600001 876924.76867204 24624.04866389
0.11700001 867292.25985007 19956.39583900
0.11800001 857692.21044057 16840.78734517
0.11900001 848127.82401990 21372.82217200
0.12000001 838599.76687404 16742.64513430
0.12100001 829113.11441149 15172.77070849
0.12200001 819665.16494969 25708.79910982
0.12300001 810260.23911685 22606.26173644
0.12400001 800897.03313476 22525.23011825
0.12500001 791578.22382246 17952.99496225
0.12600001 782307.03585684 16393.24470889
0.12700001 773082.25984693 16327.49809742
0.12800001 763906.06806563 22172.37467057
0.12900001 754780.14221736 19133.67750702
0.13000001 745705.85334583 19049.05692159
0.13100001 736682.71615206 18962.21400759
0.13200001 727713.87966317 20325.04961712
0.13300001 718799.99833694 23116.60903630
0.13400001 709941.10493395 14376.30805269
0.13500001 701140.13617000 14303.25945224
0.13600001 692397.02272029 14228.75948780
0.13700001 683713.02864090 16983.43243226
0.13800001 675087.46549482 19705.80404704
0.13900001 666524.37479251 19595.81754300
0.14000001 658022.38820956 13917.17416697
0.14100001 649584.14911383 15219.75733155
0.14200001 641208.69246232 17880.10523263
0.14300001 632898.96285313 19138.86553941
0.14400001 624651.36900093 20379.25187494
0.14500001 616472.46416916 14850.82236238
0.14600001 608359.43225108 16097.19133674
0.14700001 600314.94434979 14659.69163262
0.14800001 592336.18439730 15886.45721504
0.14900001 584427.19273289 14464.57370259
0.15000001 576586.91092172 13059.69414857
0.15100001 568816.24863458 16859.71440505
0.15200001 561117.26938561 16740.93452207
0.15300001 553488.89602044 19178.39115212
0.15400001 545929.90062968 15231.44494636
0.15500001 538444.17196774 15119.51306239
0.15600001 531028.79209132 13756.30150835
0.15700001 523688.84666957 14893.71150222
0.15800001 516418.07703990 19706.51474997
0.15900001 509222.98596698 12221.35224006
0.16000001 502098.44314907 13338.24577185
0.16100001 495050.23584279 14435.66555860
0.16200001 488074.87377486 13126.77434984
0.16300001 481173.35713282 20122.67074524
0.16400001 474346.39793436 12914.08129343
0.16500001 467592.89077626 12807.36988301
0.16600001 460914.27198304 18473.44489327
0.16700001 454309.32402957 14883.17415791
0.16800001 447778.94093396 15891.67536409
0.16900001 441324.35982127 12379.14887751
0.17000001 434942.62128604 12271.90663906
0.17100001 428636.08632751 12164.69270441
0.17200001 422403.68559050 12057.51377457
0.17300001 416245.38145581 11950.40546595
0.17400001 410162.32034911 11843.43755940
0.17500001 404152.02072323 12803.53662119
0.17600001 398214.70233983 13744.38110039
0.17700001 392353.80284374 14666.18584299
0.17800001 386564.45531212 13493.03294997
0.17900001 380848.22080832 16452.64391604
0.18000001 375206.44680293 11205.54106306
0.18100001 369637.81870143 16145.78068355
0.18200001 364139.42748501 10995.19053230
0.18300001 358714.11893472 13860.71421041
0.18400001 353360.57147549 13728.05885035
0.18500001 348078.92576538 11653.68298517
0.18600001 342868.67535657 11540.96015774
0.18700001 337728.28957193 11428.72585906
0.18800001 332656.96817907 9430.82549345
0.18900001 327659.04557559 12139.76821215
0.19000001 322726.63065706 11095.34208623
0.19100001 317865.89542395 10985.44586491
0.19200001 313072.04023759 9969.77959245
0.19300001 308348.23979043 10767.52104228
0.19400001 303690.23667218 11547.82179514
0.19500001 299099.84594869 9672.88947507
0.19600001 294575.09371780 10445.63331686
0.19700001 290118.17256437 8616.51013236
0.19800001 285725.44745093 11940.46701327
0.19900001 281397.96314778 10130.32715208
0.20000001 277133.55663300 9191.13484012
0.20100001 272934.38181432 9923.89459179
0.20200001 268797.00111768 9821.84288505
0.20300001 264722.76007869 8910.56852540
0.20400001 260710.60553542 8016.85149914
0.20500001 256759.17780530 7933.85896919
0.20600001 252867.95513719 12562.48060502
0.20700001 249037.22881055 8546.95809679
0.20800001 245265.20656538 11533.59688393
0.20900001 241554.41115484 10652.55003549
0.21000001 237898.40140815 9035.38171261
0.21100001 234301.53978168 10431.10504419
0.21200001 230760.00297432 8847.33893229
0.21300001 227274.60621861 8025.06672497
0.21400001 223844.85202729 7218.99681917
0.21500001 220470.67668706 10714.87539356
0.21600001 217148.84739271 7775.01484849
0.21700001 213880.85864512 6993.90440836
0.21800001 210665.60453706 7612.40197987
0.21900001 207501.34511619 8217.05365512
0.22000001 204387.60621360 7452.99441298
0.22100001 201325.99426331 10726.64948154
0.22200001 198313.46366800 11940.45421205
0.22300001 195349.52917899 8532.86783802
0.22400001 192433.24561337 7144.08458121
0.22500001 189566.91493173 7068.95059208
0.22600001 186745.15873929 10173.87672922
0.22700001 183970.91006034 6291.80542160
0.22800001 181241.39421001 10583.59171539
0.22900001 178556.27639442 7392.23019231
0.23000001 175915.82971475 8533.67730304
0.23100001 173319.95392436 7840.99508636
0.23200001 170764.88713845 6565.05639652
0.23300001 168252.96399671 6496.24724715
0.23400001 165781.34021730 6428.17177095
0.23500001 163350.39837457 8673.90656393
0.23600001 160959.89066113 7438.76169874
0.23700001 158608.63085173 7361.02690599
0.23800001 156295.57448075 5603.19661016
0.23900001 154020.62613364 8317.11420461
0.24000001 151782.64824918 8779.10878999
0.24100001 149582.23641176 8144.75315788
0.24200001 147417.90994621 7522.73630040
0.24300001 145288.15182712 6912.81059093
0.24400001 143193.27102480 5262.35295909
0.24500001 141132.15608701 7290.88752835
0.24600001 139104.54812137 7215.35325238
0.24700001 137110.61625163 5610.56668243
0.24800001 135148.44697350 5552.57420658
0.24900001 133216.80668410 5994.75658438
0.25000001 131317.52318828 5932.92597832
0.25100001 129447.71241393 7339.68564110
0.25200001 127609.81794442 5327.07210211
0.25300001 125799.49702434 5751.55327606
0.25400001 124018.95953347 4743.72542659
0.25500001 122265.13628894 5633.97774675
0.25600001 120540.33886171 6040.87936786
0.25700001 118841.77310640 4599.17683682
0.25800001 117169.75687593 5462.45432401
0.25900001 115524.79145747 5406.56049602
0.26000001 113904.42150488 4905.29414420
0.26100001 112308.81670961 7061.97872885
0.26200001 110739.06352014 4805.52188884
0.26300001 109191.80046247 4756.39505321
0.26400001 107669.25823823 4279.85321748
0.26500001 106169.69124473 5083.40505734
0.26600001 104692.41748406 7547.27673356
0.26700001 103237.55646773 5395.19495631
0.26800001 101804.92203033 4107.82879831
0.26900001 100392.77641048 4879.08916444
0.27000001 99002.20548064  4829.32781188
0.27100001 97631.81070582  5576.72929142
0.27200001 96282.27643604  5914.13910996
0.27300001 94952.22329035  5463.55118668
0.27400001 93640.03336077  4635.18187072
0.27500001 92349.16175962  4587.90657334
0.27600001 91074.36379565  5676.20999220
0.27700001 89819.84857829  4869.13422187
0.27800001 88582.12367410  4819.31066657
0.27900001 87362.30661448  5136.90387205
0.28000001 86159.30351460  4721.09925952
0.28100001 84973.33912209  4313.24689798
0.28200001 83804.68846513  3557.50919372
0.28300001 82651.79412093  5281.44989430
0.28400001 81514.35179016  4181.68644476
0.28500001 80393.34402144  4138.64954611
0.28600001 79287.36144785  5802.64582221
0.28700001 78197.27720179  4391.55929552
0.28800001 77120.41934576  4346.12143795
0.28900001 76060.10563351  3308.61475167
0.29000001 75013.12521027  4256.61999154
0.29100001 73980.89061987  3564.39947879
0.29200001 72962.19371159  3527.35742196
0.29300001 71957.52812702  3807.99256874
0.29400001 70965.60537245  3454.25100502
0.29500001 69988.19654053  3728.97128820
0.29600001 69022.47915069  3382.44675090
0.29700001 68070.40297494  4259.84601982
0.29800001 67131.02733952  4516.24007806
0.29900001 66204.54987569  3575.04586253
0.30000001 65289.29751189  3537.37430665
0.30100001 64387.50498739  3791.78034821
0.30200001 63496.51676185  2885.91682345
0.30300001 62618.30965960  3140.93456122
0.30400001 61751.49868671  3955.18367813
0.30500001 60896.76743007  4472.25881179
0.30600001 60052.14345319  4424.64213911
0.30700001 59219.86350907  3283.14938838
0.30800001 58398.43556646  4060.15142498
0.30900001 57588.27027441  3481.21110290
0.31000001 56788.97991082  3179.04724592
0.31100001 56000.06271002  3931.20458837
0.31200001 55222.69983910  3370.51764426
0.31300001 54455.13221010  3077.80421824
0.31400001 53699.54702826  3298.49483238
0.31500001 52952.79951011  3011.95537874
0.31600002 52217.82743962  3724.43671847
0.31700002 51492.31588370  2701.80194234
0.31800002 50776.79530086  2915.60372423
0.31900002 50072.14440247  2884.15565414
0.32000002 49377.68692295  3566.30360687
0.32100002 48692.52345633  3057.40369259
0.32200002 48018.36191562  2791.78769397
0.32300002 47352.50325500  2531.46494388
0.32400002 46697.67428531  2504.16290213
0.32500002 46052.09663605  2927.53192178
0.32600002 45416.35292697  2450.43943821
0.32700002 44790.53431289  3746.28046733
0.32800002 44175.02932494  3488.06048067
0.32900002 43567.15256183  2803.54640011
0.33000002 42970.28246075  3413.55940033
0.33100002 42381.74201419  2110.61085225
0.33200002 41804.19104904  2923.36721850
0.33300002 41235.16579419  2272.47009453
0.33400002 40676.07229549  2248.37000261
0.33500002 40125.92805387  2629.05093059
0.33600002 39584.80725449  2401.21452177
0.33700002 39052.85978958  1979.98008510
0.33800002 38531.07796410  2351.16648871
0.33900002 38017.62064641  2132.78861927
0.34000002 37513.44542297  2494.45667153
0.34100002 37018.48432078  2468.76283627
0.34200002 36533.38416254  2255.57124502
0.34300002 36056.58927516  2232.62411365
0.34400002 35589.50451404  2210.10833499
0.34500002 35131.06998731  2187.96314243
0.34600002 34682.22200012  2707.81461090
0.34700002 34241.19745304  1966.12965087
0.34800002 33810.02282495  2654.93216807
0.34900002 33387.23172380  1928.11272337
0.35000002 32973.71554868  2951.31254997
0.35100002 32569.64206194  2235.58033701
0.35200002 32172.87197099  1873.90901670
0.35300002 31786.06991986  2700.54462830
0.35400002 31407.49058742  2341.42853419
0.35500002 31037.93611623  1657.42586711
0.35600002 30676.72852165  1807.01277916
0.35700002 30324.01571279  1954.07966509
0.35800002 29980.31790498  1937.32823478
0.35900002 29645.64291641  1921.03775197
0.36000002 29319.13054536  1746.39409365
0.36100002 29000.54239316  1574.72952654
0.36200002 28691.83527609  1718.49755526
0.36300002 28390.25281103  2480.17260305
0.36400002 28097.40718619  1999.83305120
0.36500002 27812.33406599  1832.27665506
0.36600002 27536.18861648  1970.62743168
0.36700002 27267.79181289  1806.21861524
0.36800002 27008.33677785  1943.38496491
0.36900002 26756.77959052  1782.00160514
0.37000002 26512.63515155  1770.51385929
0.37100002 26276.41624794  1612.84650570
0.37200002 26048.94360083  2186.15769526
0.37300002 25828.82665414  1593.89696833
0.37400002 25616.51603659  1873.20782391
0.37500002 25412.10988773  1719.89167867
0.37600002 25215.52124713  1425.93779407
0.37700002 25026.33097778  2412.28815722
0.37800002 24844.68268725  2259.87244429
0.37900002 24671.38465140  1828.14968927
0.38000002 24504.59354643  1680.52510503
0.38100002 24344.54905848  1673.93127256
0.38200002 24192.89010680  1945.83424347
0.38300002 24047.74260008  1939.21005514
0.38400002 23910.00119934  1795.04342508
0.38500002 23778.68533184  2065.17891891
0.38600002 23655.27830163  1647.82676456
0.38700002 23537.77904384  1643.87856630
0.38800002 23427.03048294  1640.36075213
0.38900002 23323.08838028  1773.72095535
0.39000002 23226.24362549  2315.77273039
0.39100002 23135.02973631  1496.37379424
0.39200002 23050.95831901  2038.28108593
0.39300002 22972.40383203  1900.73678311
0.39400002 22901.38829520  2035.36098117
0.39500002 22834.95638693  1492.03612101
0.39600002 22775.03651848  1898.75488450
0.39700002 22720.27979499  1763.32099843
0.39800002 22672.55016495  1899.73306833
0.39900002 22629.39718998  1629.31667487
0.40000002 22592.16302155  1766.59427117
0.40100002 22560.05958287  1360.37165730
0.40200002 22533.82999962  1907.03812322
0.40300002 22512.48363970  1500.68223052
0.40400002 22496.35221872  1503.31880824
0.40500002 22484.73329272  1643.18438689
0.40600002 22478.86032841  1646.80138569
0.40700002 22477.27560266  1788.29213168
0.40800002 22480.13793901  1792.90348628
0.40900002 22487.28011602  1521.26457193
0.41000002 22499.57537023  1525.80877603
0.41100002 22515.79297655  1530.62367907
0.41200002 22535.36465245  1814.88567828
0.41300002 22560.40489041  1401.00121008
0.41400002 22588.47031112  2390.42498394
0.41500002 22620.38789138  1552.66349843
0.41600002 22655.05733870  2267.31824589
0.41700002 22694.82868224  1992.15215612
0.41800002 22738.17360366  2000.73199019
0.41900002 22783.23571494  1865.94709347
0.42000002 22831.99232798  1730.20846060
0.42100002 22884.59874436  1738.31420299
0.42200002 22939.70296937  1601.07664461
0.42300002 22997.26542671  2486.46445576
0.42400002 23057.47330641  2204.87098941
0.42500002 23120.79522892  1920.64455068
0.42600002 23185.29562973  2079.02555764
0.42700002 23253.34879412  1492.86506332
0.42800002 23322.86902947  1650.90936248
0.42900002 23395.40655013  1509.00379399
0.43000002 23469.61778005  1972.50411980
0.43100002 23544.16930005  1983.36091582
0.43200002 23621.83217392  1994.50949412
0.43300002 23700.30473674  1697.17890262
0.43400002 23780.69908214  2793.04323955
0.43500002 23861.96709758  2652.97362763
0.43600002 23945.13105910  2197.44478143
0.43700002 24028.73143928  1736.55650341
0.43800002 24112.86235286  1746.61526730
0.43900002 24198.93136087  2235.98136371
0.44000002 24285.00995940  1767.09883344
0.44100002 24372.14351447  2746.98442570
0.44200002 24459.56211135  1787.87177726
0.44300002 24547.59509088  1634.86991053
0.44400002 24635.74623615  1644.43613919
0.44500002 24723.64106751  1819.41283238
0.44600002 24811.52461605  2162.69664565
0.44700002 24900.47316123  1840.64306331
0.44800002 24988.06673199  1851.24101157
0.44900002 25076.18904028  2200.43569257
0.45000002 25164.16673570  2042.82715242
0.45100002 25250.85109410  2568.01167797
0.45200002 25337.51494945  1721.68422241
0.45300002 25423.13403966  1904.44706117
0.45400002 25508.28881627  2437.31711191
0.45500002 25592.94222196  2800.89172951
0.45600002 25676.16823100  2288.13184035
0.45700002 25758.81085139  2477.48254510
0.45800002 25839.96163518  2312.80587577
0.45900002 25919.87364174  2146.16563925
0.46000002 25999.03324359  2157.39988080
0.46100002 26076.06266489  2349.19259682
0.46200002 26152.32533330  2361.16280462
0.46300002 26227.03359432  2007.94178715
0.46400002 26299.57769152  1834.39563093
0.46500002 26371.60592414  2212.05040976
0.46600002 26440.84429448  1852.18123061
0.46700002 26508.30919742  2605.23675140
0.46800002 26574.75621519  3178.20812019
0.46900002 26638.48475656  2629.21857009
0.47000002 26700.44863240  3018.21885646
0.47100002 26760.56319860  2463.04235354
0.47200002 26818.64853230  2473.61816462
0.47300002 26874.56216542  2101.85960658
0.47400002 26927.62492616  2494.17137700
0.47500002 26978.95203388  2504.18644648
0.47600002 27028.55718329  2514.06136557
0.47700002 27074.78973938  2135.38876796
