# SAXS profile: number of points = 501, q_min = 0, q_max = 0.5, delta_q = 0.001
#    q    intensity    error
0.00000000 1700912.83420644 433.73277272
0.00100000 1700829.75212125 765.37340663
0.00200000 1700580.44275407 1071.36571286
0.00300000 1700165.13504088 1224.11894084
0.00400000 1699583.69360628 2166.96929169
0.00500000 1698836.63795493 1834.74364161
0.00600000 1697923.87646711 1961.10215716
0.00700000 1696845.95486180 2239.83675351
0.00800000 1695602.71302639 2746.87651108
0.00900000 1694195.43050858 2541.29325440
0.01000000 1692623.43632401 3630.67742769
0.01100000 1690888.02429447 4869.75772199
0.01200000 1688989.13906967 3622.88186215
0.01300000 1686927.94518421 4251.05860936
0.01400000 1684704.52954813 4548.70243143
0.01500000 1682320.15740879 7267.62340362
0.01600000 1679774.38301358 5996.79481544
0.01700000 1677069.48470556 4528.08781183
0.01800000 1674205.36083493 6680.07969032
0.01900000 1671182.71752211 5514.90321667
0.02000000 1668002.71719097 6830.47143588
0.02100000 1664667.45211017 7141.42369333
0.02200000 1661175.40223220 6304.16093788
0.02300000 1657529.83305616 7757.23997180
0.02400000 1653730.37678251 10542.53163270
0.02500000 1649779.54260315 7720.96861200
0.02600000 1645677.32522963 7331.49281923
0.02700000 1641425.82068058 8272.78651513
0.02800000 1637024.97061378 7833.16484361
0.02900000 1632477.40508319 7346.14866017
0.03000000 1627784.35458035 7569.19759672
0.03100000 1622946.23804487 11685.21345160
0.03200000 1617964.60862082 8809.81769970
0.03300000 1612843.16058069 9870.60059779
0.03400000 1607579.98468499 9283.77483991
0.03500000 1602178.52092235 9516.94085375
0.03600000 1596639.97087874 10633.62269747
0.03700000 1590966.12427996 10882.20879335
0.03800000 1585158.70483352 12055.13250817
0.03900000 1579219.45198817 13265.44401102
0.04000000 1573148.55441607 9674.86405798
0.04100000 1566950.07040474 11846.14308152
0.04200000 1560624.61114618 14092.44089244
0.04300000 1554173.27711859 12309.05292614
0.04400000 1547599.53913943 12535.55684921
0.04500000 1540904.85657419 12758.69280527
0.04600000 1534089.13761239 14059.92759982
0.04700000 1527156.83879870 12095.08272580
0.04800000 1520108.24598073 17876.47380449
0.04900000 1512947.41267674 12481.81673558
0.05000000 1505673.70837173 18429.44704866
0.05100000 1498291.88970437 12855.34501252
0.05200000 1490799.98188866 23703.72081665
0.05300000 1483204.55613265 14416.74895769
0.05400000 1475505.15760002 15824.79355323
0.05500000 1467704.65031300 13561.59160153
0.05600000 1459804.05557586 12481.32525760
0.05700000 1451808.52135379 13893.80819790
0.05800000 1443716.72839276 15332.27237143
0.05900000 1435531.88627247 18087.70261183
0.06000000 1427257.59483708 16977.22988374
0.06100000 1418895.01421121 22432.73122299
0.06200000 1410446.61154303 13328.72110211
0.06300000 1401915.13172504 13458.38589381
0.06400000 1393299.88470276 16301.60941340
0.06500000 1384607.28676398 17819.89661423
0.06600000 1375837.44938730 20740.75051994
0.06700000 1366992.84765614 15337.66046849
0.06800000 1358076.10492040 19678.52368143
0.06900000 1349089.92488023 19831.62282423
0.07000000 1340035.24938860 14271.37607430
0.07100000 1330915.36557810 15811.27528363
0.07200000 1321732.08414602 18814.85709923
0.07300000 1312489.08603356 21852.94430639
0.07400000 1303187.97074872 20525.21150119
0.07500000 1293830.55624239 20649.53664552
0.07600000 1284417.96277947 17802.03379869
0.07700000 1274955.94047832 16408.68372333
0.07800000 1265444.51718918 17994.62187831
0.07900000 1255885.40296704 15070.62554247
0.08000000 1246283.37532550 21199.28120877
0.08100000 1236639.17269248 19773.86129911
0.08200000 1226954.47137069 21385.81743952
0.08300000 1217232.73746729 24539.41313902
0.08400000 1207475.88920710 21553.44563404
0.08500000 1197686.24662409 21630.21462946
0.08600000 1187865.90874483 21702.31117172
0.08700000 1178018.55160169 20214.79929473
0.08800000 1168143.69603290 15594.71907443
0.08900000 1158246.55485993 17199.96214755
0.09000000 1148327.44776578 15674.67039833
0.09100000 1138388.86720798 20422.69723719
0.09200000 1128433.01939247 15741.64136017
0.09300000 1118464.65798447 26809.59911173
0.09400000 1108480.68373600 17375.43553416
0.09500000 1098486.96702006 18981.85568230
0.09600000 1088485.01725272 15837.45774551
0.09700000 1078478.70673312 19024.36528116
0.09800000 1068468.02081256 17453.42594059
0.09900000 1058455.97213965 19052.20839440
0.10000000 1048443.15328012 22237.48032684
0.10100000 1038432.20066259 17476.81475912
0.10200000 1028426.20380033 25422.69695373
0.10300000 1018425.97071676 25419.91342486
0.10400000 1008435.20675590 17471.14077898
0.10500000 998456.19084052 22225.63585381
0.10600001 988485.90014836 17451.71938828
0.10700001 978532.83503940 15852.23267361
0.10800001 968594.51347133 22171.12945677
0.10900001 958675.42939402 18981.77439539
0.11000001 948775.43145035 20536.24518037
0.11100001 938897.61792795 25237.56915792
0.11200001 929042.92086086 18896.73389991
0.11300001 919213.63477473 20434.12006310
0.11400001 909411.76511830 20393.55979300
0.11500001 899639.45373786 15653.72723214
0.11600001 889897.04350388 18741.23261874
0.11700001 880187.89719079 18695.19181678
0.11800001 870510.86185791 15538.61961601
0.11900001 860869.21413828 15495.64658436
0.12000001 851263.76815499 18540.52574377
0.12100001 841699.56226317 18483.72325803
0.12200001 832173.66185150 19959.68621983
0.12300001 822690.90713377 21422.87223109
0.12400001 813249.48048319 18298.11417303
0.12500001 803852.25847986 19750.65092151
0.12600001 794502.59871756 22702.91282819
0.12700001 785199.16660385 21106.15459297
0.12800001 775944.01554343 19518.87263090
0.12900001 766739.14252048 20931.97957738
0.13000001 757585.70290845 25307.15159851
0.13100001 748483.10349867 17783.95937742
0.13200001 739435.25444382 16226.90742371
0.13300001 730441.80518294 23491.00956212
0.13400001 721503.25354657 18993.57404508
0.13500001 712622.73299766 20352.50621400
0.13600001 703799.76778136 15909.39450084
0.13700001 695035.97753103 20142.14357862
0.13800001 686330.45439905 15740.98971392
0.13900001 677687.71904266 19924.01987943
0.14000001 669105.52748560 16981.89908846
0.14100001 660587.41187524 14070.51253655
0.14200001 652131.84960278 15387.05171711
0.14300001 643742.04508070 15295.31171256
0.14400001 635414.31342231 15202.28816572
0.14500001 627155.33218240 16481.64290723
0.14600001 618962.09465984 13648.11483109
0.14700001 610837.55610145 13560.59438519
0.14800001 602779.00352201 14819.32250074
0.14900001 594789.80579701 20074.15689276
0.15000001 586869.45907372 14621.85326272
0.15100001 579019.18254019 17162.12938029
0.15200001 571240.17021754 13109.96252511
0.15300001 563532.10352140 16922.86986732
0.15400001 555893.14415050 14216.96783256
0.15500001 548327.75472492 17963.21809253
0.15600001 540832.69966369 15283.93281382
0.15700001 533413.12199122 18962.83738177
0.15800001 526063.00815922 13801.26367046
0.15900001 518788.43047810 13696.01521108
0.16000001 511584.83938855 17296.68423617
0.16100001 504457.40560273 17161.64174871
0.16200001 497403.04955906 13377.65564940
0.16300001 490422.61384840 13270.83655723
0.16400001 483516.97522020 14360.45484199
0.16500001 476684.84837180 16617.23459876
0.16600001 469928.07992710 16480.37854113
0.16700001 463244.55183154 12841.13958306
0.16800001 456636.07733943 12733.29761783
0.16900001 450103.70619248 12625.40955485
0.17000001 443644.38844942 12517.42701117
0.17100001 437260.33415727 13537.58058477
0.17200001 430950.29991348 14538.10905411
0.17300001 424715.20042414 13302.08070547
0.17400001 418554.94664222 12085.77465506
0.17500001 412468.02570003 17422.65022840
0.17600001 406454.13389869 10791.35776468
0.17700001 400517.13526734 11763.18881838
0.17800001 394651.74022159 11656.03969798
0.17900001 388859.54301595 12599.04978882
0.18000001 383142.45857197 16643.70918653
0.18100001 377498.40411768 14427.98968691
0.18200001 371924.97984249 16334.94588631
0.18300001 366424.93537876 17192.65878014
0.18400001 360996.77021245 12021.19301596
0.18500001 355641.00746721 11906.86149251
0.18600001 350356.84119987 13758.51380392
0.18700001 345142.59600588 10706.32383392
0.18800001 339997.88895333 10602.83466795
0.18900001 334927.00887855 10499.96222444
0.19000001 329921.71931294 13233.16078689
0.19100001 324988.58729520 12167.57328325
0.19200001 320122.40815525 9267.54415400
0.19300001 315326.92340300 9176.01390462
0.19400001 310597.37927042 9084.97377296
0.19500001 305935.92022617 9893.96812766
0.19600001 301340.19828164 8904.60328002
0.19700001 296812.89491046 9696.87773498
0.19800001 292349.97188125 9599.31178037
0.19900001 287952.73261354 11230.15710266
0.20000001 283618.74701900 14536.87956549
0.20100001 279350.52751044 10157.18566033
0.20200001 275144.22478816 11729.39885709
0.20300001 271001.72530426 9121.91850489
0.20400001 266921.40572662 10670.18369826
0.20500001 262902.33130950 8936.05066359
0.20600001 258943.97530614 12864.33730128
0.20700001 255046.18163454 8753.18536745
0.20800001 251207.67959993 8662.89724050
0.20900001 247430.72238233 10132.28856052
0.21000001 243708.95132142 8484.72754135
0.21100001 240046.76264091 10686.88237798
0.21200001 236440.30310114 8309.69484533
0.21300001 232890.31498621 8223.35741093
0.21400001 229396.47375420 10357.25127966
0.21500001 225958.47078362 8053.16027946
0.21600001 222573.33728277 11591.61995372
0.21700001 219242.49266282 7886.15283394
0.21800001 215964.81346244 7803.88890344
0.21900001 212738.20583562 10530.54168676
0.22000001 209562.96375994 8336.41509254
0.22100001 206439.99020009 6874.45199871
0.22200001 203366.72866543 8843.40261417
0.22300001 200342.40260890 10770.40807354
0.22400001 197366.15396474 6661.10801129
0.22500001 194440.30433604 8568.98461729
0.22600001 191559.52380326 7174.86230334
0.22700001 188726.64804975 7745.34200223
0.22800001 185938.80169224 8303.09758222
0.22900001 183196.07206256 8216.34422056
0.23000001 180498.30180803 6254.26645342
0.23100001 177845.42254758 6807.92309709
0.23200001 175234.02534311 7961.75831800
0.23300001 172666.19705926 6060.58380341
0.23400001 170138.90535201 6597.13636704
0.23500001 167652.94716066 10089.35483732
0.23600001 165207.84236264 5873.13907377
0.23700001 162802.31389384 6974.45145709
0.23800001 160435.55929726 5751.61507285
0.23900001 158107.44198253 7399.42863477
0.24000001 155816.50373399 6759.32025170
0.24100001 153563.86369537 6131.80536740
0.24200001 151347.58666919 7723.26771305
0.24300001 149166.55345900 6005.44572633
0.24400001 147020.60232243 5943.30813002
0.24500001 144908.93352404 6416.56787998
0.24600001 142831.24163558 6879.46707881
0.24700001 140787.78886767 7332.22839109
0.24800001 138776.51445124 6219.96367195
0.24900001 136796.14412281 8207.76903566
0.25000001 134848.57729110 5584.75409272
0.25100001 132931.12401445 6532.23574310
0.25200001 131046.00611862 5470.51578423
0.25300001 129188.76209434 5414.30127553
0.25400001 127361.90545486 5358.75242554
0.25500001 125562.05973330 5785.89998625
0.25600001 123791.91267059 6203.83199701
0.25700001 122048.34962994 5195.59848957
0.25800001 120331.77732825 6077.35670151
0.25900001 118642.82597690 7403.31269124
0.26000001 116978.82877472 5037.69349954
0.26100001 115340.22609617 6799.30665009
0.26200001 113727.62186661 6281.17685290
0.26300001 112138.31635536 5772.88079913
0.26400001 110573.88946189 6153.43723972
0.26500001 109032.98765235 5655.54133714
0.26600001 107514.84243061 4736.56660741
0.26700001 106019.60283446 4688.18705919
0.26800001 104547.07314374 6327.71190146
0.26900001 103095.33555381 6263.04193127
0.27000001 101665.60661987 6199.06065700
0.27100001 100256.70614488 5317.61594557
0.27200001 98868.99735748  6477.89701342
0.27300001 97501.23347628  4007.30088552
0.27400001 96151.73631976  4759.51117307
0.27500001 94823.97704622  5495.99796970
0.27600001 93512.86426825  4274.00566365
0.27700001 92222.45390800  4999.37946296
0.27800001 90949.10388202  4948.08623088
0.27900001 89694.27211518  4520.59152855
0.28000001 88456.53425226  3728.44309519
0.28100001 87236.41356672  5166.14065593
0.28200001 86033.83051564  4382.56353389
0.28300001 84847.69674756  6867.57289979
0.28400001 83677.29725647  4650.36601513
0.28500001 82523.79975648  4248.32541254
0.28600001 81385.69441068  6306.57775839
0.28700001 80263.92966446  3814.14211819
0.28800001 79155.74383870  4460.82215517
0.28900001 78064.62205582  5433.29795226
0.29000001 76987.21293639  4032.59040449
0.29100001 75924.93283877  4655.71710205
0.29200001 74876.59631196  4607.15718916
0.29300001 73842.69684227  4884.69462734
0.29400001 72821.96244868  3544.60918998
0.29500001 71816.10867404  3188.63537607
0.29600001 70822.44304676  4732.70998063
0.29700001 69842.55990401  3434.15883305
0.29800001 68875.99640240  3089.08858488
0.29900001 67922.65099964  3362.17138364
0.30000001 66980.92911213  3931.44582035
0.30100001 66053.04110880  3291.42319427
0.30200001 65136.30101919  3552.53402577
0.30300001 64232.78786568  4393.52289801
0.30400001 63340.98500979  2897.85020139
0.30500001 62461.71494215  3153.69213673
0.30600001 61592.78271106  4538.15644500
0.30700001 60736.60253185  3647.84052076
0.30800001 59891.69550824  3053.57824006
0.30900001 59058.38903941  2746.21522035
0.31000001 58236.33606645  3260.07024735
0.31100001 57424.95350400  2687.48795123
0.31200001 56625.47420335  2658.56613972
0.31300001 55836.16637409  2892.87191681
0.31400001 55059.13656041  3121.85319078
0.31500001 54291.16266733  3602.76172518
0.31600002 53535.54026364  2800.17656607
0.31700002 52789.61546355  2518.06477684
0.31800002 52054.01671398  3487.09874478
0.31900002 51329.56864932  2463.81941183
0.32000002 50615.76799500  2924.57921323
0.32100002 49911.41453937  4580.37072916
0.32200002 49218.47709602  3576.95299232
0.32300002 48534.17289445  4953.39792015
0.32400002 47861.20748272  2333.23397526
0.32500002 47197.67641049  2769.55978291
0.32600002 46544.31417450  2739.59846204
0.32700002 45901.25402126  3161.67852670
0.32800002 45268.73458778  2904.21580500
0.32900002 44644.25150657  2209.89055422
0.33000002 44030.89013512  2186.13379873
0.33100002 43426.25214386  2162.62745917
0.33200002 42832.80912506  2353.44880882
0.33300002 42248.18498670  3386.61466891
0.33400002 41673.72383885  2722.33613869
0.33500002 41108.68170262  2279.06542152
0.33600002 40552.79788333  2869.92164211
0.33700002 40006.34494840  2231.15396343
0.33800002 39470.30660187  3412.01081578
0.33900002 38942.86211644  3177.73769919
0.34000002 38424.90066803  2555.06389092
0.34100002 37916.53182787  2139.62999238
0.34200002 37418.17417355  2695.23121336
0.34300002 36928.22618193  1905.49656123
0.34400002 36448.44078140  2263.44827972
0.34500002 35977.47982051  2053.95442023
0.34600002 35516.41068632  2588.08096929
0.34700002 35063.25047762  2562.42246626
0.34800002 34620.27709399  1993.60875088
0.34900002 34185.75814069  1974.22762613
0.35000002 33760.90954202  2488.51676020
0.35100002 33345.62207358  2464.90850042
0.35200002 32937.88509090  2616.09164725
0.35300002 32540.37075537  2419.05127653
0.35400002 32151.00806270  1883.24538647
0.35500002 31771.16594287  1696.58034171
0.35600002 31399.78021327  2185.89580308
0.35700002 31037.05402131  1833.35886788
0.35800002 30683.60281010  2313.23692542
0.35900002 30339.21619272  1802.14952721
0.36000002 30003.31527919  1787.14755925
0.36100002 29675.50930960  1611.38023184
0.36200002 29357.81252638  1758.38626456
0.36300002 29047.19286118  2061.76984695
0.36400002 28745.71523149  1731.21078182
0.36500002 28452.00986391  1562.01541552
0.36600002 28167.48577253  2325.93024784
0.36700002 27890.80152690  2771.23017098
0.36800002 27623.30366427  1681.84492327
0.36900002 27363.78844780  2278.03549619
0.37000002 27111.82778942  2112.28260313
0.37100002 26867.98126864  1499.23342581
0.37200002 26632.96642747  1639.12599642
0.37300002 26405.53995200  1629.48594763
0.37400002 26186.07400369  2504.04344522
0.37500002 25974.52065439  1464.96303430
0.37600002 25770.95334853  2040.28647325
0.37700002 25575.05602943  2175.15861834
0.37800002 25386.57684525  1587.54965822
0.37900002 25206.77281373  1580.46473029
0.38000002 25033.51098926  1430.66522081
0.38100002 24867.13021785  1994.84128058
0.38200002 24709.23752237  1987.36406807
0.38300002 24558.08929829  1556.00061165
0.38400002 24414.25249428  1550.91546317
0.38500002 24277.04922297  1546.20533826
0.38600002 24147.90743392  1962.50053013
0.38700002 24024.68691502  1817.70789810
0.38800002 23908.32855068  1813.56634813
0.38900002 23798.87592017  1670.68116875
0.39000002 23696.63019091  1806.74965450
0.39100002 23600.06830472  1387.68408206
0.39200002 23510.85703146  1385.96508767
0.39300002 23427.12356046  2353.72321563
0.39400002 23351.07874281  1521.90662917
0.39500002 23279.69714769  1935.93970652
0.39600002 23214.79858347  1935.41784960
0.39700002 23155.22670982  1797.07723009
0.39800002 23102.76585560  1797.51078256
0.39900002 23054.88866949  1521.62272428
0.40000002 23013.07631672  1522.66026664
0.40100002 22976.42124375  1662.57391997
0.40200002 22945.67860018  1664.47960452
0.40300002 22919.92218850  1527.84208547
0.40400002 22899.44309066  1808.48360377
0.40500002 22883.49604460  2090.40746272
0.40600002 22873.40652338  1536.06368786
0.40700002 22867.59049909  1819.34558631
0.40800002 22866.29552184  1823.70148575
0.40900002 22869.41342212  1828.40968973
0.41000002 22877.63207013  1833.52790914
0.41100002 22889.88518600  1697.51396583
0.41200002 22905.42501088  1702.78937599
0.41300002 22926.58940165  2562.73428475
0.41400002 22950.80486173  2428.76903957
0.41500002 22978.84590175  1577.26805743
0.41600002 23009.68894102  1439.25611146
0.41700002 23045.63667996  1878.44993479
0.41800002 23085.39187089  2031.28372697
0.41900002 23126.65535698  1602.67729218
0.42000002 23171.78925548  1463.29856082
0.42100002 23220.75529970  1910.83604416
0.42200002 23272.21076844  1919.60839620
0.42300002 23326.16135406  1483.54393242
0.42400002 23382.78801526  2683.17505189
0.42500002 23442.64147755  1797.58183368
0.42600002 23503.61348045  1806.48781771
0.42700002 23568.17717950  2572.23097926
0.42800002 23634.16118369  1977.11584751
0.42900002 23703.16738510  1528.85436879
0.43000002 23774.02019201  1690.68952607
0.43100002 23845.13633357  2781.29683375
0.43200002 23919.30088547  2174.98213258
0.43300002 23994.39348991  1562.03509021
0.43400002 24071.43958227  2041.85995933
0.43500002 24149.27940273  2526.98071645
0.43600002 24229.07471539  1905.85910743
0.43700002 24309.27900303  1756.83167680
0.43800002 24390.08274088  2087.91313198
0.43900002 24472.76952182  2422.80429748
0.44000002 24555.50983496  2274.08587358
0.44100002 24639.28337937  1633.58456547
0.44200002 24723.37654919  2792.87636423
0.44300002 24808.02432753  2643.54319762
0.44400002 24892.84621376  1827.75731986
0.44500002 24977.38372537  1670.98705042
0.44600002 25061.91380126  2016.48168001
0.44700002 25147.57514408  2196.89226870
0.44800002 25231.79587274  2209.16999233
0.44900002 25316.61807781  1708.87180124
0.45000002 25401.27734128  2405.75509101
0.45100002 25484.64863650  2419.00296322
0.45200002 25567.97838769  2084.81305654
0.45300002 25650.14847179  2270.80775183
0.45400002 25731.99775476  2107.45071599
0.45500002 25813.35231714  2295.32339682
0.45600002 25893.15735145  2484.96642879
0.45700002 25972.50780935  1962.74250817
0.45800002 26050.25706813  2331.62836939
0.45900002 26126.77424913  2343.57176122
0.46000002 26202.56801221  1811.90766392
0.46100002 26276.17047877  2003.03257053
0.46200002 26349.03952454  2195.92905805
0.46300002 26420.39643888  2206.63161516
0.46400002 26489.52924413  2032.40922758
0.46500002 26558.14371211  2970.26293354
0.46600002 26623.99874238  1865.01120030
0.46700002 26688.00620003  1873.49812404
0.46800002 26751.05167018  2446.51754645
0.46900002 26811.24487187  2457.25070897
0.47000002 26869.80554160  2847.52777723
0.47100002 26926.48038886  2478.31337245
0.47200002 26981.14462527  2105.74353209
0.47300002 27033.62536333  1922.09085443
0.47400002 27083.16339807  2122.64303193
0.47500002 27131.02612340  2130.87089273
0.47600002 27177.16411728  2333.43142171
0.47700002 27219.84514472  2537.16188620
