# SAXS profile: number of points = 501, q_min = 0, q_max = 0.5, delta_q = 0.001
#    q    intensity    error
0.00000000 1682732.95097187 277.65093691
0.00100000 1682650.32332535 504.79510899
0.00200000 1682402.36806410 908.49730752
0.00300000 1681989.32350780 1311.95171907
0.00400000 1681411.05270823 1513.27000494
0.00500000 1680668.06045575 1512.60131428
0.00600000 1679760.27184767 1763.74835725
0.00700000 1678688.23075743 2417.31115275
0.00800000 1677451.77318546 2943.92798623
0.00900000 1676052.16595081 2514.07835640
0.01000000 1674488.75697930 3591.77853881
0.01100000 1672762.83336200 3312.07055426
0.01200000 1670874.32934068 4235.66661059
0.01300000 1668824.38897967 5256.79705714
0.01400000 1666613.14424229 3749.87974078
0.01500000 1664241.82377562 4393.59861041
0.01600000 1661710.04153168 5084.83295440
0.01700000 1659020.00416440 5375.22505462
0.01800000 1656171.58806622 7552.14278141
0.01900000 1653165.52532366 5455.44647973
0.02000000 1650003.06926144 8316.01584526
0.02100000 1646686.15016008 7064.28390447
0.02200000 1643213.34662119 6802.90356408
0.02300000 1639587.91259318 5902.51675401
0.02400000 1635809.45972890 6134.28575369
0.02500000 1631880.49737275 6364.33423042
0.02600000 1627801.02694151 7251.85390671
0.02700000 1623573.16835234 7500.90838134
0.02800000 1619196.76279569 8452.20748941
0.02900000 1614674.51644974 7992.63922340
0.03000000 1610007.59898160 9732.49638320
0.03100000 1605196.58139794 10786.92152333
0.03200000 1600242.73759008 11089.68268227
0.03300000 1595149.96969937 10575.84478666
0.03400000 1589916.45548397 8347.06177643
0.03500000 1584545.30551745 10267.85405390
0.03600000 1579037.98550695 8763.66122457
0.03700000 1573396.17153948 10762.03031105
0.03800000 1567621.64801483 11004.70447836
0.03900000 1561716.06544942 14992.47492262
0.04000000 1555679.69968383 9567.43059640
0.04100000 1549516.48410168 9761.95430247
0.04200000 1543227.11508685 17916.86763737
0.04300000 1536812.64071773 11157.26028951
0.04400000 1530276.59125785 13428.17771192
0.04500000 1523620.45528275 10512.98162994
0.04600000 1516844.08034613 16040.62689534
0.04700000 1509951.72397721 11958.81821008
0.04800000 1502944.00612803 13255.96675082
0.04900000 1495824.75259635 12340.55478334
0.05000000 1488593.35057881 11387.73966221
0.05100000 1481254.65754935 13864.54424053
0.05200000 1473806.61292946 17575.14467821
0.05300000 1466255.76670154 14252.00671674
0.05400000 1458601.74149051 15643.50440700
0.05500000 1450847.31191037 14624.54158628
0.05600000 1442993.46309306 13571.35415369
0.05700000 1435045.39719947 17478.85375378
0.05800000 1427001.99252983 20206.34915771
0.05900000 1418866.00054873 19154.69190204
0.06000000 1410641.39596182 15488.84325128
0.06100000 1402329.04826787 16954.15898585
0.06200000 1393931.62464031 19758.98170288
0.06300000 1385451.94690442 21280.54289943
0.06400000 1376889.11653333 17452.07036824
0.06500000 1368249.48203952 14900.23755641
0.06600000 1359533.44625193 15029.64295153
0.06700000 1350742.97170895 15155.33685183
0.06800000 1341881.26083364 13888.47169973
0.06900000 1332950.72026466 18194.77818347
0.07000000 1323952.40016271 19740.13121083
0.07100000 1314889.38070413 14200.80597674
0.07200000 1305763.68900684 15727.92437089
0.07300000 1296578.83901489 15831.22836615
0.07400000 1287336.42978472 21723.80327068
0.07500000 1278038.26355436 20397.49164241
0.07600000 1268685.68199059 21979.98047092
0.07700000 1259284.11029923 17680.34973761
0.07800000 1249833.73931882 16291.58355603
0.07900000 1240336.20721569 16372.43870318
0.08000000 1230796.41579368 25422.10116080
0.08100000 1221214.83292247 15020.94314970
0.08200000 1211593.39425557 16592.77231295
0.08300000 1201935.52605282 24231.02134244
0.08400000 1192242.87454501 18241.31683676
0.08500000 1182518.25038406 18305.38337529
0.08600000 1172763.27057744 21426.38595945
0.08700000 1162981.64398741 33772.98852730
0.08800000 1153172.98318463 15394.86004852
0.08900000 1143342.86030528 23152.69400866
0.09000000 1133490.93774066 18566.58243237
0.09100000 1123620.15956603 23258.93839575
0.09200000 1113732.41211419 20197.53824271
0.09300000 1103832.88369239 18676.85326974
0.09400000 1093917.88492250 23382.49588914
0.09500000 1083993.76739842 21853.31537792
0.09600000 1074061.71437447 17190.35854664
0.09700000 1064125.64518021 15642.64771955
0.09800000 1054185.75963184 18785.59111989
0.09900000 1044244.94232808 25061.87979435
0.10000000 1034303.62361532 15669.70063467
0.10100000 1024364.62883186 25076.44729319
0.10200000 1014431.01498889 21942.14388629
0.10300000 1004503.51073086 20371.33215590
0.10400000 994585.71788063 15664.72579357
0.10500000 984679.91785944 21918.97600282
0.10600001 974783.60388562 21903.38860994
0.10700001 964904.36235194 18757.74168682
0.10800001 955040.57569279 26545.35405065
0.10900001 945196.17884739 15595.73768501
0.11000001 935371.10321320 18688.71552187
0.11100001 925568.29740412 23324.32219254
0.11200001 915789.32307013 17074.89273248
0.11300001 906035.77437213 17042.53371832
0.11400001 896310.06249830 23192.02395913
0.11500001 886613.77712044 18512.49653799
0.11600001 876948.19532334 15390.44155268
0.11700001 867315.79166211 21492.08632956
0.11800001 857715.87034951 16841.25190751
0.11900001 848151.57844384 15266.72913108
0.12000001 838623.58600133 16743.12068320
0.12100001 829137.03289999 15173.20841685
0.12200001 819689.17763507 18147.91924781
0.12300001 810284.29282605 21099.80397930
0.12400001 800921.20567230 15017.27331393
0.12500001 791602.43504984 20945.80141839
0.12600001 782331.25865538 16393.75229765
0.12700001 773106.59933504 16328.01214744
0.12800001 763930.43401835 25129.49281137
0.12900001 754804.40987909 17662.42402364
0.13000001 745730.22833284 16118.95964518
0.13100001 736707.05172820 21880.20046771
0.13200001 727738.23424985 17422.05414922
0.13300001 718824.30805993 15893.20620046
0.13400001 709965.42879058 14376.80061081
0.13500001 701164.52528840 15734.13268931
0.13600001 692421.30962848 14229.25858379
0.13700001 683737.30222639 16984.03538816
0.13800001 675111.77183570 15483.68921720
0.13900001 666548.70292704 16797.02810588
0.14000001 658046.53596608 19484.75884887
0.14100001 649608.19627429 17987.65180319
0.14200001 641232.74723555 20631.66461540
0.14300001 632922.89579497 17772.47575221
0.14400001 624675.21042245 14945.35511433
0.14500001 616496.16663783 18901.77336075
0.14600001 608382.99640885 13414.84570365
0.14700001 600338.51042097 18658.52178413
0.14800001 592359.66188778 29126.32594916
0.14900001 584450.53433474 13150.13764297
0.15000001 576610.14823458 13060.22047373
0.15100001 568839.46606928 14266.49448218
0.15200001 561140.29989206 14165.98753923
0.15300001 553511.74034772 12786.12180540
0.15400001 545952.62616747 13962.73907315
0.15500001 538466.76138872 17640.17193559
0.15600001 531051.12254217 13756.87997871
0.15700001 523710.98466125 19859.12147564
0.15800001 516440.12374097 13548.80728583
0.15900001 509244.71299475 14666.24842650
0.16000001 502120.18885917 13338.82344667
0.16100001 495071.70362579 13233.26726258
0.16200001 488096.13861573 14320.74138301
0.16300001 481194.43801948 11837.38373410
0.16400001 474367.21590323 23481.17829575
0.16500001 467613.44051320 11643.57521849
0.16600001 460934.75519630 11546.41616281
0.16700001 454329.46976779 12594.01349659
0.16800001 447798.86057836 17027.55247747
0.16900001 441344.01715153 15755.98215628
0.17000001 434962.03921134 12272.45451585
0.17100001 428655.27010270 13271.16778906
0.17200001 422422.55276893 12058.05233821
0.17300001 416264.12669136 10864.49421971
0.17400001 410180.75157840 15074.14333240
0.17500001 404170.20078588 12804.11256560
0.17600001 398232.53071025 11630.38160869
0.17700001 392371.36088334 10476.31583039
0.17800001 386581.82138870 11417.69463400
0.17900001 380865.25800930 10283.36245197
0.18000001 375223.13098154 12224.77018482
0.18100001 369654.16822864 10091.55926933
0.18200001 364155.56636650 15993.71323033
0.18300001 358729.93808006 10891.04143460
0.18400001 353376.09196148 13728.66182126
0.18500001 348094.08687350 12625.37312735
0.18600001 342883.46199410 10579.66971965
0.18700001 337742.87208449 11429.21933131
0.18800001 332671.24402228 11317.47625635
0.18900001 327672.96250107 12140.28383426
0.19000001 322740.18135890 11095.80795938
0.19100001 317879.20074478 12816.88997963
0.19200001 313084.99721104 12689.33553655
0.19300001 308360.84999330 15254.61196999
0.19400001 303702.49439725 13324.94757133
0.19500001 299111.82900447 9673.27700712
0.19600001 294586.70071373 8705.03741746
0.19700001 290129.48616296 11201.89999013
0.19800001 285736.40842231 11940.92507228
0.19900001 281408.58588036 9286.48377293
0.20000001 277143.78237820 10027.06252033
0.20100001 272944.25455259 10751.27469496
0.20200001 268806.59301724 13096.25783077
0.20300001 264731.92459798 8910.87700314
0.20400001 260719.49773698 10422.26241465
0.20500001 256767.65915853 13488.00577313
0.20600001 252876.11050046 12562.88576349
0.20700001 249045.01464824 7770.20482432
0.20800001 245272.74952892 12302.88169793
0.20900001 241561.50503683 10652.86287570
0.21000001 237905.24366875 9788.61171348
0.21100001 234307.97142335 10431.39138089
0.21200001 230765.97094747 7372.97312033
0.21300001 227280.27114741 8754.83645849
0.21400001 223850.17761030 7941.08542615
0.21500001 220475.76193333 7857.75652680
0.21600001 217153.50628427 7775.18166011
0.21700001 213885.29028395 7693.45425526
0.21800001 210669.64519986 8996.64762363
0.21900001 207505.04494131 9586.73352956
0.22000001 204390.97337423 10163.34163158
0.22100001 201328.96468112 7374.68032497
0.22200001 198316.22027566 8623.78124646
0.22300001 195351.83502700 7220.20416401
0.22400001 192435.29095002 9742.03706501
0.22500001 189568.58409441 7711.65036562
0.22600001 186746.61060956 8902.21134873
0.22700001 183971.95676222 8179.39358444
0.22800001 181242.15926248 6225.66846508
0.22900001 178556.71408991 6776.22762017
0.23000001 175915.95976020 7314.58595275
0.23100001 173319.72274578 8444.13729152
0.23200001 170764.37443867 5968.21516889
0.23300001 168252.25376973 6496.21982528
0.23400001 165780.34196156 5843.75733053
0.23500001 163349.07902649 6939.06920524
0.23600001 160958.23894093 7438.68536448
0.23700001 158606.67400569 7360.93608876
0.23800001 156293.39614806 7284.05407201
0.23900001 154018.25234103 6099.12308119
0.24000001 151779.91206077 7132.89730468
0.24100001 149579.29977770 6515.67460652
0.24200001 147414.65797161 6985.24389840
0.24300001 145284.70438632 7976.13064810
0.24400001 143189.55789297 7893.32475223
0.24500001 141128.16732672 6249.15554484
0.24600001 139100.41835324 7215.13904130
0.24700001 137106.17935361 5100.35011323
0.24800001 135143.82404564 5047.62206689
0.24900001 133211.88152200 4995.44579340
0.25000001 131312.47012928 5438.30620768
0.25100001 129442.41393552 6360.80052171
0.25200001 127604.29309980 5811.09978269
0.25300001 125793.85072423 5272.02053327
0.25400001 124013.15106362 6166.55422839
0.25500001 122259.06642712 4694.74837292
0.25600001 120534.12782011 5111.24993204
0.25700001 118835.30519557 5518.71183439
0.25800001 117163.17371335 6372.50531978
0.25900001 115518.06291253 4955.72513343
0.26000001 113897.52670280 6242.72373396
0.26100001 112301.81619674 4854.80774390
0.26200001 110731.90043120 4368.37367871
0.26300001 109184.55244678 5620.82102592
0.26400001 107661.90333633 4279.56086012
0.26500001 106162.19297748 6777.39472038
0.26600001 104684.72698640 4192.62351420
0.26700001 103229.81612956 4979.80656574
0.26800001 101797.10471158 6572.02139117
0.26900001 100384.84115777 4878.70351114
0.27000001 98994.17341511  4426.52467373
0.27100001 97623.72170139  3983.04803391
0.27200001 96274.13002673  5519.39613563
0.27300001 94943.95439125  5853.29506522
0.27400001 93631.74644310  4248.54069592
0.27500001 92340.71460679  4205.19634221
0.27600001 91065.95104742  3783.79044509
0.27700001 89811.42321108  4119.65017766
0.27800001 88573.63024078  4818.84858131
0.27900001 87353.80476434  5136.40396324
0.28000001 86150.77681805  3994.38095622
0.28100001 84964.83267612  3953.41385153
0.28200001 83796.11561436  4268.57433143
0.28300001 82643.33988207  3872.66709017
0.28400001 81505.85528198  5575.00076516
0.28500001 80384.82211984  3448.50903216
0.28600001 79278.88528030  4095.54740743
0.28700001 78188.84969015  3715.53431314
0.28800001 77111.98718393  3677.08528291
0.28900001 76051.69135835  3969.89847682
0.29000001 75004.77849694  3601.35461000
0.29100001 73972.62896254  4860.00195289
0.29200001 72954.00289715  3206.32857910
0.29300001 71949.36293446  4124.85717229
0.29400001 70957.50394123  3767.84363764
0.29500001 69980.17878969  5282.10414509
0.29600001 69014.58743612  3382.06001741
0.29700001 68062.54753713  3346.63562082
0.29800001 67123.30172230  3311.52824723
0.29900001 66196.92841288  3276.74811156
0.30000001 65281.82707058  2947.47463177
0.30100001 64380.09852593  3499.70232155
0.30200001 63489.25234940  3751.26265265
0.30300001 62611.17483632  5139.12547386
0.30400001 61744.47959865  2824.81007537
0.30500001 60889.88242476  3074.33030917
0.30600001 60045.39443586  4424.14487149
0.30700001 59213.30380273  3009.22024172
0.30800001 58392.00829405  3789.05759759
0.30900001 57582.00164569  2677.56320329
0.31000001 56782.86944882  3708.48937928
0.31100001 55994.12657459  4716.94544597
0.31200001 55216.91216625  3629.40780852
0.31300001 54449.51495104  3077.48673074
0.31400001 53694.13040209  2790.75255978
0.31500001 52947.57406714  4015.54420738
0.31600002 52212.83321264  3227.53643786
0.31700002 51487.46443514  2947.14260381
0.31800002 50772.20154872  2915.33995096
0.31900002 50067.71884796  2403.25061849
0.32000002 49373.41911729  2852.79629168
0.32100002 48688.47397805  3292.31476629
0.32200002 48014.56337462  3024.19741735
0.32300002 47348.86117019  2761.38571420
0.32400002 46694.29514550  2276.34699613
0.32500002 46048.99696792  2702.15527003
0.32600002 45413.45831497  2227.53023583
0.32700002 44787.80581189  2864.62819538
0.32800002 44172.61553576  2397.91054791
0.32900002 43564.96704097  2803.40576184
0.33000002 42968.25910886  2133.37416578
0.33100002 42379.98777532  2532.62818938
0.33200002 41802.69972639  2923.26293030
0.33300002 41233.91395103  2478.98302413
0.33400002 40675.04953322  3065.88200375
0.33500002 40125.17010625  2831.23213677
0.33600002 39584.28806711  3001.47878483
0.33700002 39052.67389379  2969.95599027
0.33800002 38531.05531749  1959.30425568
0.33900002 38017.84103976  2132.80098334
0.34000002 37513.91727574  2302.60435143
0.34100002 37019.27737017  2468.81572474
0.34200002 36534.43133349  2443.60555547
0.34300002 36057.86606396  2046.64457472
0.34400002 35591.01345945  2394.38554388
0.34500002 35132.87741007  1823.39642394
0.34600002 34684.26872959  2346.91115474
0.34700002 34243.46932594  1787.50918347
0.34800002 33812.53806877  1947.09509691
0.34900002 33390.02372830  1928.27396164
0.35000002 32976.78421300  2257.09610236
0.35100002 32572.94539966  3095.73287741
0.35200002 32176.45521301  2214.86639949
0.35300002 31789.93631024  1856.85026783
0.35400002 31411.59381232  2174.46768465
0.35500002 31042.30579157  2320.72289090
0.35600002 30681.25775288  2957.36657487
0.35700002 30328.86232003  2117.25797884
0.35800002 29985.36539245  3229.42400573
0.35900002 29650.97469174  1761.26798011
0.36000002 29324.71363256  1587.93331842
0.36100002 29006.38497982  1732.55145691
0.36200002 28697.89487717  2187.64063011
0.36300002 28396.53472883  1705.49595660
0.36400002 28104.02424149  1692.56494012
0.36500002 27819.10314072  2443.63013563
0.36600002 27543.22356650  1667.87998207
0.36700002 27275.05909749  2408.93333360
0.36800002 27015.79067522  1495.32408471
0.36900002 26764.45487042  1633.97004724
0.37000002 26520.50354182  1623.45270121
0.37100002 26284.56068232  1466.67855555
0.37200002 26057.29377429  1895.27735245
0.37300002 25837.41966968  2029.27103698
0.37400002 25625.25973812  2017.98929997
0.37500002 25421.04438893  1863.87106289
0.37600002 25224.68580063  1854.39286448
0.37700002 25035.73098399  1703.43121685
0.37800002 24854.24498270  1412.96389420
0.37900002 24681.16214792  1828.87420180
0.38000002 24514.48821287  1681.20368128
0.38100002 24354.61368503  1674.62331631
0.38200002 24203.16122848  1946.66034983
0.38300002 24058.17255749  1801.47604645
0.38400002 23920.62405747  1381.41610476
0.38500002 23789.42675013  1652.88944890
0.38600002 23666.21341350  1923.35325523
0.38700002 23548.85780030  1918.76102447
0.38800002 23438.29310579  1777.91180777
0.38900002 23334.47494112  1365.06684873
0.39000002 23237.78269388  1499.18562152
0.39100002 23146.67217146  1497.12682698
0.39200002 23062.66800065  2039.31651457
0.39300002 22984.30887299  1765.88453437
0.39400002 22913.34468565  1357.61573694
0.39500002 22847.13661276  1628.54397491
0.39600002 22787.23515065  2442.56385152
0.39700002 22732.62272534  2035.70646150
0.39800002 22685.00418626  1900.77659082
0.39900002 22641.88497112  1901.91842768
0.40000002 22604.83136621  1495.64873821
0.40100002 22572.71854968  1633.36199164
0.40200002 22546.53091859  2044.40678791
0.40300002 22525.29378913  1774.54272879
0.40400002 22509.18719432  1777.66314290
0.40500002 22497.66827679  1507.11886927
0.40600002 22491.86847418  1647.75436249
0.40700002 22490.30242308  1514.04723086
0.40800002 22493.23561343  1517.95607730
0.40900002 22500.38744010  2214.03822901
0.41000002 22512.68026230  1526.69748433
0.41100002 22528.95121910  1392.28925131
0.41200002 22548.51051771  1396.88029276
0.41300002 22573.55764148  1541.99979555
0.41400002 22601.63598685  1969.73266959
0.41500002 22633.56534958  1836.03490816
0.41600002 22668.20913078  1701.47585798
0.41700002 22707.96928037  1708.54768961
0.41800002 22751.34396922  1572.91423984
0.41900002 22796.34084632  1867.02040378
0.42000002 22845.03867159  1442.66426047
0.42100002 22897.62803408  1449.41992324
0.42200002 22952.72884443  1601.98578561
0.42300002 23010.17897250  1463.44745200
0.42400002 23070.34890229  1764.88177466
0.42500002 23133.61140600  1773.88540667
0.42600002 23198.06969005  1634.42007746
0.42700002 23266.06161397  1643.04934904
0.42800002 23335.49440909  1651.80305002
0.42900002 23407.97133233  1660.79564473
0.43000002 23482.06668482  1821.73881974
0.43100002 23556.56454380  1526.46545477
0.43200002 23634.08866844  2302.55119764
0.43300002 23712.44090828  1852.41597154
0.43400002 23792.77566863  2328.71802892
0.43500002 23873.86168645  2498.16100525
0.43600002 23956.90686521  1727.41285138
0.43700002 24040.36718225  2053.28785834
0.43800002 24124.41171120  1906.31110376
0.43900002 24210.33521314  1917.45863975
0.44000002 24296.29822529  1607.20020377
0.44100002 24383.25977707  2424.91529975
0.44200002 24470.54330843  1788.67444790
0.44300002 24558.44091387  2289.82913933
0.44400002 24646.39943117  2467.72085999
0.44500002 24734.15929962  2151.12993623
0.44600002 24821.85965745  2662.88923025
0.44700002 24910.66635024  2176.19591549
0.44800002 24998.02623911  2188.70229109
0.44900002 25085.95765925  1693.30222225
0.45000002 25173.79784542  2043.60900594
0.45100002 25260.32250534  3425.29989406
0.45200002 25346.80625113  1722.31556639
0.45300002 25432.21711823  2078.32088140
0.45400002 25517.16076388  2264.01019607
0.45500002 25601.61597193  2101.38073857
0.45600002 25684.60225423  1936.74752477
0.45700002 25767.05552173  2124.23615789
0.45800002 25847.96585128  1779.63253320
0.45900002 25927.66535774  2146.81079337
0.46000002 26006.61870063  1798.35776838
0.46100002 26083.41746450  2349.85519075
0.46200002 26159.44761518  2725.16058447
0.46300002 26233.94687623  3469.17729933
0.46400002 26306.23499199  2018.34597542
0.46500002 26378.03441150  3318.88444696
0.46600002 26447.07077793  2964.18783328
0.46700002 26514.28680296  2047.43332396
0.46800002 26580.51073818  2056.93292096
0.46900002 26643.98852819  2066.24140829
0.47000002 26705.68939464  1886.75704516
0.47100002 26765.56718583  3032.00359452
0.47200002 26823.44817602  2093.43611212
0.47300002 26879.08430936  2484.43388047
0.47400002 26931.86291459  2110.78485598
0.47500002 26982.93238366  2119.23960986
0.47600002 27032.35218794  2514.41435794
0.47700002 27078.28728464  1941.51329033
