# SAXS profile: number of points = 501, q_min = 0, q_max = 0.5, delta_q = 0.001
#    q    intensity    error
0.00000000 1682732.95097188 302.89193117
0.00100000 1682650.53554683 605.75420718
0.00200000 1682403.22407795 908.49776977
0.00300000 1681991.24713745 1816.55061162
0.00400000 1681414.46436792 1261.06089619
0.00500000 1680673.41196187 2722.69103515
0.00600000 1679767.96691756 1940.13208078
0.00700000 1678698.72168455 2014.43854974
0.00800000 1677465.46604632 2943.95201720
0.00900000 1676069.45309277 3016.92514453
0.01000000 1674510.09559395 3039.23595474
0.01100000 1672788.63472812 3312.12164097
0.01200000 1670904.98958644 4235.74433431
0.01300000 1668860.37191145 3855.06762914
0.01400000 1666654.77930697 4124.97076165
0.01500000 1664289.64122424 4393.72484848
0.01600000 1661764.32923533 5084.99907478
0.01700000 1659081.21894528 4927.47144131
0.01800000 1656240.10549312 5192.31296436
0.01900000 1653241.84382004 6447.64348183
0.02000000 1650087.43678131 7796.66349148
0.02100000 1646779.04525706 6521.24531488
0.02200000 1643315.12586191 7370.26867434
0.02300000 1639699.05745080 6493.20856307
0.02400000 1635930.23188508 7361.68637916
0.02500000 1632011.31341781 8910.78217822
0.02600000 1627942.23216223 11208.38278109
0.02700000 1623725.13630267 7501.61047330
0.02800000 1619359.85486355 9157.48039921
0.02900000 1614849.06384334 8720.18534513
0.03000000 1610194.08619296 8236.14312945
0.03100000 1605395.20646096 10788.25628382
0.03200000 1600453.92561031 7922.24729665
0.03300000 1595373.97201705 8950.04839562
0.03400000 1590153.56291637 9183.13724956
0.03500000 1584796.00629315 10269.47859500
0.03600000 1579302.56558186 11394.66853726
0.03700000 1573674.88689920 9866.94199718
0.03800000 1567914.75762992 10089.53193229
0.03900000 1562024.04825860 9372.14472358
0.04000000 1556002.72767699 9569.41721865
0.04100000 1549854.72065616 15622.53630858
0.04200000 1543581.07835800 9956.09841730
0.04300000 1537182.38767070 17247.18719024
0.04400000 1530662.61932380 17564.35437246
0.04500000 1524022.76485030 15773.63634912
0.04600000 1517263.03772978 16045.05736988
0.04700000 1510387.63253833 13049.74975205
0.04800000 1503397.00872887 12154.96538112
0.04900000 1496295.19821511 13466.65741078
0.05000000 1489081.35928967 12530.62022193
0.05100000 1481760.34630813 13869.27748753
0.05200000 1474330.36409117 14065.11232888
0.05300000 1466797.69253066 11881.06186337
0.05400000 1459162.00433186 13241.89580683
0.05500000 1451426.12818067 12191.98004546
0.05600000 1443591.07652995 13576.97470832
0.05700000 1435661.89764594 22482.46636658
0.05800000 1427637.66279212 12634.59390565
0.05900000 1419520.79582155 16608.39408682
0.06000000 1411315.37599904 14204.88992307
0.06100000 1403022.74709344 16962.54580504
0.06200000 1394644.86446158 17133.21296078
0.06300000 1386184.89230418 15968.85070597
0.06400000 1377641.97353623 13432.00987015
0.06500000 1369022.13994132 23040.64369300
0.06600000 1360326.22355539 17772.66294231
0.06700000 1351555.91714716 15164.45810007
0.06800000 1342714.21204111 18066.22056868
0.06900000 1333803.89051840 16805.92980737
0.07000000 1324825.80349954 14109.39546799
0.07100000 1315783.08622202 18473.59539582
0.07200000 1306677.84675708 17169.74771074
0.07300000 1297513.22976737 23043.83604040
0.07400000 1288291.18798714 21739.91481611
0.07500000 1279013.47557064 16038.82973544
0.07600000 1269681.24136648 19064.26473286
0.07700000 1260300.06647521 19169.16490990
0.07800000 1250869.73693485 20751.92990894
0.07900000 1241392.90154899 22345.07327595
0.08000000 1231873.08005216 14967.25862476
0.08100000 1222311.92681971 21048.21236738
0.08200000 1212710.51310318 15098.24659662
0.08300000 1203072.73386391 16674.58887393
0.08400000 1193400.25541866 21302.19555912
0.08500000 1183695.40830004 15269.67148391
0.08600000 1173960.47262026 15320.18488700
0.08700000 1164198.50397925 21514.38936380
0.08800000 1154409.54177486 23117.05215971
0.08900000 1144598.85247811 16997.29375766
0.09000000 1134766.38872589 15489.56193374
0.09100000 1124914.88295027 17076.20872545
0.09200000 1115046.25223445 21776.85432936
0.09300000 1105165.53860855 21815.96875731
0.09400000 1095269.64469654 20289.87112158
0.09500000 1085363.88475347 17192.16474257
0.09600000 1075450.26587825 20342.14273533
0.09700000 1065532.63728963 21928.66270635
0.09800000 1055610.63860419 15675.81872031
0.09900000 1045687.70977526 20390.91129945
0.10000000 1035763.89656268 17261.00614795
0.10100000 1025842.51677131 18834.46949374
0.10200000 1015925.96662850 20404.87399950
0.10300000 1006015.51791135 15693.84281767
0.10400000 996114.27638236 18826.56070932
0.10500000 986225.05004175 23521.46855017
0.10600001 976344.82489050 17237.36869452
0.10700001 966481.41755326 21919.79958160
0.10800001 956633.25789359 18769.14540318
0.10900001 946804.28486193 18746.72572259
0.11000001 936994.27529015 20281.24204328
0.11100001 927206.37390994 23365.60172243
0.11200001 917441.78321462 18660.76674908
0.11300001 907702.42979731 17073.88350834
0.11400001 897990.61168898 20137.44041529
0.11500001 888307.93602280 17002.21469608
0.11600001 878655.32021661 26214.68271315
0.11700001 869035.82075116 16920.12822688
0.11800001 859448.47403026 18409.38718078
0.11900001 849896.31894688 18357.76135393
0.12000001 840380.19915314 16778.19146643
0.12100001 830904.89513878 21287.78441628
0.12200001 821468.31976230 18187.30945636
0.12300001 812074.07482534 16615.03635373
0.12400001 802721.48582799 22576.54285266
0.12500001 793412.65229014 14995.49983488
0.12600001 784151.03781673 14938.07797434
0.12700001 774935.64242958 17854.51804300
0.12800001 765768.23634632 16299.37767881
0.12900001 756650.78605810 19181.09833062
0.13000001 747584.21478843 20566.04271821
0.13100001 738568.91980527 16086.03183162
0.13200001 729607.25600774 17466.79853222
0.13300001 720700.22004268 15934.68261635
0.13400001 711847.61228060 17297.89779394
0.13500001 703052.59544481 20079.18307260
0.13600001 694314.92143978 15694.98953918
0.13700001 685635.99010800 22708.26506315
0.13800001 677015.00078880 16938.91611850
0.13900001 668456.15870833 21056.36999229
0.14000001 659957.83296945 20937.16323836
0.14100001 651522.79374998 19428.41062593
0.14200001 643150.32735872 15175.13268977
0.14300001 634842.85491457 13712.60631295
0.14400001 626597.05387375 14991.33522107
0.14500001 618419.74957516 18960.75041639
0.14600001 610307.76516960 14803.01554251
0.14700001 602263.90889031 13370.25940813
0.14800001 594285.14275570 15938.72828068
0.14900001 586375.70604088 13193.45400840
0.15000001 578534.65035607 14414.19149372
0.15100001 570763.01868832 15616.07692816
0.15200001 563062.20595599 16798.96170739
0.15300001 555431.65665925 19245.70781143
0.15400001 547869.84213603 15285.56931694
0.15500001 540381.18158112 13909.41227032
0.15600001 532962.11887583 13806.38434107
0.15700001 525618.03899661 13702.86292337
0.15800001 518342.83987319 12362.47731447
0.15900001 511142.84805393 18401.14339849
0.16000001 504013.03607545 15823.49001450
0.16100001 496958.69812144 15698.92601471
0.16200001 489977.20378702 19167.90911699
0.16300001 483068.89170062 16636.89341556
0.16400001 476234.77253050 12965.49229424
0.16500001 469473.45950005 14027.86763214
0.16600001 462786.87330127 13911.37406823
0.16700001 456173.21643086 12645.12215650
0.16800001 449633.95904717 14817.68782004
0.16900001 443169.79747916 15821.16251705
0.17000001 436778.26458613 14564.37192035
0.17100001 430461.36970746 14437.67502175
0.17200001 424218.21858626 13210.15595060
0.17300001 418048.98184258 13093.29472963
0.17400001 411954.22122818 11895.17869973
0.17500001 405931.81995686 13931.58071887
0.17600001 399982.26658008 12743.43561510
0.17700001 394108.44919299 14731.77452662
0.17800001 388305.97766412 15639.02398909
0.17900001 382576.10737642 14461.37754189
0.18000001 376920.27840782 11256.72464636
0.18100001 371337.19295710 13178.75760057
0.18200001 365823.94475957 13054.42808541
0.18300001 360383.45502075 9946.58382844
0.18400001 355014.18637529 11821.97296478
0.18500001 349716.71899441 11708.51630507
0.18600001 344489.97583753 13528.12199025
0.18700001 339333.07617036 14353.78980015
0.18800001 334244.72214271 10423.42215249
0.18900001 329229.53149213 10321.34629994
0.19000001 324279.19322630 12077.77912237
0.19100001 319400.50198648 10118.60838104
0.19200001 314588.20213846 16393.19198804
0.19300001 309845.75402591 14426.41898913
0.19400001 305168.58229337 8926.18145388
0.19500001 300559.07032984 9720.08079379
0.19600001 296014.42598558 10496.67204148
0.19700001 291537.59003629 12988.00024990
0.19800001 287124.54981059 11998.93550364
0.19900001 282776.52296596 10179.95530788
0.20000001 278491.20739212 9236.16132967
0.20100001 274271.01267049 11634.57690736
0.20200001 270112.30387779 9869.90405018
0.20300001 266016.38663991 10582.13236070
0.20400001 261982.32074531 8861.55241806
0.20500001 258008.64410842 8769.71422776
0.20600001 254095.24871467 11045.52098373
0.20700001 250241.91226409 10149.81244120
0.20800001 246447.04840594 11589.17299911
0.20900001 242713.10921645 9939.10229225
0.21000001 239034.03429759 9078.51305179
0.21100001 235413.66514368 8983.38588656
0.21200001 231848.53143662 8889.07311551
0.21300001 228339.33558943 8062.66232083
0.21400001 224885.50354745 8703.06939874
0.21500001 221487.38455639 8611.42991868
0.21600001 218141.15059544 8520.59374510
0.21700001 214848.82305242 9133.22389977
0.21800001 211608.94092937 8341.62484583
0.21900001 208419.94375715 11004.57355069
0.22000001 205281.29171874 8846.59768491
0.22100001 202194.69779279 7406.39213035
0.22200001 199157.21960543 7327.99024188
0.22300001 196168.12482448 7909.49916693
0.22400001 193226.55675494 7825.67591862
0.22500001 190334.78413161 9678.52423076
0.22600001 187487.83992870 7022.35737660
0.22700001 184688.05702065 8842.86458832
0.22800001 181933.10097879 8749.16323982
0.22900001 179222.31229495 8656.43809322
0.23000001 176556.24676022 8564.74393538
0.23100001 173934.55783009 8474.09205824
0.23200001 171353.94443027 5988.82064107
0.23300001 168816.43284935 6518.00278058
0.23400001 166319.12541663 7621.57428268
0.23500001 163862.43403581 6380.80348314
0.23600001 161446.20295802 6313.35406528
0.23700001 159069.31276049 7950.28462780
0.23800001 156730.58051877 6742.54989283
0.23900001 154430.18496350 6671.38430598
0.24000001 152166.42958653 6050.89835872
0.24100001 149940.75514095 5987.13463598
0.24200001 147750.91181523 5924.07308945
0.24300001 145595.82584920 6394.56897378
0.24400001 143475.68754875 5800.00494352
0.24500001 141389.26702427 5217.26419999
0.24600001 139336.71756690 6711.15331908
0.24700001 137317.64859724 7151.50347725
0.24800001 135330.58134905 5560.05719775
0.24900001 133374.04104782 5501.67945349
0.25000001 131450.14996043 5444.00821816
0.25100001 129555.89499804 6856.09828765
0.25200001 127693.48160489 4845.96785617
0.25300001 125858.91972525 5274.74757524
0.25400001 124054.43502644 7117.62354639
0.25500001 122276.49236828 6104.04278782
0.25600001 120527.97456552 5110.98900327
0.25700001 118805.72394322 5057.55990755
0.25800001 117110.30336208 5459.68260106
0.25900001 115442.06619393 5852.91303296
0.26000001 113798.64694126 5346.26068626
0.26100001 112180.22602502 6172.15632794
0.26200001 110587.78632519 4362.68837696
0.26300001 109018.25660727 4317.12316592
0.26400001 107473.42366523 5126.48255141
0.26500001 105951.87551940 5495.72404324
0.26600001 104452.77801591 4183.33395749
0.26700001 102976.50869730 4553.62143007
0.26800001 101522.56275964 4506.07916132
0.26900001 100089.39125881 5675.06875293
0.27000001 98678.10161243  6418.02403259
0.27100001 97287.20776175  7541.70470259
0.27200001 95917.32154875  4320.59595363
0.27300001 94567.42940359  5441.41014539
0.27400001 93235.54949468  7307.33653746
0.27500001 91925.09926851  4186.26921880
0.27600001 90631.31131274  4142.30427959
0.27700001 89357.98920163  4844.09682388
0.27800001 88101.64150673  4055.75925871
0.27900001 86863.73812850  4013.10489147
0.28000001 85642.72626002  4331.80929925
0.28100001 84439.25900210  4286.13698981
0.28200001 83253.07814457  3887.50266795
0.28300001 82083.37352650  5594.80300437
0.28400001 80929.21135882  3459.72394934
0.28500001 79791.86663662  5819.22110924
0.28600001 78669.82019491  3386.73591969
0.28700001 77564.07545167  3350.76821811
0.28800001 76471.87519244  3978.06713581
0.28900001 75396.46960798  3607.72124151
0.29000001 74334.77711916  4542.59844477
0.29100001 73288.28871716  3210.02719776
0.29200001 72255.51468770  3493.19302293
0.29300001 71237.21304688  3769.87349289
0.29400001 70232.01162381  3418.54332761
0.29500001 69241.57315194  3689.19119217
0.29600001 68263.33996749  4257.58471532
0.29700001 67298.99066836  3609.91803034
0.29800001 66347.69379919  2975.69420776
0.29900001 65409.68656604  4120.81044874
0.30000001 64483.33496289  2911.42271140
0.30100001 63570.64928342  3167.72560375
0.30200001 62669.29827114  3133.15171539
0.30300001 61780.86434701  3098.92830235
0.30400001 60904.40120986  3622.28943344
0.30500001 60040.17134552  3307.01279427
0.30600001 59186.66711942  4088.31922483
0.30700001 58345.71717090  2965.12948700
0.30800001 57515.97398762  3199.03862465
0.30900001 56697.94680458  2636.45465123
0.31000001 55891.07557315  3128.78255872
0.31100001 55094.96267842  3609.82212560
0.31200001 54310.75687404  3569.84621835
0.31300001 53536.69838916  2773.73647487
0.31400001 52775.05611084  3491.07012702
0.31500001 52022.48628394  2465.86596661
0.31600002 51282.20866909  2682.31605144
0.31700002 50551.60063067  3616.96719638
0.31800002 49831.46137883  2861.32264785
0.31900002 49122.50095019  2357.88015725
0.32000002 48423.99419238  2331.61543076
0.32100002 47735.28757685  2766.73739896
0.32200002 47057.87776492  2735.94514280
0.32300002 46389.05856337  2705.41002352
0.32400002 45731.66704985  3121.18642394
0.32500002 45083.93474835  2425.06496494
0.32600002 44446.27078803  2180.08968539
0.32700002 43818.84885565  3018.24245210
0.32800002 43202.20156964  2771.63737295
0.32900002 42593.42501369  2319.21210182
0.33000002 41995.89896107  2085.09648215
0.33100002 41407.15453098  2680.69931128
0.33200002 40829.74993886  2243.39071663
0.33300002 40261.14035916  2420.49987302
0.33400002 39702.75211206  2593.58240454
0.33500002 39153.67874678  2368.01460275
0.33600002 38613.95529654  3123.09685228
0.33700002 38083.74192064  2510.09954886
0.33800002 37563.81855325  2101.13229028
0.33900002 37052.58542467  3779.36389230
0.34000002 36550.95890596  2056.53980024
0.34100002 36058.92662704  2034.80532593
0.34200002 35577.02030673  1830.43778147
0.34300002 35103.49354047  2173.60842297
0.34400002 34640.21300901  2868.20977298
0.34500002 34185.64386867  2661.35250122
0.34600002 33741.09202665  1931.84631548
0.34700002 33304.49766090  1912.34434626
0.34800002 32878.07537110  2065.40079263
0.34900002 32460.30761860  2556.24934603
0.35000002 32052.09916792  2025.05172134
0.35100002 31653.56342870  2005.56987383
0.35200002 31262.48556854  1820.88355818
0.35300002 30881.77874845  1803.80478213
0.35400002 30509.32579904  2274.47034605
0.35500002 30146.26960145  2092.75413485
0.35600002 29791.59263817  1754.87384747
0.35700002 29445.81124300  2371.86020797
0.35800002 29109.19384341  2351.29524407
0.35900002 28781.81306049  2020.48337255
0.36000002 28462.79892472  1849.51276173
0.36100002 28151.81930294  1681.50824661
0.36200002 27851.06254904  2426.38468420
0.36300002 27557.41426518  1805.56186818
0.36400002 27272.90342262  2090.46814636
0.36500002 26996.07853743  1926.71021648
0.36600002 26728.60320238  1471.40967599
0.36700002 26468.90244836  1899.40852967
0.36800002 26218.24756213  1741.41608557
0.36900002 25975.75644060  1874.15091597
0.37000002 25740.68278075  1575.71597106
0.37100002 25513.84653726  1423.67270422
0.37200002 25295.75654965  1981.41670439
0.37300002 25085.24363314  1548.01045793
0.37400002 24882.53607307  1819.53553654
0.37500002 24687.88313927  1531.63634252
0.37600002 24501.28446914  1939.76678331
0.37700002 24322.09180514  1654.87520482
0.37800002 24150.51226267  1647.54802461
0.37900002 23987.34737763  1504.00675183
0.38000002 23830.79164257  1498.12278758
0.38100002 23681.13052753  1628.31461221
0.38200002 23539.87351702  1487.60237738
0.38300002 23405.20077581  1617.76755426
0.38400002 23277.99622647  1613.16521492
0.38500002 23157.27902959  1474.88717127
0.38600002 23044.58325560  2274.15480632
0.38700002 22937.73840700  1468.47408239
0.38800002 22837.76006965  1465.84169952
0.38900002 22744.59007172  1862.78201512
0.39000002 22658.55983935  1860.49443655
0.39100002 22578.08941993  1327.59172079
0.39200002 22504.84402658  1591.99274186
0.39300002 22437.17120553  1723.84794539
0.39400002 22376.98115887  1591.00343577
0.39500002 22321.50197634  1856.25619230
0.39600002 22272.37582500  1458.95204754
0.39700002 22228.52644423  1459.74740075
0.39800002 22191.62725259  1328.16895399
0.39900002 22159.26852514  1994.33426175
0.40000002 22132.87138909  1464.42150484
0.40100002 22111.49720084  1999.98501657
0.40200002 22096.00050572  1469.27362324
0.40300002 22085.38611235  1472.21190800
0.40400002 22079.86014520  1475.48672411
0.40500002 22078.88574533  1747.98546728
0.40600002 22083.66253478  1617.84919395
0.40700002 22092.47742081  1892.88355510
0.40800002 22105.83943308  1356.19331348
0.40900002 22123.35850596  1496.64527384
0.41000002 22145.91089958  2047.94320747
0.41100002 22172.43027035  1507.28188120
0.41200002 22202.18017164  1788.05266485
0.41300002 22237.26627032  2071.40145123
0.41400002 22275.34667412  1802.63251502
0.41500002 22317.19565993  1671.11169020
0.41600002 22361.63005434  2377.82404450
0.41700002 22411.14847862  1826.73279905
0.41800002 22464.18461586  1553.06147701
0.41900002 22518.64943443  2128.01247239
0.42000002 22576.83691098  2138.59097773
0.42100002 22638.73039757  2006.24438290
0.42200002 22703.01277540  1584.55685174
0.42300002 22769.66960082  1592.96616076
0.42400002 22838.83268397  1455.97565260
0.42500002 22910.98902681  1903.21594864
0.42600002 22984.20154329  1619.35199647
0.42700002 23060.80131366  1924.65456884
0.42800002 23138.77687524  1637.87839873
0.42900002 23219.64011075  1647.43354392
0.43000002 23301.97255536  1506.47259709
0.43100002 23384.61764213  1969.92028352
0.43200002 23470.14492452  1676.82458359
0.43300002 23556.34831191  1686.87018255
0.43400002 23644.45888447  1851.36121839
0.43500002 23733.08879150  1707.35848857
0.43600002 23823.62909091  1873.96675310
0.43700002 23914.38194290  1571.17496810
0.43800002 24005.51817115  1896.91613578
0.43900002 24098.47645031  2385.74928164
0.44000002 24191.26467607  1920.30268099
0.44100002 24284.96256215  2576.14895068
0.44200002 24378.73930604  2429.95095549
0.44300002 24473.09153662  1792.89877094
0.44400002 24567.27767832  1639.86586274
0.44500002 24661.08852806  2309.75766100
0.44600002 24754.71576686  2157.74490208
0.44700002 24849.30991675  1669.87370554
0.44800002 24942.34455911  2351.81377993
0.44900002 25035.64149264  2703.84940935
0.45000002 25128.80533384  1869.96013754
0.45100002 25220.49096832  1880.94430556
0.45200002 25311.95966897  2063.93728922
0.45300002 25402.19536239  2421.84542063
0.45400002 25491.82839604  1739.81737048
0.45500002 25580.74318793  2449.61208377
0.45600002 25668.08882420  2463.36660121
0.45700002 25754.68600792  1769.34701260
0.45800002 25839.65007450  2134.87199034
0.45900002 25923.22451176  2325.31334891
0.46000002 26005.90892085  1798.30868711
0.46100002 26086.19073121  2530.88234469
0.46200002 26165.65015676  2362.36583637
0.46300002 26243.35080576  2191.84476318
0.46400002 26318.72222738  2570.02334731
0.46500002 26393.46539928  3136.33564204
0.46600002 26465.23565325  2966.22375260
0.46700002 26535.06003448  2049.03743298
0.46800002 26603.76833497  2245.89022928
0.46900002 26669.53626405  2256.24287488
0.47000002 26733.34785608  2266.45333866
0.47100002 26795.26788806  2086.81556203
0.47200002 26854.99954248  2286.43476942
0.47300002 26912.38987522  2296.16521299
0.47400002 26966.71971685  2113.51675798
0.47500002 27019.25573704  2315.00994128
0.47600002 27069.89159362  1936.85083533
0.47700002 27117.01074608  2527.57669144
