# SAXS profile: number of points = 501, q_min = 0, q_max = 0.5, delta_q = 0.001
#    q    intensity    error
0.00000000 1682732.95097188 353.37391970
0.00100000 1682650.54020857 555.27469146
0.00200000 1682403.24627952 984.20593024
0.00300000 1681991.29803738 1211.03377773
0.00400000 1681414.56412308 1261.06097101
0.00500000 1680673.55838754 2117.64876739
0.00600000 1679768.18110553 2116.50799436
0.00700000 1678699.01022110 2820.21445438
0.00800000 1677465.83515481 2943.95266499
0.00900000 1676069.91916498 3771.15747933
0.01000000 1674510.68109324 2762.94274311
0.01100000 1672789.31442131 3312.12298676
0.01200000 1670905.82726275 3909.91980722
0.01300000 1668861.37506498 4555.99175487
0.01400000 1666655.91406957 4124.97357019
0.01500000 1664290.96101072 3994.29848429
0.01600000 1661765.83096129 4661.25336422
0.01700000 1659082.86458834 5375.42872240
0.01800000 1656241.98803676 5192.31886614
0.01900000 1653243.91878687 5951.67837619
0.02000000 1650089.74155463 5717.56121312
0.02100000 1646781.60466710 7064.69340432
0.02200000 1643317.95645200 6236.39192807
0.02300000 1639702.08838791 6493.22056558
0.02400000 1635933.52789080 6748.22611025
0.02500000 1632014.86108444 12093.23067294
0.02600000 1627946.07144746 6593.18189092
0.02700000 1623729.30586095 10911.46143514
0.02800000 1619364.35430938 7748.65879072
0.02900000 1614853.87095126 8720.21130352
0.03000000 1610199.25305090 10482.39761919
0.03100000 1605400.65526678 8476.51584984
0.03200000 1600459.72025920 8714.50357819
0.03300000 1595380.17891884 9763.72714510
0.03400000 1590160.12206561 11687.67743646
0.03500000 1584802.98821705 10269.52383787
0.03600000 1579309.94063684 11394.72174829
0.03700000 1573682.62722283 9866.99052901
0.03800000 1567922.93864350 11924.05450022
0.03900000 1562032.63432845 10309.41586400
0.04000000 1556011.68406458 10526.41953048
0.04100000 1549864.23253054 12693.38865297
0.04200000 1543591.01054243 10951.77872788
0.04300000 1537192.73307638 10145.47250924
0.04400000 1530673.43820099 16531.27390032
0.04500000 1524034.06129611 18928.50392081
0.04600000 1517274.83547792 10696.78808738
0.04700000 1510399.95138636 14137.34420247
0.04800000 1503409.88997594 12155.06952601
0.04900000 1496308.50772431 15711.24006242
0.05000000 1489095.22896817 19365.68435452
0.05100000 1481774.69277919 15025.19608472
0.05200000 1474345.26968262 11721.04544019
0.05300000 1466813.16568556 14257.42463511
0.05400000 1459178.00640497 14445.86293708
0.05500000 1451442.70392885 13411.33120993
0.05600000 1443608.18603990 14811.42067993
0.05700000 1435679.63201358 18735.62007233
0.05800000 1427655.90060558 17688.65743443
0.05900000 1419539.66840165 14053.44337355
0.06000000 1411334.84039034 15496.45727146
0.06100000 1403042.73584015 16962.78746900
0.06200000 1394665.60030184 13179.59053891
0.06300000 1386206.25592597 13307.58067909
0.06400000 1377663.90989168 21491.55799940
0.06500000 1369044.70454098 17619.60617165
0.06600000 1360349.41980079 20507.26846300
0.06700000 1351579.78255243 15164.72586993
0.06800000 1342738.69655140 22235.75385573
0.06900000 1333829.02163487 21007.80807431
0.07000000 1324851.71440215 16931.60570294
0.07100000 1315809.56033693 15631.81830896
0.07200000 1306704.98818929 15739.26232007
0.07300000 1297541.09383690 17283.24817972
0.07400000 1288319.72227580 17392.31706580
0.07500000 1279042.67572317 26245.95693605
0.07600000 1269711.11295681 16131.68044638
0.07700000 1260330.60892879 20644.21634223
0.07800000 1250900.98904079 14823.17741528
0.07900000 1241424.79832184 17876.51793431
0.08000000 1231905.85530972 14967.65684416
0.08100000 1222345.27011055 19545.30178610
0.08200000 1212744.65412010 19628.27314799
0.08300000 1203107.63140512 16675.07255387
0.08400000 1193435.80566918 22824.46085477
0.08500000 1183731.63111527 16797.15263407
0.08600000 1173997.42979896 15320.66717820
0.08700000 1164236.12559650 23051.87636927
0.08800000 1154447.96057105 23117.82149614
0.08900000 1144638.00610714 16997.87518908
0.09000000 1134806.25611787 17039.11673603
0.09100000 1124955.44815640 18629.26309669
0.09200000 1115087.56600321 20222.11395964
0.09300000 1105207.57966513 23375.14140837
0.09400000 1095312.40050234 20290.66317292
0.09500000 1085407.46343726 18755.84184977
0.09600000 1075494.41866470 15648.44452717
0.09700000 1065577.51842295 20363.18733439
0.09800000 1055656.32347726 20379.44628292
0.09900000 1045734.13446088 18823.21530541
0.10000000 1035811.01233932 18831.04508990
0.10100000 1025890.40619944 18835.34874368
0.10200000 1015974.59555130 17266.48906355
0.10300000 1006064.89152359 18833.53565527
0.10400000 996164.35049111 21965.42496169
0.10500000 986275.81552144 15681.78620461
0.10600001 976396.32193117 17238.27787482
0.10700001 966533.71607375 18789.41632466
0.10800001 956686.23399427 15641.82066194
0.10900001 946857.88166792 26559.36483082
0.11000001 937048.61416856 17162.04617631
0.11100001 927261.37534589 20251.38939086
0.11200001 917497.54418159 18661.90092720
0.11300001 907758.87006387 21731.74837248
0.11400001 898047.70075504 17040.45592417
0.11500001 888365.79896056 24732.10500765
0.11600001 878713.83478558 18505.71423205
0.11700001 869095.01938320 18459.57908105
0.11800001 859508.30463225 16876.44635631
0.11900001 849956.83652116 15299.22377800
0.12000001 840441.26004595 19830.21246488
0.12100001 830966.63240533 16727.35909831
0.12200001 821530.78900678 21220.14127975
0.12300001 812137.21751465 19637.47884471
0.12400001 802785.24774324 16557.44651485
0.12500001 793476.93774044 20995.40076193
0.12600001 784216.07507447 16433.24862758
0.12700001 775001.32420644 19344.03396381
0.12800001 765834.25004571 16300.78278047
0.12900001 756717.42377599 19182.78759685
0.13000001 747651.65884097 17629.62694644
0.13100001 738636.75511639 20475.01181697
0.13200001 729675.80725073 14557.03304088
0.13300001 720769.12914362 20282.44425028
0.13400001 711917.24320914 14416.32485465
0.13500001 703122.68884169 14343.70352865
0.13600001 694385.58644650 18550.51181659
0.13700001 685707.16150879 14194.13891253
0.13800001 677086.73632948 21175.88867727
0.13900001 668528.40849416 14039.09724044
0.14000001 660030.37227926 15355.60733526
0.14100001 651595.87825277 18042.69071977
0.14200001 643223.97365737 15176.87037427
0.14300001 634916.99027617 13714.20763683
0.14400001 626671.60079717 19082.15114438
0.14500001 618494.52662893 14899.53384933
0.14600001 610383.07015859 14804.84206511
0.14700001 602339.57265507 20057.90871568
0.14800001 594361.33045019 14612.37399851
0.14900001 586452.24085971 14514.69364609
0.15000001 578611.52642499 17037.21719945
0.15100001 570840.37898258 14316.67738042
0.15200001 563139.74777570 18093.68094982
0.15300001 555509.57648419 16681.95336903
0.15400001 547948.13170336 16561.73306230
0.15500001 540459.69762851 18970.13628202
0.15600001 533040.93407071 16319.04896675
0.15700001 525697.06448428 16196.72732120
0.15800001 518422.21567979 18546.55564132
0.15900001 511222.33761136 17177.07135451
0.16000001 504092.77301154 15825.99335572
0.16100001 497038.68201311 13285.84459736
0.16200001 490057.38499919 17972.85544327
0.16300001 483149.19916621 11885.47086058
0.16400001 476315.20717421 14146.56232093
0.16500001 469554.12537814 14030.27792869
0.16600001 462867.66425205 19711.22041280
0.16700001 456254.09426007 19545.92632096
0.16800001 449714.91057514 13680.32822563
0.16900001 443250.89026890 14693.76770623
0.17000001 436859.36189981 14567.07611040
0.17100001 430542.62435368 11108.00023286
0.17200001 424299.42271417 12111.62759332
0.17300001 418130.21226254 13095.83886651
0.17400001 412035.36620373 12979.11464837
0.17500001 406012.99046349 15006.24083624
0.17600001 400063.30129965 12746.01738139
0.17700001 394189.55229522 16839.77846940
0.17800001 388386.97877410 12513.82904716
0.17900001 382657.01372699 15497.60978795
0.18000001 377001.07847122 12282.69571677
0.18100001 371417.82381884 13181.61918998
0.18200001 365904.54569901 10044.08025390
0.18300001 360463.71440922 16912.95827904
0.18400001 355094.38337940 13795.41744600
0.18500001 349796.56857053 13663.05461384
0.18600001 344569.68290679 10631.69806837
0.18700001 339412.56215726 11485.72164604
0.18800001 334323.87296660 9478.08224641
0.18900001 329308.48661574 9385.29231198
0.19000001 324357.74166387 11151.41968529
0.19100001 319478.77095192 12881.38465343
0.19200001 314666.10491430 9109.58416771
0.19300001 309923.27916262 11724.39820473
0.19400001 305245.67165902 9821.27994972
0.19500001 300635.80490563 8838.69308190
0.19600001 296090.86605853 9624.43405605
0.19700001 291613.62948608 9527.01772553
0.19800001 287200.07405751 9430.21487734
0.19900001 282851.55258997 12728.32046809
0.20000001 278565.75929121 10078.50964748
0.20100001 274345.00545935 9143.91946412
0.20200001 270185.71568821 9049.87097470
0.20300001 266089.32122807 12213.50042163
0.20400001 262054.63589157 10475.63456490
0.20500001 258080.40365824 8772.15333498
0.20600001 254166.31465793 7891.86444316
0.20700001 250312.28235337 10152.66665216
0.20800001 246516.93213335 8501.13680647
0.20900001 242782.27899890 9177.17057997
0.21000001 239102.57851285 9837.87605797
0.21100001 235481.51935213 11981.30027103
0.21200001 231915.52074441 9632.61160950
0.21300001 228405.64098731 10264.54999123
0.21400001 224951.12366378 10156.54371359
0.21500001 221552.15403948 10049.60618235
0.21600001 218205.07013806 7812.83290567
0.21700001 214912.05536423 9838.67435974
0.21800001 211671.28857428 6953.40215843
0.21900001 208481.45743885 6879.88842077
0.22000001 205341.97552241 8168.50417251
0.22100001 202254.55150597 8755.59994869
0.22200001 199216.13184066 7330.15791768
0.22300001 196225.98926633 9230.47097155
0.22400001 193283.55609583 10437.31252272
0.22500001 190390.81736296 7099.67391519
0.22600001 187542.88914694 7024.41924517
0.22700001 184742.23613693 6950.00325213
0.22800001 181986.17818044 6876.34806773
0.22900001 179274.40454595 7421.96069919
0.23000001 176607.29472124 6119.44305149
0.23100001 173984.53638935 6660.12836796
0.23200001 171402.91368272 6589.58532818
0.23300001 168864.32574396 7112.56573672
0.23400001 166365.95833437 8210.16043210
0.23500001 163908.10337144 6962.81656053
0.23600001 161490.79046017 6315.09765963
0.23700001 159112.69630688 5680.32352682
0.23800001 156772.89098994 7306.40093017
0.23900001 154471.41158073 7229.26240392
0.24000001 152206.41291221 6602.71450444
0.24100001 149979.47208954 5988.68060381
0.24200001 147788.45371912 5386.88939287
0.24300001 145632.16716055 5330.13757021
0.24400001 143510.81644586 7383.63185541
0.24500001 141423.14006722 6784.06834994
0.24600001 139369.42698575 6712.72876832
0.24700001 137349.03341661 6642.19957024
0.24800001 135360.71833042 8594.72921698
0.24900001 133402.78976894 7503.90727949
0.25000001 131477.65186899 6435.17397516
0.25100001 129582.09639076 4898.20347530
0.25200001 127718.38671448 4846.91300512
0.25300001 125882.48491087 5755.34748241
0.25400001 124076.73885287 5220.52903422
0.25500001 122297.48909690 4696.22380351
0.25600001 120547.59186991 5111.82087510
0.25700001 118823.88607275 5518.18153030
0.25800001 117127.21806551 5460.47116457
0.25900001 115457.56040152 6303.98309619
0.26000001 113812.79232304 5792.50233936
0.26100001 112193.03970099 4409.18666887
0.26200001 110599.20004001 7853.64956645
0.26300001 109028.20809410 4749.26896930
0.26400001 107482.04733133 5126.89390030
0.26500001 105959.15772776 5918.87883075
0.26600001 104458.51620809 6693.70203536
0.26700001 102980.99422428 5381.78701283
0.26800001 101525.52898066 5735.17740351
0.26900001 100090.97768879 4864.42174587
0.27000001 98678.29367473  4412.40011047
0.27100001 97286.03177624  4763.12434117
0.27200001 95914.76430530  5498.79369784
0.27300001 94563.32004239  5052.51842897
0.27400001 93230.12870904  4614.89158950
0.27500001 91918.16953129  4185.95363856
0.27600001 90622.98028494  5648.07751356
0.27700001 89348.28163456  4098.40587254
0.27800001 88090.53029131  4423.90664060
0.27900001 86851.22852868  4012.52694793
0.28000001 85628.76671371  4331.10322536
0.28100001 84423.90812404  3571.13148267
0.28200001 83236.33389769  6713.42682826
0.28300001 82065.27362808  4195.17698643
0.28400001 80909.69008729  5534.22306391
0.28500001 79770.88482682  5817.69090578
0.28600001 78647.45967294  3724.35062909
0.28700001 77540.43037355  4019.69610083
0.28800001 76446.74778947  5965.14001236
0.28900001 75369.98812116  3278.59463846
0.29000001 74306.95740143  5189.59815056
0.29100001 73259.14387319  3208.75065353
0.29200001 72224.99590365  3809.14646427
0.29300001 71205.42110375  3768.19106318
0.29400001 70198.84298038  4038.18863360
0.29500001 69207.04622997  4609.18949710
0.29600001 68227.58208251  3647.44671079
0.29700001 67261.84232386  3908.58584246
0.29800001 66309.29059220  3568.76618861
0.29900001 65369.97443081  5000.80328069
0.30000001 64442.44452114  3782.44946023
0.30100001 63528.45657644  4604.54275064
0.30200001 62625.88278844  3130.98115823
0.30300001 61736.26942792  3378.20882302
0.30400001 60858.56675118  4176.41934102
0.30500001 59993.13160387  3855.15881938
0.30600001 59138.41984868  3812.65410815
0.30700001 58296.34173091  3501.27845012
0.30800001 57465.49855973  2663.52598434
0.30900001 56646.27928573  3160.86253379
0.31000001 55838.24821108  2865.33984261
0.31100001 55041.00291897  3606.28668199
0.31200001 54255.80133578  2802.04099265
0.31300001 53480.61570273  2518.93711886
0.31400001 52717.93945009  3985.47641113
0.31500001 51964.29713965  2955.72936125
0.31600002 51223.02451128  3409.91690317
0.31700002 50491.36407008  3853.50108828
0.31800002 49770.35873215  3572.26766714
0.31900002 49060.44757592  2825.88191418
0.32000002 48360.96054706  3725.72857696
0.32100002 47671.30118590  3453.78593446
0.32200002 46993.09250531  2732.17852763
0.32300002 46323.30845536  2476.44418729
0.32400002 45665.05777729  3561.87467529
0.32500002 45016.55082619  2421.44038360
0.32600002 44378.13500013  2176.74762483
0.32700002 43749.86792040  3013.49104505
0.32800002 43132.52630203  2554.30832856
0.32900002 42522.95911629  2946.84120630
0.33000002 41924.68368951  3538.65309438
0.33100002 41335.30884613  2676.04802142
0.33200002 40757.22161576  2850.15264256
0.33300002 40187.94341998  3020.12409103
0.33400002 39629.06280184  1991.36050009
0.33500002 39079.30529528  1969.59708015
0.33600002 38539.03613309  2922.22255318
0.33700002 38008.37352221  3083.23940613
0.33800002 37487.90088143  2096.88583511
0.33900002 36976.16830782  1885.78467301
0.34000002 36474.13754191  2052.21744598
0.34100002 35981.65983715  1845.85923706
0.34200002 35499.33194758  2374.37292976
0.34300002 35025.43327885  1988.04368706
0.34400002 34561.82818449  2146.28963190
0.34500002 34107.00649227  2478.21520910
0.34600002 33662.12415136  1927.32500957
0.34700002 33225.31454629  2081.23380175
0.34800002 32798.58539416  3090.61084807
0.34900002 32380.63844922  2209.97867883
0.35000002 31972.31800501  2693.34819631
0.35100002 31573.60317380  2000.50359184
0.35200002 31182.51781842  1981.33727602
0.35300002 30801.73161208  2289.80083649
0.35400002 30429.21252696  1620.35564381
0.35500002 30066.14400892  1926.63859934
0.35600002 29711.39618077  1750.14987492
0.35700002 29365.67578680  1734.63055089
0.35800002 29029.17812537  1875.86557931
0.35900002 28701.87185246  2014.87149948
0.36000002 28383.02611168  1536.94093675
0.36100002 28072.18022286  1981.61529579
0.36200002 27771.65706637  1663.38347878
0.36300002 27478.24226543  2400.49935801
0.36400002 27194.04750804  1935.53642307
0.36500002 26917.44381955  1625.54450926
0.36600002 26650.32739719  2200.65088906
0.36700002 26390.93512869  2039.49156335
0.36800002 26140.66664832  1591.57456427
0.36900002 25898.60222383  1724.84698981
0.37000002 25663.96981344  1713.83998533
0.37100002 25437.64308663  1703.30466177
0.37200002 25220.04076461  1693.27361715
0.37300002 25010.05885493  1683.67724187
0.37400002 24807.91030701  1674.53402505
0.37500002 24613.82595782  1527.04183476
0.37600002 24427.91194941  2072.09772927
0.37700002 24249.39704381  1649.92905302
0.37800002 24078.46910606  1779.51934358
0.37900002 23916.12627908  1772.18504123
0.38000002 23760.21696747  1765.26540322
0.38100002 23611.33718902  1758.80859053
0.38200002 23470.93566250  1618.08638123
0.38300002 23337.07354181  1613.05859963
0.38400002 23210.75189912  1340.42098568
0.38500002 23090.91561573  1470.66048524
0.38600002 22979.22753709  1467.33864390
0.38700002 22873.25555916  1730.59059759
0.38800002 22774.34043560  1328.88282737
0.38900002 22682.12541321  2123.04703926
0.39000002 22597.17422494  1855.45406351
0.39100002 22517.74011467  1456.44749962
0.39200002 22445.58022582  1984.75052550
0.39300002 22379.06961432  1587.12369224
0.39400002 22320.07111602  1454.71070391
0.39500002 22265.75997227  1851.62068702
0.39600002 22217.77318285  1323.06845572
0.39700002 22175.17059424  1456.24352192
0.39800002 22139.52578848  1325.05068122
0.39900002 22108.47047782  1459.15912067
0.40000002 22083.42132190  1859.64499762
0.40100002 22063.36645363  1330.42106019
0.40200002 22049.23527799  1332.87633571
0.40300002 22039.93810159  1602.74437469
0.40400002 22035.86224463  1338.67869479
0.40500002 22036.31080543  1610.41366996
0.40600002 22042.55616665  1614.83774128
0.40700002 22052.84573093  1349.63422268
0.40800002 22067.76849958  2301.55802471
0.40900002 22086.77304982  1630.00392831
0.41000002 22110.80459566  1772.07051828
0.41100002 22138.90046478  2052.27617033
0.41200002 22170.21888166  1648.13414976
0.41300002 22206.89213589  1379.04806698
0.41400002 22246.61699058  1661.82236794
0.41500002 22290.15435951  1808.17740732
0.41600002 22336.17131104  1816.26585622
0.41700002 22387.38449206  1965.16470383
0.41800002 22442.09536762  1692.58291283
0.41900002 22498.30938000  1417.39355810
0.42000002 22558.22121367  2279.28277943
0.42100002 22621.82319968  1718.35377167
0.42200002 22687.86986027  2015.36357519
0.42300002 22756.27419624  2315.67857194
0.42400002 22827.22497798  1455.23566130
0.42500002 22901.21808404  1609.72669541
0.42600002 22976.22711030  2354.60386584
0.42700002 23054.69873144  1628.12290157
0.42800002 23134.42092536  1637.57006280
0.42900002 23217.13219649  1497.50509764
0.43000002 23301.42592732  1657.08098335
0.43100002 23385.90520398  1666.94740193
0.43200002 23473.27100806  1829.50682906
0.43300002 23561.38266628  1687.23069269
0.43400002 23651.38942420  1697.57855637
0.43500002 23741.91432982  1552.72127075
0.43600002 23834.37461014  2031.04632865
0.43700002 23927.01778448  1886.40617152
0.43800002 24020.09522071  1739.89567976
0.43900002 24114.93094100  1591.58551753
0.44000002 24209.71443160  2402.20902832
0.44100002 24305.32971079  1772.58777981
0.44200002 24401.03083926  1783.59343372
0.44300002 24497.31934550  1957.82585487
0.44400002 24593.47415400  1969.93737309
0.44500002 24689.23920337  1982.05221718
0.44600002 24784.79809929  1828.00287044
0.44700002 24881.34515758  2675.24235813
0.44800002 24976.33526527  1850.37188582
0.44900002 25071.55437048  3215.42700040
0.45000002 25166.59953881  2213.27670133
0.45100002 25260.30416039  2568.97305486
0.45200002 25353.68968444  1722.78329571
0.45300002 25445.90083373  2772.58548624
0.45400002 25537.44354611  2440.10284647
0.45500002 25628.27071529  2103.56856001
0.45600002 25717.53848482  2115.52481602
0.45700002 25806.07795333  1772.87763942
0.45800002 25892.93020397  1782.72832903
0.45900002 25978.40585987  1971.76109821
0.46000002 26062.96795000  2342.93061491
0.46100002 26145.12396024  1993.04289395
0.46200002 26226.47412135  2367.85732827
0.46300002 26306.04096553  2013.99059177
0.46400002 26383.25701480  1840.23226400
0.46500002 26459.79779213  2219.44794400
0.46600002 26533.44862277  2230.40179694
0.46700002 26605.07785691  2241.21186489
0.46800002 26675.61136653  2064.29228344
0.46900002 26743.15226884  2073.93155675
0.47000002 26808.72564883  2272.84386823
0.47100002 26872.38400208  2473.33434078
0.47200002 26933.91620593  1910.96144538
0.47300002 26993.01705346  3070.72576555
0.47400002 27049.04397073  1927.24447426
0.47500002 27103.27318398  2128.69117676
0.47600002 27155.63136744  2331.58261972
0.47700002 27204.38710038  1950.55464755
