# SAXS profile: number of points = 501, q_min = 0, q_max = 0.5, delta_q = 0.001
#    q    intensity    error
0.00000000 1682732.95097188 328.13292544
0.00100000 1682650.45631540 757.19272332
0.00200000 1682402.90947620 984.20573321
0.00300000 1681990.53507373 1715.63040689
0.00400000 1681413.20018875 1513.27193767
0.00500000 1680671.43224171 2117.64608844
0.00600000 1679765.12528246 1940.12879869
0.00700000 1678694.83760597 2215.87727773
0.00800000 1677460.38785728 2717.48594306
0.00900000 1676063.04560626 3519.73254623
0.01000000 1674502.19895490 3591.80737185
0.01100000 1672779.07795577 3312.10271856
0.01200000 1670893.62682893 3584.06698669
0.01300000 1668847.01654752 5256.86833398
0.01400000 1666639.33812545 4499.92641242
0.01500000 1664271.91471081 3994.25277317
0.01600000 1661744.23965607 4237.44800055
0.01700000 1659058.52956216 4479.45823076
0.01800000 1656214.71493729 5664.25457996
0.01900000 1653213.55130184 5455.60496547
0.02000000 1650056.18096894 7796.51580776
0.02100000 1646744.62050879 9238.23773990
0.02200000 1643277.39567878 9070.89163626
0.02300000 1639657.86754005 7673.59916938
0.02400000 1635885.47056501 8588.39911208
0.02500000 1631962.82739571 6364.65531752
0.02600000 1627889.86038331 6592.95423610
0.02700000 1623668.77953359 6819.40918638
0.02800000 1619299.42653401 9157.13867699
0.02900000 1614784.32775424 8719.83577024
0.03000000 1610124.92621611 10481.91375147
0.03100000 1605321.52092477 9246.65238599
0.03200000 1600375.53125186 9506.23109348
0.03300000 1595290.90234811 10576.77917016
0.03400000 1590065.57505019 9182.62911960
0.03500000 1584703.02175514 11124.61572643
0.03600000 1579204.39573567 14023.33568220
0.03700000 1573571.43152796 9866.29333197
0.03800000 1567805.96974283 13757.49802118
0.03900000 1561909.68563567 13120.04196693
0.04000000 1555882.73759948 10525.54720760
0.04100000 1549729.16283149 13668.61184994
0.04200000 1543449.65686876 13937.35104812
0.04300000 1537045.00667901 14202.29652096
0.04400000 1530519.17953571 13430.30642416
0.04500000 1523873.24775979 11566.19848792
0.04600000 1517107.32700846 11765.16786788
0.04700000 1510225.63854586 14135.71263421
0.04800000 1503228.71485125 12153.60472506
0.04900000 1496120.25857992 15709.26344632
0.05000000 1488899.88460519 17085.12697143
0.05100000 1481572.25805936 12711.89056632
0.05200000 1474135.64963954 15235.19264900
0.05300000 1466596.06549612 17819.14302647
0.05400000 1458953.58740636 16850.91472037
0.05500000 1451210.74076557 13409.18787020
0.05600000 1443368.60422355 12340.80214198
0.05700000 1435432.44653380 13737.08915456
0.05800000 1427401.01408121 13895.74952091
0.05900000 1419276.96941848 14050.84265350
0.06000000 1411064.36470897 18075.73535640
0.06100000 1402764.24820205 14350.27892972
0.06200000 1394379.09946195 18447.63634819
0.06300000 1385911.73327529 13304.75326151
0.06400000 1377361.38910758 17458.05642339
0.06500000 1368734.09499500 14905.51499174
0.06600000 1360030.55579560 16401.96927032
0.06700000 1351252.68473271 15161.05583222
0.06800000 1342403.43917739 19451.42674418
0.06900000 1333485.63326360 14001.59980481
0.07000000 1324499.85438429 26801.25580853
0.07100000 1315449.51167911 17048.22646986
0.07200000 1306336.53048608 15734.82424683
0.07300000 1297164.23601118 20157.93317213
0.07400000 1287934.51754969 15938.19040161
0.07500000 1278649.15511498 16034.26115671
0.07600000 1269309.29705925 21990.78460249
0.07700000 1259920.37755395 19163.38984114
0.07800000 1250482.40881830 17781.86068730
0.07900000 1240997.62275804 17870.36660590
0.08000000 1231470.36329729 19451.07530075
0.08100000 1221901.47613494 15029.38886161
0.08200000 1212292.53644857 21130.25990184
0.08300000 1202647.03356650 22730.03000117
0.08400000 1192966.93788852 16731.36208923
0.08500000 1183254.51192498 18316.78070448
0.08600000 1173511.93756600 16845.76465469
0.08700000 1163742.53964636 15361.40224467
0.08800000 1153946.13341373 16945.69976501
0.08900000 1144127.97358924 16990.30120583
0.09000000 1134288.02642190 17031.33551678
0.09100000 1124429.24833324 17068.83679161
0.09200000 1114553.21376479 23322.02709385
0.09300000 1104665.44749554 15575.78354163
0.09400000 1094762.04631023 17160.39588241
0.09500000 1084849.47012806 23432.74965617
0.09600000 1074928.60069236 17204.23306281
0.09700000 1065003.92027752 18786.67003691
0.09800000 1055075.14957827 25068.58673265
0.09900000 1045145.33750014 21948.05311955
0.10000000 1035214.85546764 18820.20695746
0.10100000 1025286.66359721 15686.88669082
0.10200000 1015363.47876215 17256.10313323
0.10300000 1005446.43145811 17253.46157544
0.10400000 995538.84144220 17247.71123941
0.10500000 985643.25367346 17238.90131783
0.10600001 975756.77064381 20359.16597745
0.10700001 965887.31512016 21906.32533779
0.10800001 956033.08460361 20320.48416957
0.10900001 946198.09622175 17173.49625471
0.11000001 936382.16405591 18708.91651846
0.11100001 926588.46855644 20236.69310588
0.11200001 916818.30504559 15540.07100210
0.11300001 907073.38135064 17062.05110650
0.11400001 897356.12649023 15479.39391079
0.11500001 887668.17192955 15445.42691887
0.11600001 878010.45846000 16949.99269877
0.11700001 868385.91928734 16907.47464478
0.11800001 858793.59239148 15329.46634618
0.11900001 849236.67109410 16814.88687967
0.12000001 839715.81016773 18289.01120696
0.12100001 830236.19364052 18231.98767122
0.12200001 820795.11145712 16658.03757180
0.12300001 811396.75530283 21128.77250356
0.12400001 802039.88382273 18045.89823629
0.12500001 792727.04699659 20975.55865191
0.12600001 783461.67552712 19402.42930874
0.12700001 774242.56100470 25271.27838214
0.12800001 765071.48861922 17764.96080299
0.12900001 755950.65735997 17689.24621595
0.13000001 746881.12931134 16143.83637100
0.13100001 737862.68695240 17531.61826839
0.13200001 728897.99213898 17449.81875440
0.13300001 719988.25153488 18813.29389952
0.13400001 711133.01113284 17280.53298523
0.13500001 702335.45126240 17193.17265753
0.13600001 693595.66841493 25656.10498437
0.13700001 684914.51841254 14177.73119967
0.13800001 676291.58357673 18330.88423725
0.13900001 667731.04144066 15424.58778467
0.14000001 659230.94422357 19519.82917903
0.14100001 650794.47036780 16634.30744712
0.14200001 642420.65827460 15157.91614692
0.14300001 634112.25956342 17805.87308840
0.14400001 625865.57085772 13612.57680826
0.14500001 617687.29260376 21643.76375382
0.14600001 609574.82627591 13441.12555346
0.14700001 601530.47307143 18695.56798505
0.14800001 593551.58884332 13265.87863651
0.14900001 585642.08735326 15812.33710458
0.15000001 577801.10741062 15704.63484041
0.15100001 570029.61165305 19495.01363841
0.15200001 562329.30771016 14196.00404301
0.15300001 554699.45197470 12813.55794527
0.15400001 547138.58096650 19081.45891168
0.15500001 539650.83798105 12627.83020470
0.15600001 532232.89703717 12534.08531677
0.15700001 524890.27276466 14927.88006198
0.15800001 517616.67612332 17283.22163150
0.15900001 510418.22995080 15925.04952614
0.16000001 503290.33677794 14585.35464829
0.16100001 496238.24196320 16882.02578849
0.16200001 489258.92878453 14354.85764817
0.16300001 482352.98422983 13052.47236944
0.16400001 475521.37348044 12946.07000418
0.16500001 468762.95588982 11672.19815272
0.16600001 462079.41943867 15047.61700446
0.16700001 455468.91870729 13773.38075201
0.16800001 448932.86103302 12518.49342098
0.16900001 442472.30035030 13539.65303004
0.17000001 436084.35512979 11185.56423726
0.17100001 429771.50622005 12196.91592248
0.17200001 423532.31266225 14287.86324238
0.17300001 417367.18432892 13071.94083050
0.17400001 411276.87694863 18353.23150058
0.17500001 405259.13783556 10698.84174414
0.17600001 399314.03507767 13782.32457163
0.17700001 393445.18403832 10504.98690998
0.17800001 387647.77938868 11449.17770501
0.17900001 381923.02301324 14436.69095180
0.18000001 376272.65324432 15323.70452719
0.18100001 370695.12178343 14167.96822381
0.18200001 365187.63025609 14034.16129369
0.18300001 359752.92215229 10922.09923250
0.18400001 354389.92209455 12784.61704352
0.18500001 349098.47699713 12661.80235886
0.18600001 343878.22200305 10610.36304117
0.18700001 338727.65081261 11462.54424504
0.18800001 333645.92517873 14188.29363857
0.18900001 328637.43929105 12176.01770102
0.19000001 323694.20436836 10201.22333266
0.19100001 318822.53425817 11936.71624664
0.19200001 314017.54037133 9999.88904563
0.19300001 309282.41092533 13500.17787481
0.19400001 304612.76384569 10691.90851622
0.19500001 300010.84085720 10584.38296561
0.19600001 295474.16250843 13096.89287210
0.19700001 291005.25210098 11235.71331459
0.19800001 286600.32153728 8555.02000219
0.19900001 282260.40956506 10161.37522457
0.20000001 277983.48940626 10895.56338222
0.20100001 273771.63621364 10783.86526013
0.20200001 269621.55326462 11493.96735892
0.20300001 265534.30723316 11375.49025953
0.20400001 261509.04042051 8041.40337301
0.20500001 257544.30762451 8753.93142993
0.20600001 253639.78086547 10238.17023857
0.20700001 249795.64600109 11690.43678545
0.20800001 246010.24661250 7712.42159587
0.20900001 242285.53063997 9921.59294871
0.21000001 238615.85968444 7552.19231602
0.21100001 235005.19388009 8220.48207054
0.21200001 231449.45127281 9613.25341308
0.21300001 227950.00970845 9512.35435484
0.21400001 224506.06986657 7240.32109549
0.21500001 221117.84255313 8597.06212491
0.21600001 217781.54796072 9215.42663765
0.21700001 214499.40500834 9118.37013802
0.21800001 211269.61802773 6940.20728035
0.21900001 208090.83064089 8240.39728300
0.22000001 204962.49727993 11550.66208036
0.22100001 201886.31549593 10756.50339823
0.22200001 198859.16993610 10642.94327823
0.22300001 195880.40794712 11188.68943100
0.22400001 192949.48458479 7814.45449520
0.22500001 190068.30134445 6443.31572026
0.22600001 187231.89119663 7012.77081639
0.22700001 184442.91492066 7569.53758630
0.22800001 181698.59152484 8113.75098824
0.22900001 178998.56514117 7410.54094730
0.23000001 176343.36292422 8554.41694001
0.23100001 173732.53793108 6045.89260593
0.23200001 171162.78304259 6580.35350528
0.23300001 168636.14702171 7102.95484849
0.23400001 166149.80213821 7028.13696284
0.23500001 163704.05780835 9272.19827280
0.23600001 161298.82413317 7454.42550989
0.23700001 158932.79833466 7943.46163648
0.23800001 156605.20501178 6737.15623827
0.23900001 154315.85563733 6110.90817228
0.24000001 152063.09470506 5497.08113360
0.24100001 149848.21280083 6527.38845836
0.24200001 147669.45513902 9688.59340996
0.24300001 145525.33560029 5326.22753492
0.24400001 143416.20802033 6324.65507288
0.24500001 141340.76070077 5215.47431657
0.24600001 139299.18717837 6709.34566783
0.24700001 137290.99033383 9703.72765584
0.24800001 135314.84891933 5054.00984623
0.24900001 133369.09177405 7001.87764938
0.25000001 131456.06162381 6929.04933599
0.25100001 129572.63052396 5877.41479862
0.25200001 127721.02871800 5816.41592299
0.25300001 125897.16298055 5756.01856379
0.25400001 124103.30419653 5221.64677111
0.25500001 122336.14282523 5167.47891742
0.25600001 120598.17667556 4649.05993080
0.25700001 118886.45308026 5521.08714227
0.25800001 117201.54624567 5008.60831579
0.25900001 115543.72851969 5858.06731312
0.26000001 113910.59269291 6689.39987240
0.26100001 112302.54110191 5296.18808896
0.26200001 110720.43128705 5241.50546514
0.26300001 109160.91348398 4755.04961636
0.26400001 107626.24063482 4705.95759443
0.26500001 106114.67695752 6350.96371643
0.26600001 104625.48002259 5447.32587514
0.26700001 103159.05432982 5805.79185241
0.26800001 101714.87789743 4104.19551738
0.26900001 100291.34898372 5280.33977387
0.27000001 98889.65306747  4823.83750491
0.27100001 97508.24549163  4376.17026476
0.27200001 96147.92003725  5905.88626778
0.27300001 94806.93500151  4286.22173426
0.27400001 93484.49678823  5398.72994501
0.27500001 92182.93670324  4579.64851215
0.27600001 90898.07033941  4909.85950175
0.27700001 89633.66625944  4485.26887189
0.27800001 88386.10095725  4068.85435013
0.27900001 87156.75170405  4392.70049378
0.28000001 85944.21020967  4709.31322132
0.28100001 84749.18259132  4301.86871194
0.28200001 83571.25386617  4257.11987343
0.28300001 82409.76640881  4563.85307973
0.28400001 81263.56604200  3821.41937400
0.28500001 80133.93735995  3437.74607546
0.28600001 79019.74006744  4422.33996219
0.28700001 77921.59196829  5385.94069178
0.28800001 76836.77575190  4330.13670246
0.28900001 75768.79535923  4284.72558038
0.29000001 74714.29687082  3261.27921278
0.29100001 73674.80483865  4195.04358608
0.29200001 72648.95481640  3192.92171532
0.29300001 71637.46710918  3475.13369396
0.29400001 70638.77200705  3438.34239020
0.29500001 69654.84528215  3401.94280462
0.29600001 68682.94778481  3365.80801552
0.29700001 67724.55850542  4540.93186275
0.29800001 66779.35155881  2995.05405919
0.29900001 65847.17427255  3852.05987730
0.30000001 64926.55221725  4104.00755993
0.30100001 64019.33384410  2900.07596043
0.30200001 63123.32372466  3729.64175884
0.30300001 62240.17863309  3121.96750803
0.30400001 61368.64522637  3088.37721723
0.30500001 60509.42649387  3055.12108831
0.30600001 59660.54352152  4395.78905477
0.30700001 58824.22494286  2989.44725313
0.30800001 57998.88290656  2957.07318499
0.30900001 57184.99267188  2925.01251365
0.31000001 56382.13285041  3419.29460860
0.31100001 55589.91830303  2601.60829976
0.31200001 54809.46841551  3087.96559673
0.31300001 54038.96170495  2799.75873849
0.31400001 53280.73978892  2769.26658164
0.31500001 52531.24472689  4232.96790051
0.31600002 51794.03728054  2462.80658930
0.31700002 51066.33073252  2923.03690953
0.31800002 50348.92158890  2891.03521452
0.31900002 49642.40065777  2621.11887884
0.32000002 48946.17300673  3063.78584443
0.32100002 48259.62672655  3263.31611377
0.32200002 47584.29218539  2305.45906555
0.32300002 46917.21064416  4560.35309055
0.32400002 46261.44681259  2480.77020279
0.32500002 45615.19468097  2230.58312552
0.32600002 44978.90641120  3088.70164951
0.32700002 44352.62182792  3055.00873617
0.32800002 43737.00362716  2590.10547745
0.32900002 43128.96589397  2561.86069541
0.33000002 42532.05374061  2745.23153869
0.33100002 41943.73418835  3133.19709224
0.33200002 41366.58589017  2892.76548829
0.33300002 40798.09379901  2043.98459612
0.33400002 40239.69861112  2426.45394116
0.33500002 39690.40624693  3200.63451132
0.33600002 39150.23611412  2176.94898222
0.33700002 38619.48737180  2153.80891272
0.33800002 38098.83515111  2324.79103102
0.33900002 37586.69435132  2300.30580324
0.34000002 37084.04359291  2086.53381157
0.34100002 36590.73325109  1877.10470468
0.34200002 36107.40249666  2415.04373036
0.34300002 35632.38505560  2206.35738713
0.34400002 35167.38772941  2365.88612154
0.34500002 34710.98958996  1981.65048954
0.34600002 34264.39666691  2318.50051027
0.34700002 33825.72697111  2295.41394097
0.34800002 33396.89406961  2447.65848229
0.34900002 32976.69549861  2077.53191481
0.35000002 32565.81418910  2057.50823792
0.35100002 32164.48987599  1868.11366048
0.35200002 31770.57063000  2018.70215344
0.35300002 31386.81845990  2333.29619482
0.35400002 31011.08879249  1816.47461205
0.35500002 30644.70735264  2290.99843019
0.35600002 30286.50520105  1946.21091640
0.35700002 29937.09176710  1768.38409444
0.35800002 29596.74355675  1912.54165923
0.35900002 29265.45443020  1580.33461408
0.36000002 28942.35005341  1880.67399555
0.36100002 28627.20992743  1554.45757269
0.36200002 28322.18287029  2004.78580943
0.36300002 28024.05757672  1836.13633940
0.36400002 27735.10251141  2125.89570820
0.36500002 27453.51242607  1808.63748430
0.36600002 27181.26167453  1496.32852606
0.36700002 26916.58761931  1634.37527766
0.36800002 26660.99286912  1475.68602521
0.36900002 26413.27987614  1465.93710257
0.37000002 26173.02336777  1602.18170135
0.37100002 25940.81612814  1736.99713022
0.37200002 25717.25282608  1870.54447291
0.37300002 25501.17918708  2002.86270823
0.37400002 25292.74174089  1707.26014838
0.37500002 25092.33701882  2688.89496231
0.37600002 24899.80792623  1830.50946641
0.37700002 24714.68985391  2242.11676976
0.37800002 24537.03296747  1673.91646834
0.37900002 24367.81538110  1666.75865103
0.38000002 24205.00954945  1659.97963354
0.38100002 24048.97212296  2067.00925189
0.38200002 23901.37866345  1373.13426927
0.38300002 23760.16716065  1779.16140128
0.38400002 23626.43285537  1500.86921824
0.38500002 23499.01168529  2176.94854566
0.38600002 23379.68310976  1628.62880258
0.38700002 23266.02372012  1624.89917359
0.38800002 23159.25957814  1621.61143249
0.38900002 23059.15551373  2023.44099219
0.39000002 22966.13967288  1885.74981788
0.39100002 22878.64145029  2017.89627152
0.39200002 22798.39725054  1343.96558159
0.39300002 22723.58411843  1611.55666203
0.39400002 22656.28398401  1610.86186758
0.39500002 22593.59141586  1610.47127242
0.39600002 22537.11234017  1610.50212413
0.39700002 22485.98769942  1476.65488218
0.39800002 22441.77087908  1343.14005075
0.39900002 22402.01836073  1478.53328186
0.40000002 22368.24470983  1749.08497795
0.40100002 22339.46393841  2155.31158289
0.40200002 22316.46195589  1753.73924590
0.40300002 22298.34434570  1621.53567765
0.40400002 22285.38857843  2030.75613043
0.40500002 22276.81110105  1763.65521843
0.40600002 22274.08199353  1767.78260118
0.40700002 22275.24494199  1499.56956055
0.40800002 22281.14092330  2050.42209062
0.40900002 22291.10630311  2056.35465390
0.41000002 22306.03024280  1650.20019555
0.41100002 22324.96654261  1655.61959725
0.41200002 22347.05132487  1522.83988469
0.41300002 22374.66341782  1389.46666408
0.41400002 22405.12493628  1534.19100271
0.41500002 22439.45334890  1540.24415085
0.41600002 22476.29894046  1827.66033494
0.41700002 22518.31256711  1694.27791783
0.41800002 22563.76038362  1418.13240731
0.41900002 22610.83009790  1566.93060003
0.42000002 22661.50601757  1431.07417282
0.42100002 22715.88778149  1437.91576470
0.42200002 22772.81699231  2167.40295995
0.42300002 22831.96656693  1742.53577096
0.42400002 22893.75941916  1751.37267856
0.42500002 22958.63629211  2053.87970002
0.42600002 23024.54534864  1622.19441941
0.42700002 23093.90680285  1779.15466440
0.42800002 23164.58490547  2086.89755302
0.42900002 23238.19775368  1498.86382614
0.43000002 23313.50172772  1808.66154974
0.43100002 23389.01827830  2273.41268438
0.43200002 23467.49213743  1829.05642387
0.43300002 23546.72024001  2605.91565245
0.43400002 23627.89746926  1541.72038293
0.43500002 23709.61642305  1550.60898755
0.43600002 23793.38033253  2027.55300112
0.43700002 23877.32514061  1725.61436969
0.43800002 23961.78552687  1577.88365172
0.43900002 24048.05731406  1904.60622953
0.44000002 24134.32974490  2235.08038359
0.44100002 24221.49562805  2087.65080712
0.44200002 24308.87766650  1938.38999699
0.44300002 24396.84086811  2274.76155034
0.44400002 24484.78578264  1797.79548129
0.44500002 24572.33973221  2137.05648779
0.44600002 24659.87727540  1984.13381961
0.44700002 24748.35010104  2162.01596729
0.44800002 24835.43365447  2676.26645744
0.44900002 24922.83225799  2186.97863428
0.45000002 25010.12085469  1691.93475600
0.45100002 25096.09269096  2552.27274763
0.45200002 25181.90761106  1882.22177359
0.45300002 25266.60735506  1892.72164667
0.45400002 25350.75152258  2249.24553544
0.45500002 25434.33501757  1739.70859765
0.45600002 25516.36998817  1749.14724559
0.45700002 25597.82472896  1758.57064222
0.45800002 25677.58903118  2298.27271516
0.45900002 25756.21753330  2132.61491283
0.46000002 25834.00033906  2143.70544973
0.46100002 25909.43743581  1975.07650934
0.46200002 25984.21067233  1804.60351672
0.46300002 26057.25324364  2539.01887640
0.46400002 26128.13516380  1822.43751405
0.46500002 26198.42921083  1831.27028863
0.46600002 26265.92785832  2023.92116705
0.46700002 26331.54786867  3142.40707158
0.46800002 26396.13537038  2414.05867472
0.46900002 26457.91354376  3170.98108851
0.47000002 26517.80907275  2248.17995974
0.47100002 26575.87921738  2822.35850666
0.47200002 26631.97267927  2267.44626138
0.47300002 26685.75115675  2276.82839661
0.47400002 26736.55685242  2285.97571923
0.47500002 26785.70653940  2103.74949132
0.47600002 26833.21690579  2111.90843667
0.47700002 26877.05507680  2312.50192842
