# SAXS profile: number of points = 501, q_min = 0, q_max = 0.5, delta_q = 0.001
#    q    intensity    error
0.00000000 1664650.74656090 249.69761198
0.00100000 1664568.78000916 699.11890421
0.00200000 1664322.81041270 1048.52340376
0.00300000 1663913.07186636 1297.85224229
0.00400000 1663339.42792957 1372.25508018
0.00500000 1662602.38881633 1795.61065099
0.00600000 1661701.86105823 1919.26572766
0.00700000 1660638.42055451 2590.59604373
0.00800000 1659411.87691365 2464.22674126
0.00900000 1658023.47497772 3233.14591442
0.01000000 1656472.60355929 2733.17991389
0.01100000 1654760.49879870 3276.42593027
0.01200000 1652887.13186788 3867.75605815
0.01300000 1650853.64485996 4506.83064924
0.01400000 1648660.11186306 5564.22812421
0.01500000 1646307.88157588 4741.36691007
0.01600000 1643796.41376456 5868.35345948
0.01700000 1641127.95082748 5760.35936581
0.01800000 1638302.38507120 4669.16200755
0.01900000 1635320.51962429 7358.94267036
0.02000000 1632183.50289781 6169.65392004
0.02100000 1628893.27234248 5912.88284668
0.02200000 1625448.39926396 5607.79723224
0.02300000 1621852.23234442 7590.26879287
0.02400000 1618104.17843552 6067.89094581
0.02500000 1614206.92391118 7554.48874892
0.02600000 1610160.34274423 6521.14968638
0.02700000 1605966.61380317 6745.06008690
0.02800000 1601625.58126490 8360.48591761
0.02900000 1597139.86283545 9343.26862658
0.03000000 1592510.74146787 9626.72787467
0.03100000 1587738.58556085 9907.48922977
0.03200000 1582824.84271589 10185.47833200
0.03300000 1577773.40840610 9655.97370459
0.03400000 1572582.37536140 9907.26942190
0.03500000 1567254.89232754 8463.17680938
0.03600000 1561792.31669312 11268.33208569
0.03700000 1556196.35137968 8870.31961309
0.03800000 1550468.80754173 9070.24294389
0.03900000 1544611.32430345 13901.50256251
0.04000000 1538624.23907800 17978.82506675
0.04100000 1532511.33077717 9654.82183156
0.04200000 1526273.37070639 13782.24917688
0.04300000 1519911.22804009 12037.69748484
0.04400000 1513428.79669729 11237.20933736
0.04500000 1506827.22385292 11436.81916045
0.04600000 1500106.39516307 11633.32563529
0.04700000 1493270.66840707 12901.85917508
0.04800000 1486320.68285207 12016.90327998
0.04900000 1479259.89397911 15532.22960977
0.05000000 1472088.09618196 15766.06424427
0.05100000 1464809.84820579 14853.17255273
0.05200000 1457423.43325860 17379.77525153
0.05300000 1449935.01228506 14093.36897641
0.05400000 1442344.34695843 13089.27555905
0.05500000 1434654.23266838 13256.20572825
0.05600000 1426865.61752537 18299.55239870
0.05700000 1418983.50914360 16048.70423754
0.05800000 1411007.19371542 19979.86279592
0.05900000 1402938.90177050 15151.74084680
0.06000000 1394782.79887771 14038.48952657
0.06100000 1386540.12575690 16763.27090377
0.06200000 1378212.90349963 13024.11254686
0.06300000 1369804.41900056 15780.14764469
0.06400000 1361313.47518840 14600.08770419
0.06500000 1352746.35109530 13392.18950230
0.06600000 1344103.79269976 16209.89249840
0.06700000 1335387.39024411 13620.95201794
0.06800000 1326600.50796495 16476.37908017
0.06900000 1317745.58885336 13836.32933076
0.07000000 1308823.46521082 18120.66172441
0.07100000 1299837.26160708 15442.06739116
0.07200000 1290789.23972052 19787.79997191
0.07300000 1281682.43015528 18494.67833372
0.07400000 1272518.88544463 15747.42194537
0.07500000 1263300.22539657 24482.75951575
0.07600000 1254027.73159443 17380.82517472
0.07700000 1244706.69236929 16019.37588192
0.07800000 1235337.36909030 19030.37306329
0.07900000 1225921.66029806 14711.06061358
0.08000000 1216464.06658278 16258.04301256
0.08100000 1206965.10108398 14845.67143987
0.08200000 1197426.77952962 19380.35333611
0.08300000 1187852.71509381 22450.41736892
0.08400000 1178244.19214739 16524.87557052
0.08500000 1168604.11011809 15074.99372822
0.08600000 1158934.13526700 18148.90941040
0.08700000 1149237.85362201 16686.93441817
0.08800000 1139515.04800966 19776.28458698
0.08900000 1129770.97821988 15251.90892235
0.09000000 1120005.77013127 24460.92716873
0.09100000 1110221.86847376 18385.27500569
0.09200000 1100421.11281699 19956.13781861
0.09300000 1090609.19886853 16915.34946934
0.09400000 1080782.07759910 18481.37439552
0.09500000 1070945.95674667 23132.43375301
0.09600000 1061102.05247804 16982.93914824
0.09700000 1051254.62222043 20089.47677509
0.09800000 1041403.35323014 18557.80862711
0.09900000 1031551.65343257 15473.27552908
0.10000000 1021699.30929865 15478.74526380
0.10100000 1011849.88218729 24770.08628093
0.10200000 1002005.69173799 21673.38413173
0.10300000 992167.73378230 23216.72606264
0.10400000 982339.65325131 17019.03529324
0.10500000 972523.66624866 21648.37782924
0.10600001 962717.34342050 16996.77549785
0.10700001 952927.97295564 20068.66405483
0.10800001 943154.27561234 16962.63044518
0.10900001 933399.97699350 15401.10034526
0.11000001 923664.96552241 16916.92463981
0.11100001 913952.27037789 27637.91795724
0.11200001 904263.34518548 16859.99086470
0.11300001 894599.94667816 18357.19177011
0.11400001 884964.26198909 18318.76108570
0.11500001 875357.96926060 16754.35232058
0.11600001 865782.25737004 15194.47933237
0.11700001 856239.76987546 15155.44464054
0.11800001 846729.57540057 15114.12363275
0.11900001 837254.91027517 19591.76582324
0.12000001 827816.41443817 19532.32921874
0.12100001 818419.15529321 17972.48549689
0.12200001 809060.75485540 16419.88879335
0.12300001 799744.64256418 16362.77615779
0.12400001 790470.52437180 22231.98454547
0.12500001 781240.18250991 17718.52817423
0.12600001 772057.53205001 17649.23601436
0.12700001 762921.14034685 19042.51256046
0.12800001 753832.91556486 20421.33464509
0.12900001 744794.53064173 20332.89164485
0.13000001 735807.67147422 20242.06999636
0.13100001 726872.01632734 21588.09990253
0.13200001 717989.73013901 15756.28537066
0.13300001 709162.55170218 14254.16796120
0.13400001 700389.90795813 21274.34445722
0.13500001 691674.87790219 16932.20180937
0.13600001 683017.09260636 19650.40268082
0.13700001 674418.28866107 18148.59700363
0.13800001 665877.63960174 18048.61427250
0.13900001 657399.07419219 13805.38120907
0.14000001 648980.89942187 17843.73067113
0.14100001 640626.32451470 15009.87549129
0.14200001 632334.18600488 14919.92582249
0.14300001 624107.10787948 20221.07124907
0.14400001 615941.90973529 16076.08460240
0.14500001 607844.82355894 17305.34294305
0.14600001 599813.29363752 22484.00237267
0.14700001 591849.71196096 14452.97064793
0.14800001 583951.31640234 14356.44379107
0.14900001 576122.25013984 15555.30148769
0.15000001 568361.61316024 16735.40848913
0.15100001 560670.05126460 15339.93332641
0.15200001 553049.48022017 15230.98340397
0.15300001 545498.92542294 12601.02577190
0.15400001 538017.43541026 15010.68715632
0.15500001 530608.61135980 12416.24209178
0.15600001 523269.50274104 17252.19631959
0.15700001 516005.13941152 19566.91580998
0.15800001 508809.77148597 13348.62498497
0.15900001 501689.20472273 18060.81222250
0.16000001 494638.99026459 14334.63861450
0.16100001 487664.14190375 20145.40665299
0.16200001 480761.88213404 14105.55428768
0.16300001 473932.66004110 16322.24158235
0.16400001 467177.30653145 17343.95832378
0.16500001 460494.96025075 18346.12008253
0.16600001 453886.84635203 12506.85264172
0.16700001 447351.85285468 12400.59394662
0.16800001 440890.70957246 11176.58001538
0.16900001 434504.63913230 13295.84258525
0.17000001 428190.86290681 13179.71538261
0.17100001 421951.73546143 10886.35528897
0.17200001 415786.16474533 14026.54693006
0.17300001 409693.98291646 10693.01345909
0.17400001 403676.40259420 14835.10849594
0.17500001 397730.94385263 18900.17534449
0.17600001 391857.79947859 12484.59008102
0.17700001 386060.38079598 12369.37518492
0.17800001 380333.96380765 10211.96741057
0.17900001 374679.97204624 12139.63166770
0.18000001 369099.59866073 11023.16003468
0.18100001 363591.84357059 12903.87513785
0.18200001 358153.80825215 12780.71925121
0.18300001 352787.94995561 10710.64266662
0.18400001 347493.44995197 10607.23806088
0.18500001 342270.01214471 10504.26716896
0.18600001 337117.14997044 9456.13650341
0.18700001 332033.95977875 12172.36554057
0.18800001 327018.96766365 11125.18580554
0.18900001 322076.58689510 11015.01979224
0.19000001 317198.91974431 11814.07432408
0.19100001 312392.47361585 10796.28439829
0.19200001 307652.36666922 8906.53643592
0.19300001 302981.39390768 11461.78667313
0.19400001 298375.59592686 9600.23525260
0.19500001 293837.07130763 9502.69133514
0.19600001 289363.15836164 8550.68173366
0.19700001 284956.56644377 13541.13667733
0.19800001 280613.32080686 10051.56962633
0.19900001 276334.81861267 9948.05394020
0.20000001 272118.66935449 12306.56740318
0.20100001 267967.21966134 16238.81427896
0.20200001 263876.90645779 8035.05218140
0.20300001 259848.90404193 9541.65220740
0.20400001 255882.74386752 9442.07369500
0.20500001 251976.32458824 9343.28255736
0.20600001 248129.47108069 8474.86248535
0.20700001 244342.80094635 7623.49574988
0.20800001 240613.93667343 10560.54617980
0.20900001 236945.69811421 7463.78984342
0.21000001 233331.81280471 10338.93311412
0.21100001 229776.12457796 10229.63354980
0.21200001 226275.38504449 7952.44878334
0.21300001 222830.20189959 7868.13480104
0.21400001 219439.94232274 9907.71386427
0.21500001 216104.81078970 7701.97582068
0.21600001 212821.28101108 7620.06632687
0.21700001 209591.08567103 10280.44323822
0.21800001 206413.08422762 8136.80416497
0.21900001 203285.55079627 12746.00463758
0.22000001 200207.85186658 7964.26872382
0.22100001 197181.74949829 11819.07462377
0.22200001 194204.12300811 6496.12822179
0.22300001 191274.48866866 8354.87006011
0.22400001 188392.17894711 6994.05997413
0.22500001 185558.96844930 8806.62905905
0.22600001 182770.22822542 6845.65922190
0.22700001 180028.06771394 8004.04826907
0.22800001 177330.47383132 7309.56247700
0.22900001 174676.38829246 6026.33568108
0.23000001 172066.61158911 7154.53004823
0.23100001 169500.90397704 6488.49491110
0.23200001 166975.61807319 9337.27700425
0.23300001 164492.92846980 7505.81268106
0.23400001 162050.20103743 9710.85875645
0.23500001 159647.46163256 6216.67245000
0.23600001 157284.59085307 6150.61421622
0.23700001 154960.80820173 7191.73144880
0.23800001 152674.64503972 7662.74079698
0.23900001 150426.27421729 5956.88074076
0.24000001 148214.18212121 6429.53152454
0.24100001 146039.44487927 5831.35530986
0.24200001 143900.21019556 8392.26065558
0.24300001 141795.21067058 5708.67545163
0.24400001 139724.78544287 6161.86332951
0.24500001 137687.52622635 5588.73695390
0.24600001 135683.76782894 5027.08383587
0.24700001 133712.85227238 5968.94200781
0.24800001 131773.42767316 5413.91153207
0.24900001 129864.29918687 6817.87602985
0.25000001 127987.17825335 5782.46098704
0.25100001 126139.03849257 5721.66705671
0.25200001 124322.48185511 5189.84225057
0.25300001 122533.30851982 6069.07505812
0.25400001 120773.62916714 5543.50984104
0.25500001 119040.10721815 5942.48243348
0.25600001 117335.37527415 4523.27893083
0.25700001 115656.51407916 6713.86095995
0.25800001 114004.11193858 4871.96595421
0.25900001 112378.24440857 7450.67795682
0.26000001 110776.90878835 6505.37427640
0.26100001 109199.82482344 5149.86398235
0.26200001 107648.53266850 5945.42874060
0.26300001 106119.42944073 6303.49440705
0.26400001 104614.82979547 4574.28364925
0.26500001 103132.83849276 4938.00054069
0.26600001 101672.93537849 4886.40150551
0.26700001 100235.24901133 4432.40292102
0.26800001 98819.52955974  3987.36820642
0.26900001 97424.14325954  4734.81358647
0.27000001 96050.20135710  5856.66130490
0.27100001 94696.08277776  6181.76057627
0.27200001 93362.66678476  3823.20138576
0.27300001 92048.56672358  4539.83552565
0.27400001 90752.20910227  5240.94032368
0.27500001 89476.85171956  4074.77602015
0.27600001 88217.50835932  5131.61270412
0.27700001 86978.29426160  4715.09355507
0.27800001 85755.67393687  6101.08771099
0.27900001 84550.96605767  5326.71111373
0.28000001 83362.81030207  4567.86540669
0.28100001 82191.68497131  4867.39181437
0.28200001 81037.48886665  3784.04572173
0.28300001 79899.26565410  4084.45065356
0.28400001 78776.13037129  3704.44770604
0.28500001 77669.36612005  4664.82234996
0.28600001 76577.60453414  4944.99904685
0.28700001 75501.63891412  5218.67352876
0.28800001 74438.85688566  5163.07935797
0.28900001 73392.35522683  3192.56760348
0.29000001 72359.30737459  3474.33230805
0.29100001 71340.91404425  4062.15183796
0.29200001 70335.97801437  3400.39301806
0.29300001 69344.92762492  4587.16717953
0.29400001 68366.67005171  4537.83793949
0.29500001 67402.85873526  5087.56801817
0.29600001 66450.68719596  3552.45390566
0.29700001 65512.20319786  2928.39562157
0.29800001 64586.24747714  3186.36267012
0.29900001 63673.22208899  3724.88366854
0.30000001 62771.60250421  3117.55178596
0.30100001 61883.09691151  3363.96530736
0.30200001 61005.60036124  3881.78653475
0.30300001 60140.80523027  3016.66293316
0.30400001 59287.42427606  3526.11972575
0.30500001 58446.02684528  4024.00913880
0.30600001 57614.91419063  3183.80030890
0.30700001 56796.10362659  4460.76619002
0.30800001 55988.09699939  3373.56294442
0.30900001 55191.44281329  3079.68265479
0.31000001 54405.51567638  3553.22439705
0.31100001 53630.17491977  2760.88153558
0.31200001 52866.40258653  2730.28549085
0.31300001 52112.42559012  3190.84396996
0.31400001 51370.51328406  2912.70824111
0.31500001 50637.52109489  2640.24047490
0.31600002 49916.25670835  3085.57355452
0.31700002 49204.40795623  2816.46044477
0.31800002 48502.74911299  3945.45631341
0.31900002 47811.98107152  2753.97024012
0.32000002 47131.28404626  2950.18286457
0.32100002 46460.16859141  2917.23412399
0.32200002 45800.05232214  2884.71643210
0.32300002 45148.15386449  2852.46049623
0.32400002 44507.35022604  3254.60013939
0.32500002 43876.14255544  2360.09781981
0.32600002 43254.71469860  2545.97262772
0.32700002 42643.07332484  2517.64716832
0.32800002 42042.09082575  2697.21046465
0.32900002 41448.60896498  2256.87686501
0.33000002 40866.21601149  3043.51158158
0.33100002 40292.30352352  2006.55681049
0.33200002 39729.48894987  2778.28329383
0.33300002 39175.20864756  2355.21365542
0.33400002 38630.98340858  2911.81051231
0.33500002 38095.66097837  2304.02568508
0.33600002 37569.51220901  2278.96671852
0.33700002 37052.73905001  2066.43135468
0.33800002 36545.94610962  2044.19759245
0.33900002 36047.64588477  1838.43002719
0.34000002 35558.76052020  2546.36296144
0.34100002 35079.10351740  2339.42552437
0.34200002 34609.49756660  2136.79048096
0.34300002 34148.18748298  2466.86518060
0.34400002 33696.72601861  2092.56678486
0.34500002 33253.87654695  2588.81441179
0.34600002 32820.66373852  2049.97875420
0.34700002 32395.44413118  1860.14649011
0.34800002 31980.11349537  2008.99082493
0.34900002 31573.25517241  1657.59597506
0.35000002 31175.70783250  2626.24175219
0.35100002 30787.78232549  1788.15448216
0.35200002 30407.10127045  1771.06169738
0.35300002 30036.53692439  2232.91626072
0.35400002 29674.25118901  1738.16934572
0.35500002 29321.11556729  1878.89717454
0.35600002 28976.13737698  2327.50834505
0.35700002 28639.94723291  2153.15133495
0.35800002 28312.68868664  1829.56602959
0.35900002 27994.64790520  1511.71105848
0.36000002 27684.77158693  2248.69567866
0.36100002 27382.77864430  1932.95043606
0.36200002 27090.79958388  1475.09410721
0.36300002 26805.99612950  1609.96820380
0.36400002 26530.09494823  1743.02732066
0.36500002 26261.71430485  1874.29863872
0.36600002 26002.56687313  1860.87378642
0.36700002 25751.07497665  1705.75128725
0.36800002 25508.55844888  1411.89877703
0.36900002 25274.06818421  1683.25302080
0.37000002 25046.97109345  1672.63680885
0.37100002 24827.89597058  1523.93632686
0.37200002 24617.47190481  1928.28666565
0.37300002 24414.55310436  1643.58779284
0.37400002 24219.39963215  2179.74607015
0.37500002 24032.16266163  1490.95544216
0.37600002 23852.82302000  1618.65264682
0.37700002 23680.78133297  2014.05054778
0.37800002 23516.37880476  1604.28743806
0.37900002 23360.32367147  1331.53851235
0.38000002 23210.76144577  2122.39212715
0.38100002 23067.96531498  2114.87116027
0.38200002 22933.56283725  1844.54654638
0.38300002 22805.57164443  1576.32118674
0.38400002 22685.09077669  2620.12810883
0.38500002 22571.04384373  1829.60890065
0.38600002 22464.86635283  1564.90266427
0.38700002 22364.52284081  1561.93834920
0.38800002 22271.02240709  1559.41706282
0.38900002 22184.20939012  1816.88683513
0.39000002 22104.56164151  1685.36238220
0.39100002 22030.38340810  1554.46392692
0.39200002 21963.30101574  1294.73665622
0.39300002 21901.83778707  1294.39867454
0.39400002 21847.76117359  1423.92790195
0.39500002 21798.47026267  1553.79503394
0.39600002 21755.39081577  1295.53358446
0.39700002 21717.53753088  1426.19075722
0.39800002 21686.61251090  1427.73820230
0.39900002 21660.23809999  1819.46008660
0.40000002 21639.77164170  1561.95879110
0.40100002 21624.36833355  1303.94947229
0.40200002 21614.69761379  1698.59109246
0.40300002 21609.86420192  1571.46939922
0.40400002 21610.15413230  1706.66200346
0.40500002 21614.96876482  1711.25715819
0.40600002 21625.51012727  1716.30869257
0.40700002 21640.15742854  2251.44208554
0.40800002 21659.25057737  1860.31312023
0.40900002 21682.38560387  2533.58687786
0.41000002 21710.66397477  2141.53999594
0.41100002 21742.80524827  1746.81705641
0.41200002 21778.25649142  2158.66088571
0.41300002 21818.95812475  2303.42751837
0.41400002 21862.66867599  1769.23654644
0.41500002 21910.14099923  2050.78929470
0.41600002 21960.29446406  1785.70142896
0.41700002 22015.45576379  1656.44297016
0.41800002 22074.00626818  1664.82163163
0.41900002 22134.12559435  1952.22996993
0.42000002 22197.88538372  2383.05409829
0.42100002 22265.32967582  1832.21406584
0.42200002 22335.30343951  1700.61008447
0.42300002 22407.45630498  2137.67143279
0.42400002 22482.24514105  2149.86479349
0.42500002 22559.92558495  1585.73724451
0.42600002 22638.75006172  1885.01561321
0.42700002 22721.03216779  1604.55936772
0.42800002 22804.55493253  1614.22049739
0.42900002 22891.03702569  1771.76634975
0.43000002 22978.94180585  1485.58865815
0.43100002 23067.17708298  2092.65440413
0.43200002 23158.30097626  2105.78440756
0.43300002 23250.12748979  1513.58337131
0.43400002 23343.77727521  1523.18153939
0.43500002 23438.03025773  1839.41670179
0.43600002 23534.14663643  1696.92972364
0.43700002 23630.45392120  2328.78134429
0.43800002 23727.30104531  1562.44284788
0.43900002 23825.83514047  2201.50727131
0.44000002 23924.28765254  2215.62838450
0.44100002 24023.57876507  1752.03968237
0.44200002 24123.02831370  2725.05802260
0.44300002 24222.99332534  1935.90171830
0.44400002 24322.84115505  2597.67955847
0.44500002 24422.28833478  1797.23628373
0.44600002 24521.59425390  2795.09405349
0.44700002 24621.78471277  2150.95921444
0.44800002 24720.51059584  1831.41911429
0.44900002 24819.49844450  3350.63244880
0.45000002 24918.29153842  1854.29475271
0.45100002 25015.60175123  2713.69260658
0.45200002 25112.74885596  2218.33477532
0.45300002 25208.68917199  1888.38299537
0.45400002 25303.91865840  2417.78954240
0.45500002 25398.51515258  1910.98437065
0.45600002 25491.56114218  2096.93591894
0.45700002 25583.83337268  2987.93604120
0.45800002 25674.40820242  1944.45139737
0.45900002 25763.71802872  2844.31460518
0.46000002 25852.03239420  2502.73537470
0.46100002 25938.03182652  1797.50569077
0.46200002 26023.16624936  2168.77077801
0.46300002 26106.48848650  2543.81635869
0.46400002 26187.50860943  2739.86821812
0.46500002 26267.87721298  2386.96211547
0.46600002 26345.29242501  2399.13416839
0.46700002 26420.79284009  2040.21371981
0.46800002 26495.07939486  2609.50049328
0.46900002 26566.56354982  2247.53138284
0.47000002 26635.97591350  2070.01496623
0.47100002 26703.50010807  2268.72947671
0.47200002 26768.81032446  3418.64492857
0.47300002 26831.70880315  2670.82842086
0.47400002 26891.69191866  2299.23976802
0.47500002 26949.76452032  2116.63460575
0.47600002 27005.95633364  2125.50389398
0.47700002 27058.60354272  2716.14275236
