# SAXS profile: number of points = 501, q_min = 0, q_max = 0.5, delta_q = 0.001
#    q    intensity    error
0.00000000 1664650.74656090 299.63713438
0.00100000 1664569.22064975 499.37077805
0.00200000 1664324.57619496 1048.52451620
0.00300000 1663917.04872944 1198.02031776
0.00400000 1663346.49686793 1746.51388808
0.00500000 1662613.43590665 2693.43387278
0.00600000 1661717.77090982 1919.28410354
0.00700000 1660660.04942999 2192.07135635
0.00800000 1659440.12768154 2464.26869365
0.00900000 1658059.16533570 3979.34216691
0.01000000 1656516.65465077 3006.57785801
0.01100000 1654813.73687315 2978.66485606
0.01200000 1652950.41033432 4190.22947391
0.01300000 1650927.90977564 3813.64363978
0.01400000 1648746.11807157 3709.67893011
0.01500000 1646406.49337929 4741.65091207
0.01600000 1643908.46209840 4611.16344232
0.01700000 1641254.26897629 4431.38672502
0.01800000 1638443.87528505 5136.52178015
0.01900000 1635477.87256528 6378.36399081
0.02000000 1632357.55698816 6684.50449824
0.02100000 1629084.87843812 6988.77444536
0.02200000 1625658.34591589 7851.93016751
0.02300000 1622081.30324479 8759.23943623
0.02400000 1618353.08483183 7889.47164830
0.02500000 1614476.37289704 7555.74977023
0.02600000 1610451.21445191 7826.79326022
0.02700000 1606279.64738484 7421.01231081
0.02800000 1601961.45589158 8362.23918324
0.02900000 1597499.31554507 7907.62197502
0.03000000 1592894.50743592 7406.95980004
0.03100000 1588147.30125129 8385.41813645
0.03200000 1583259.33083287 10971.98766802
0.03300000 1578234.15390785 8853.89401159
0.03400000 1573070.10969903 9084.48030267
0.03500000 1567770.24223917 9312.55566894
0.03600000 1562336.00990249 9538.06178124
0.03700000 1556769.05118477 14197.73440342
0.03800000 1551070.84879964 9981.14137395
0.03900000 1545243.78827520 11125.75579082
0.04000000 1539287.18777681 11359.93997220
0.04100000 1533205.56638970 14488.79327418
0.04200000 1526999.49523971 11818.97664147
0.04300000 1520669.71311095 11040.06262964
0.04400000 1514220.03554888 16353.57714342
0.04500000 1507651.83483388 17684.75684432
0.04600000 1500964.90021717 11639.98334229
0.04700000 1494163.50529487 13985.37105999
0.04800000 1487248.22993576 12024.40249850
0.04900000 1480222.58617050 15542.33787825
0.05000000 1473086.39353117 16903.66715291
0.05100000 1465844.17717363 13720.30213749
0.05200000 1458494.21937373 13914.03550124
0.05300000 1451042.64110598 12928.79053497
0.05400000 1443489.00760537 14290.54184172
0.05500000 1435836.32454415 14473.23082657
0.05600000 1428085.42464155 20757.22261578
0.05700000 1420241.51594883 16062.93229518
0.05800000 1412303.41829139 18748.32875322
0.05900000 1404273.74769098 17693.85004731
0.06000000 1396156.55137350 15329.79965027
0.06100000 1387952.77072407 23234.33046769
0.06200000 1379664.89153435 18252.96736821
0.06300000 1371295.96619877 19746.66283652
0.06400000 1362844.64144783 14616.50946309
0.06500000 1354317.06455167 20111.60934937
0.06600000 1345714.63500586 14876.87598606
0.06700000 1337038.18880675 23184.24327891
0.06800000 1328291.34815600 19246.94253571
0.06900000 1319476.60296508 24938.10896362
0.07000000 1310594.76004638 20936.75227218
0.07100000 1301648.68987264 22492.49041450
0.07200000 1292641.03690170 14154.42001716
0.07300000 1283574.42589613 25645.81823105
0.07400000 1274451.09503304 14337.57549104
0.07500000 1265272.49689884 18751.33928296
0.07600000 1256040.10187560 20310.16939948
0.07700000 1246759.15072259 17504.49929691
0.07800000 1237429.74944851 17596.25186236
0.07900000 1228054.04570508 20631.30893553
0.08000000 1218635.96485277 19248.35596781
0.08100000 1209176.55266407 14872.87229558
0.08200000 1199677.58659205 16429.58531934
0.08300000 1190142.74251093 14995.79925942
0.08400000 1180573.17810684 21073.23221836
0.08500000 1170971.76894426 22658.30479277
0.08600000 1161340.26233954 19702.13847564
0.08700000 1151682.16397839 22803.30791756
0.08800000 1141997.34925248 21343.93145992
0.08900000 1132291.07859301 21400.30239057
0.09000000 1122563.00139750 18387.58282666
0.09100000 1112815.97972780 15356.86124173
0.09200000 1103052.01260220 18465.09155858
0.09300000 1093276.18619186 16956.71444467
0.09400000 1083485.07756361 16983.62938900
0.09500000 1073684.35147081 18553.26646547
0.09600000 1063875.47265693 23219.08328222
0.09700000 1054062.71451489 18593.66715818
0.09800000 1044245.61598758 21709.86737713
0.09900000 1034427.57168117 21722.98002677
0.10000000 1024608.36653509 17075.09923130
0.10100000 1014791.56375527 20184.20515239
0.10200000 1004979.50712379 17079.62752693
0.10300000 995173.41071888 18629.64712501
0.10400000 985376.37934111 17071.64657522
0.10500000 975591.01513868 20165.46723169
0.10600001 965814.54715819 18601.58905354
0.10700001 956054.59128521 20134.51063995
0.10800001 946309.69376195 18566.59706538
0.10900001 936583.54164519 18544.35499738
0.11000001 926876.32828159 16975.74075152
0.11100001 917190.47289497 21572.32093797
0.11200001 907528.04988350 18459.12140363
0.11300001 897890.14106257 21495.49098906
0.11400001 888279.43354572 18387.38514016
0.11500001 878697.59881876 19876.14062121
0.11600001 869145.27882333 18304.20043399
0.11700001 859625.66136742 15215.37492277
0.11800001 850137.67563254 16692.45404723
0.11900001 840684.40974431 24211.71214105
0.12000001 831266.67781671 19613.73818699
0.12100001 821889.24820166 16544.63134569
0.12200001 812550.18660987 20988.17230891
0.12300001 803252.51540077 19422.64673748
0.12400001 793996.21151880 20842.40153441
0.12500001 784782.80785930 17798.87492094
0.12600001 775616.33031266 19208.13932535
0.12700001 766495.19000608 19131.72084416
0.12800001 757421.46213606 20518.54837629
0.12900001 748397.16085281 17512.49438936
0.13000001 739423.17851512 18888.56598548
0.13100001 730499.41201669 18803.05575164
0.13200001 721628.85913891 17275.79570217
0.13300001 712811.92588474 20058.52854002
0.13400001 704049.24927566 15682.69776699
0.13500001 695342.99383020 15603.49751723
0.13600001 686693.22117999 23989.62881305
0.13700001 678101.71049005 14036.70606902
0.13800001 669567.45628939 20940.72318293
0.13900001 661094.27868657 13882.98050711
0.14000001 652680.83932040 15184.62044290
0.14100001 644330.08839609 16469.07783613
0.14200001 636041.00521111 13643.08020526
0.14300001 627816.01532484 17629.07454184
0.14400001 619652.03862351 20216.14871369
0.14500001 611555.49041612 16071.67904627
0.14600001 603523.49634679 17300.00183890
0.14700001 595558.77875252 17187.82716566
0.14800001 587658.29384834 15760.99618460
0.14900001 579826.44950029 26092.19145856
0.15000001 572061.90473650 16844.36357973
0.15100001 564365.91950254 14154.29792899
0.15200001 556739.90225805 17888.05390363
0.15300001 549183.03968148 19029.19322293
0.15400001 541694.38368264 13853.83451646
0.15500001 534277.77092544 13752.31047263
0.15600001 526929.97349140 13650.12160751
0.15700001 519656.07295553 13547.43446135
0.15800001 512450.37444131 15888.52460947
0.15900001 505318.77256865 13340.41622549
0.16000001 498256.36440446 18049.33765252
0.16100001 491268.89695816 17906.75213940
0.16200001 484353.09269184 16579.40714549
0.16300001 477509.41622991 14096.07863255
0.16400001 470739.13182182 15146.03228140
0.16500001 464040.85343514 13865.54135525
0.16600001 457416.02048480 12604.09903954
0.16700001 450863.55835190 11361.76220691
0.16800001 444384.46149689 16897.71994627
0.16900001 437979.58027360 12285.32780676
0.17000001 431646.26325543 13286.07261037
0.17100001 425386.74739910 12072.47646126
0.17200001 419200.09775459 11966.06735548
0.17300001 413086.24272231 11859.70658863
0.17400001 407046.18724215 12821.95550366
0.17500001 401077.66210554 11647.29585762
0.17600001 395180.82875630 15738.07724851
0.17700001 389358.97026417 10395.88499706
0.17800001 383607.46091846 11329.84689336
0.17900001 377927.87780733 13265.26913760
0.18000001 372321.27703783 12130.22777886
0.18100001 366786.43627134 11014.59720152
0.18200001 361320.90997744 13885.56322636
0.18300001 355926.91006221 12770.65813631
0.18400001 350603.52104329 11675.09780228
0.18500001 345350.85186936 16379.99167799
0.18600001 340168.26253587 10495.89223641
0.18700001 335054.56525247 9448.53918651
0.18800001 330008.67570321 13098.04495749
0.18900001 325035.09387843 10189.85067453
0.19000001 320125.37178306 11005.91080192
0.19100001 315286.46248341 12712.35076799
0.19200001 310513.36819074 12585.10740743
0.19300001 305809.17442478 8899.04739626
0.19400001 301169.49545729 15856.57468511
0.19500001 296596.70343432 13079.91523955
0.19600001 292088.21467832 11220.56929711
0.19700001 287646.46372319 9397.41041394
0.19800001 283267.88748960 9301.10152528
0.19900001 278953.66173829 11716.05434671
0.20000001 274701.28059597 10766.91720182
0.20100001 270513.21695485 13114.48137779
0.20200001 266385.95012332 8922.59782109
0.20300001 262320.94982405 11237.83002161
0.20400001 258317.15340131 8737.57812679
0.20500001 254373.01916493 10218.16466284
0.20600001 250488.25140278 9333.19268843
0.20700001 246663.04587027 10774.24235290
0.20800001 242895.59627530 8376.25503350
0.20900001 239188.59564228 8287.88523078
0.21000001 235535.66599033 9691.11543529
0.21100001 231940.73963810 8113.28745608
0.21200001 228400.72123616 7297.40338848
0.21300001 224915.98541879 7219.80347326
0.21400001 221485.99103464 7142.92354856
0.21500001 218110.97670305 11306.87356685
0.21600001 214787.48885366 8389.59971127
0.21700001 211517.22138874 8991.59750635
0.21800001 208298.97801226 10948.19480196
0.21900001 205131.14702351 12861.72352650
0.22000001 202013.13545796 7366.40933278
0.22100001 198946.67957865 7287.41721754
0.22200001 195928.60091965 9175.33681492
0.22300001 192958.65974465 7780.09352879
0.22400001 190035.81181636 8337.82163771
0.22500001 187162.16983195 6979.27764306
0.22600001 184333.00324094 8159.50077431
0.22700001 181550.56293112 8692.64136421
0.22800001 178812.48794314 8599.09295184
0.22900001 176118.24818730 6683.68783479
0.23000001 173468.29402459 6611.74433943
0.23100001 170862.45226202 6540.61498191
0.23200001 168297.10011706 8822.97589091
0.23300001 165774.53758391 7564.29250770
0.23400001 163292.06204745 9209.67273505
0.23500001 160849.67477157 6832.89450747
0.23600001 158447.37398344 7322.64573498
0.23700001 156084.33556994 7243.87435642
0.23800001 153759.10199142 6063.49047383
0.23900001 151471.80487817 5452.98523354
0.24000001 149220.94828529 7552.07254993
0.24100001 147007.80777322 6937.29877696
0.24200001 144830.28766858 8446.50277637
0.24300001 142687.34097494 5222.35692671
0.24400001 140579.19291830 7749.42837620
0.24500001 138504.41012251 5621.89427281
0.24600001 136463.34989630 5561.56408811
0.24700001 134455.53999522 5501.92095688
0.24800001 132479.50138690 5937.73153306
0.24900001 130534.07202015 4895.02793233
0.25000001 128620.84556990 5326.83257128
0.25100001 126737.22705315 8623.20133665
0.25200001 124885.23233308 5687.27374951
0.25300001 123061.03324050 5157.48814711
0.25400001 121266.78639634 5566.14575893
0.25500001 119498.94180209 6883.13937345
0.25600001 117760.35817990 5447.59442714
0.25700001 116047.99249243 6287.48053072
0.25800001 114362.46369657 4442.98192483
0.25900001 112703.83416498 5274.53968848
0.26000001 111070.26366532 5652.92133672
0.26100001 109461.32694383 6022.56249341
0.26200001 107878.50256501 6383.71069134
0.26300001 106318.39651734 7157.35479222
0.26400001 104783.08094361 4581.64043105
0.26500001 103270.98001167 4120.51229744
0.26600001 101781.35882396 7337.41850482
0.26700001 100314.47264754 4032.64199126
0.26800001 98869.89775248  4787.28067571
0.26900001 97446.23334400  5525.20169207
0.27000001 96044.33495053  5856.30360074
0.27100001 94662.91126858  5020.92105129
0.27200001 93302.44626084  5349.02949727
0.27300001 91962.01805772  6047.42259366
0.27400001 90639.74464404  4112.77860786
0.27500001 89338.96382481  5178.08658834
0.27600001 88054.67328097  4390.40621757
0.27700001 86791.02931458  3619.18609370
0.27800001 85544.40709924  3580.03360654
0.27900001 84316.37968683  3895.41692589
0.28000001 83105.26609772  4553.75327135
0.28100001 81911.75322839  4504.32752321
0.28200001 80735.69092788  3769.95326631
0.28300001 79575.99279478  3389.93745350
0.28400001 78432.08893164  4023.56635263
0.28500001 77304.98432882  3648.02238314
0.28600001 76193.33742956  3608.13566476
0.28700001 75098.10008629  3244.23807729
0.28800001 74016.46076294  3850.33647114
0.28900001 72951.71085659  4125.41944421
0.29000001 71900.91387844  3138.47503935
0.29100001 70865.38378453  3724.68474802
0.29200001 69843.67000155  3376.59238606
0.29300001 68836.52073850  3946.39792074
0.29400001 67842.51566662  3302.23460639
0.29500001 66863.62916843  3859.36885829
0.29600001 65896.84335474  3229.27496146
0.29700001 64944.21326886  3193.30711759
0.29800001 64004.70283853  3731.79437566
0.29900001 63078.57109865  4825.51091748
0.30000001 62164.31869599  4210.07868299
0.30100001 61263.79809539  3607.82524063
0.30200001 60374.78373002  3292.84086052
0.30300001 59498.89985173  3255.77995402
0.30400001 58634.95748179  3487.31426133
0.30500001 57783.48378414  3182.71443751
0.30600001 56942.84088257  4195.54871486
0.30700001 56114.86527011  2851.75758804
0.30800001 55298.23016241  2563.07308937
0.30900001 54493.42395445  2533.94433385
0.31000001 53699.93618754  2505.10214175
0.31100001 52917.32664746  2724.18410479
0.31200001 52146.87178514  2448.29574623
0.31300001 51386.65667875  2420.31164416
0.31400001 50638.87782508  2392.68709052
0.31500001 49900.54089703  3547.92862576
0.31600002 49174.35842367  2805.88902451
0.31700002 48457.97851826  2311.44568476
0.31800002 47752.32465248  2741.93861137
0.31900002 47057.93038668  3388.17114827
0.32000002 46374.08932973  2679.49500834
0.32100002 45700.23018459  3310.98183365
0.32200002 45037.73298692  2618.49391985
0.32300002 44383.89772500  2372.76328473
0.32400002 43741.60026992  2985.36435978
0.32500002 43109.10634349  2318.83894002
0.32600002 42486.93106670  2292.38247425
0.32700002 41874.90232327  2678.31887942
0.32800002 41273.82102002  2240.54948017
0.32900002 40680.68717815  3020.54116601
0.33000002 40098.99542253  2588.18978211
0.33100002 39526.14262237  3346.28339287
0.33200002 38964.64083394  2530.16907237
0.33300002 38412.10107844  2309.33562619
0.33400002 37869.95369856  2854.44789520
0.33500002 37337.03515159  2258.14399291
0.33600002 36813.49301304  3163.56767189
0.33700002 36299.65513610  2760.58890383
0.33800002 35796.31242203  2184.29108743
0.33900002 35301.51626819  1980.41515643
0.34000002 34816.48741777  1958.94975733
0.34100002 34341.01378028  2466.37172650
0.34200002 33875.73560139  1917.19734716
0.34300002 33419.05023904  1896.86538140
0.34400002 32972.49023446  2047.59174053
0.34500002 32534.81228985  2026.26820538
0.34600002 32107.09577849  2339.64418019
0.34700002 31687.41042477  2977.34922452
0.34800002 31277.87165133  2619.83465359
0.34900002 30877.10544778  2431.57216918
0.35000002 30485.86659124  1926.09714246
0.35100002 30104.33410353  2066.36159073
0.35200002 29730.26866458  2361.32670052
0.35300002 29366.62267093  1715.30451145
0.35400002 29011.27202373  2008.30540096
0.35500002 28665.27003506  1836.87059085
0.35600002 28327.67547786  1668.64180306
0.35700002 27998.90470010  1804.24950433
0.35800002 27679.30187892  1639.58352446
0.35900002 27368.93413805  1625.71476480
0.36000002 27066.93186783  1612.24187307
0.36100002 26772.97499163  2180.65891636
0.36200002 26489.11277356  1442.33225884
0.36300002 26212.47192981  1860.56134571
0.36400002 25944.81315634  1988.67002263
0.36500002 25684.90999777  1551.11178824
0.36600002 25434.24388071  2240.24830713
0.36700002 25191.28458627  3337.34154007
0.36800002 24957.47129029  1381.39610135
0.36900002 24731.59276125  1509.86380960
0.37000002 24513.20868865  1500.57614096
0.37100002 24302.94609170  1356.10445616
0.37200002 24101.38038951  1887.86121534
0.37300002 23907.26488861  1743.55691092
0.37400002 23721.02886957  1467.73873083
0.37500002 23542.69723508  1460.58900565
0.37600002 23372.30821386  1718.21531974
0.37700002 23209.19207337  2237.13412993
0.37800002 23053.75942398  1834.84879948
0.37900002 22906.50725462  1958.50646305
0.38000002 22765.89579219  1951.60650924
0.38100002 22631.99944963  1556.17635588
0.38200002 22506.52770472  1680.90010126
0.38300002 22387.42351765  2965.88600812
0.38400002 22275.69260667  2058.27409437
0.38500002 22170.41631910  1540.40059883
0.38600002 22072.99618986  1409.47123848
0.38700002 21981.30577068  1279.31205646
0.38800002 21896.47765970  1277.65953197
0.38900002 21818.21861090  1914.54877381
0.39000002 21747.08368101  2040.74642931
0.39100002 21681.41641381  1274.86734553
0.39200002 21622.64711894  1402.12061886
0.39300002 21569.50332578  1529.70924834
0.39400002 21523.66085565  1912.91544917
0.39500002 21482.41625019  1276.05558572
0.39600002 21447.40575691  1404.91238067
0.39700002 21417.47595432  1790.07272507
0.39800002 21394.35679754  2048.72370400
0.39900002 21375.74553716  1539.05375159
0.40000002 21362.89744152  1798.96967878
0.40100002 21355.03545021  1802.79217812
0.40200002 21352.80214000  2710.63159609
0.40300002 21355.26034815  1682.36748994
0.40400002 21362.69112550  1557.34025684
0.40500002 21374.52097885  1562.05006715
0.40600002 21392.04845083  1567.18154376
0.40700002 21413.50735288  1965.76006813
0.40800002 21439.20197441  1709.88363449
0.40900002 21468.91539148  1452.37219505
0.41000002 21503.64650467  1458.26985681
0.41100002 21542.06148486  1464.42940913
0.41200002 21583.61966176  1470.81583154
0.41300002 21630.31816785  1477.56710406
0.41400002 21679.90484602  1484.53155467
0.41500002 21733.11983695  1898.60543892
0.41600002 21788.84280306  1771.75983648
0.41700002 21849.32332426  1369.95263734
0.41800002 21913.28562236  1514.97507329
0.41900002 21978.47045044  1523.10807439
0.42000002 22047.26965519  1949.19920258
0.42100002 22119.55210610  1680.20125760
0.42200002 22194.11720783  1549.03848392
0.42300002 22270.88384573  1699.71393565
0.42400002 22350.02171504  1709.77674222
0.42500002 22431.97385934  1720.08383704
0.42600002 22514.82975018  2018.90487937
0.42700002 22600.99526460  2031.37755064
0.42800002 22688.38088784  2043.99633104
0.42900002 22778.40344702  1763.04851035
0.43000002 22869.82518508  1774.24112194
0.43100002 22961.36673614  2083.05528901
0.43200002 23055.66889539  2395.94522515
0.43300002 23150.48563316  1959.22569198
0.43400002 23247.06722953  2123.61969205
0.43500002 23344.01483671  2442.71782827
0.43600002 23442.72414484  1844.00476862
0.43700002 23541.55306639  1856.01613171
0.43800002 23640.57059086  2023.75114133
0.43900002 23741.29728779  1880.31083430
0.44000002 23841.72842862  1892.55649235
0.44100002 23942.89029546  2063.63781236
0.44200002 24044.03818190  2077.04433677
0.44300002 24145.58524297  1929.71526407
0.44400002 24246.83741401  1942.17176890
0.44500002 24347.60326660  1791.74020930
0.44600002 24448.11453573  2131.02000450
0.44700002 24549.31071003  1814.68513369
0.44800002 24648.99104959  1992.13155104
0.44900002 24748.70700296  2171.69914243
0.45000002 24848.18439071  2185.27367981
0.45100002 24945.96896649  2029.60413130
0.45200002 25043.47882678  2212.21580701
0.45300002 25139.71669413  2225.61922441
0.45400002 25235.14177397  1722.29850770
0.45500002 25329.77365743  1905.81226031
0.45600002 25422.74943353  2439.82137877
0.45700002 25514.79206406  2278.72618724
0.45800002 25605.15071037  2468.08059394
0.45900002 25694.00775027  2836.61859007
0.46000002 25781.84305893  1961.09598522
0.46100002 25867.25125265  2509.64083548
0.46200002 25951.66615154  2523.28061950
0.46300002 26034.17502808  3080.36373532
0.46400002 26114.30351594  2003.62003222
0.46500002 26193.69693739  2014.03345297
0.46600002 26270.01735851  2024.23628350
0.46700002 26344.41245594  2219.25341047
0.46800002 26417.41855195  2230.15857986
0.46900002 26487.51921925  2240.84423216
0.47000002 26555.53209877  2063.76327487
0.47100002 26621.58788099  2638.73191583
0.47200002 26685.35878251  2650.65681350
0.47300002 26746.66227314  2091.85655553
0.47400002 26804.92423785  2482.80622521
0.47500002 26861.24938854  2876.83994587
0.47600002 26915.58999696  1925.81055556
0.47700002 26966.38203133  2320.18761995
