# SAXS profile: number of points = 501, q_min = 0, q_max = 0.5, delta_q = 0.001
#    q    intensity    error
0.00000000 1664650.74656090 324.60689558
0.00100000 1664569.21537492 499.37077647
0.00200000 1664324.55245655 1123.41910848
0.00300000 1663916.99333606 1198.02027788
0.00400000 1663346.39364984 1746.51377970
0.00500000 1662613.28916770 1945.25762532
0.00600000 1661717.55288383 1919.28385172
0.00700000 1660659.75171030 2590.62932034
0.00800000 1659439.74139714 2464.26812002
0.00900000 1658058.67978428 2487.08812599
0.01000000 1656516.04801973 4099.87739588
0.01100000 1654813.03903298 3872.26267993
0.01200000 1652949.54512699 5157.20280691
0.01300000 1650926.86932333 6240.50384128
0.01400000 1648744.93567974 4822.57915065
0.01500000 1646405.13322460 5531.92149396
0.01600000 1643906.92501576 6707.14055390
0.01700000 1641252.55028605 4874.52029301
0.01800000 1638441.95823591 5136.51577020
0.01900000 1635475.73268573 4906.42741945
0.02000000 1632355.18152374 5656.11095984
0.02100000 1629082.23681687 6988.76311280
0.02200000 1625655.44172558 6730.21383451
0.02300000 1622078.15086053 7007.37793068
0.02400000 1618349.66840255 7889.45499320
0.02500000 1614472.66951377 8815.02117813
0.02600000 1610447.21722882 8479.00498652
0.02700000 1606275.30775186 8770.26358201
0.02800000 1601956.83590670 8362.21506692
0.02900000 1597494.36965061 9345.34249154
0.03000000 1592889.19574112 7406.93510066
0.03100000 1588141.66480457 11434.62051274
0.03200000 1583253.29824694 9404.52502474
0.03300000 1578227.79074081 12878.33936614
0.03400000 1573063.29311983 9084.44093693
0.03500000 1567763.03798847 11005.69703490
0.03600000 1562328.36425808 12139.29195129
0.03700000 1556761.02733801 8873.53826621
0.03800000 1551062.42806216 9981.08718650
0.03900000 1545234.91565118 12052.83290025
0.04000000 1539277.88282805 12306.52724348
0.04100000 1533195.74831033 12556.87376088
0.04200000 1526989.21754939 11818.89709214
0.04300000 1520658.98839509 11039.98476820
0.04400000 1514208.81193330 10220.90995523
0.04500000 1507640.11355259 11442.98899356
0.04600000 1500952.71383503 11639.88883689
0.04700000 1494150.76383774 15061.04039994
0.04800000 1487234.95508020 10931.17742845
0.04900000 1480208.77672760 16652.34951331
0.05000000 1473072.05753629 16903.50264736
0.05100000 1465829.30682337 14863.50986359
0.05200000 1458478.83892182 12754.39804074
0.05300000 1451026.60253054 14103.97923409
0.05400000 1443472.47053279 13099.51328097
0.05500000 1435819.17916255 21709.58700167
0.05600000 1428067.60063923 14651.97426628
0.05700000 1420223.20373429 13591.53669417
0.05800000 1412284.44600542 12498.71793074
0.05900000 1404254.25647991 17693.60445804
0.06000000 1396136.38236968 20439.43759280
0.06100000 1387931.92611907 15489.32101933
0.06200000 1379643.41894443 15645.15710214
0.06300000 1371273.83191512 18429.92116264
0.06400000 1362821.97441795 15945.01784639
0.06500000 1354293.69888590 13407.50824614
0.06600000 1345690.56090262 14876.60984683
0.06700000 1337013.43692410 24547.56785073
0.06800000 1328265.88643838 17871.81833859
0.06900000 1319450.50469797 16625.07713756
0.07000000 1310567.87090407 15353.30332661
0.07100000 1301621.17875705 16869.01126680
0.07200000 1292612.92199989 14154.11215897
0.07300000 1283545.46926443 17096.82645168
0.07400000 1274421.46190568 21505.86317751
0.07500000 1265242.14301240 20193.26554899
0.07600000 1256009.08956155 18858.97736389
0.07700000 1246727.46029729 17504.05436331
0.07800000 1237397.27220677 19062.10587229
0.07900000 1228020.74690737 17683.49958489
0.08000000 1218601.87145206 20728.41880579
0.08100000 1209141.85262939 17846.93458216
0.08200000 1199642.14017822 17922.65441529
0.08300000 1190106.56599423 16494.87777882
0.08400000 1180536.23007629 27093.30775197
0.08500000 1170934.05379568 16615.55500338
0.08600000 1161301.85538752 15154.98992436
0.08700000 1151643.03016646 16721.85758324
0.08800000 1141957.37590147 16769.64485268
0.08900000 1132250.37213834 16813.91881600
0.09000000 1122521.45456527 15322.41857459
0.09100000 1112773.69074344 18427.53318446
0.09200000 1103008.95443876 15386.97563740
0.09300000 1093232.46607833 16956.03634568
0.09400000 1083440.50126421 18526.83344233
0.09500000 1073639.03034782 18552.48331643
0.09600000 1063829.35591126 20122.33321297
0.09700000 1054015.81001328 18592.83976274
0.09800000 1044198.03643711 21708.87819823
0.09900000 1034379.09489107 17067.25586825
0.10000000 1024559.21397333 23283.10923248
0.10100000 1014741.59864213 24840.87550307
0.10200000 1004928.76513966 17078.76516687
0.10300000 995121.94811102 15523.90312079
0.10400000 985324.14910758 23278.28411780
0.10500000 975537.98775434 21715.47662911
0.10600001 965760.79476807 18600.55378246
0.10700001 956000.12022601 24779.52428232
0.10800001 946254.36723039 18565.51155878
0.10900001 936527.50897911 15452.70462545
0.11000001 926819.61655307 21604.16627875
0.11100001 917132.93288361 20030.18419707
0.11200001 907469.82847270 15381.61431673
0.11300001 897831.12810617 16888.20431479
0.11400001 888219.76537362 21450.50834376
0.11500001 878637.03776052 15288.28517693
0.11600001 869084.09688086 18302.91194222
0.11700001 859563.75584157 16735.70711440
0.11800001 850075.02317896 22760.75981761
0.11900001 840621.09877337 25723.00683406
0.12000001 831202.66801282 18103.59496209
0.12100001 821824.50430359 16543.32805096
0.12200001 812484.71296000 19487.44675842
0.12300001 803186.38578659 19421.04772333
0.12400001 793929.40305894 16374.79470963
0.12500001 784715.31008592 20763.56808326
0.12600001 775548.17425784 17729.03209899
0.12700001 766426.40969216 17658.46531149
0.12800001 757351.99726148 20516.66657275
0.12900001 748327.08501777 17510.85461474
0.13000001 739352.34908315 29056.54868854
0.13100001 730428.12422058 14462.47754129
0.13200001 721556.89779662 17274.07294756
0.13300001 712739.38131712 15758.66846383
0.13400001 703976.12505557 17106.62064535
0.13500001 695269.13863894 18438.53842605
0.13600001 686619.02279713 16932.02590054
0.13700001 678026.89601908 18245.70463222
0.13800001 669492.03751345 15354.80060444
0.13900001 661018.28270370 18045.79996882
0.14000001 652604.34389969 13802.58252442
0.14100001 644253.03972274 13722.59039329
0.14200001 635963.38334109 15005.55673767
0.14300001 627737.95202262 18982.79656454
0.14400001 619573.42608436 14823.29491828
0.14500001 611476.48486518 16069.60278029
0.14600001 603444.03308273 15967.12986861
0.14700001 595478.82676550 14541.59363564
0.14800001 587577.92967427 15758.84081735
0.14900001 579745.61193659 15653.13226082
0.15000001 571980.56202502 16841.96844348
0.15100001 564284.23673189 15438.81744546
0.15200001 556657.81782080 16607.88677836
0.15300001 549100.57160520 16489.49094343
0.15400001 541611.46365378 15110.96054904
0.15500001 534194.67400911 13750.17155791
0.15600001 526846.45817820 13647.95814322
0.15700001 519572.25631815 14776.63566710
0.15800001 512366.30828987 14663.92443537
0.15900001 505234.35158000 16975.87501436
0.16000001 498171.71738152 14437.01705118
0.16100001 491183.96420856 11935.77089369
0.16200001 484267.97984963 15392.45846614
0.16300001 477424.01588104 12919.09447962
0.16400001 470653.54891232 12813.54347406
0.16500001 463955.04447642 13862.97738344
0.16600001 457330.05725113 12601.73032252
0.16700001 450777.43901884 15903.42879946
0.16800001 444298.25957235 13515.55369435
0.16900001 437893.20143594 16749.41574580
0.17000001 431559.71147595 13283.40854647
0.17100001 425300.16499364 12070.01925248
0.17200001 419113.46467780 13051.19390638
0.17300001 412999.49690603 15091.00232961
0.17400001 406959.41644745 10682.68518625
0.17500001 400990.83790215 14820.62206881
0.17600001 395094.02535057 10489.74686848
0.17700001 389272.24841906 12472.28342842
0.17800001 383520.74512397 14416.54549013
0.17900001 377841.23333416 12242.05653826
0.18000001 372234.59427342 14148.63759664
0.18100001 366699.97905502 11012.00089119
0.18200001 361234.41501802 9915.88516065
0.18300001 355840.61946831 14731.80234191
0.18400001 350517.36837774 11672.22891838
0.18500001 345264.84068136 12522.75636311
0.18600001 340082.44881734 12401.10708200
0.18700001 334968.95591349 10390.73750334
0.18800001 329923.26327694 9353.32495581
0.18900001 324949.93912621 12039.39581346
0.19000001 320040.45118046 11919.90716742
0.19100001 315201.90717445 12708.94149777
0.19200001 310429.15430137 13480.38666250
0.19300001 305725.15603036 10675.92295305
0.19400001 301085.83933406 15852.17019001
0.19500001 296513.42892920 11332.74378920
0.19600001 292005.30038742 9491.63273763
0.19700001 287563.84623514 11102.84062783
0.19800001 283185.78522986 10989.02491517
0.19900001 278872.03272485 10039.39365256
0.20000001 274620.07172052 10763.73421979
0.20100001 270432.48369189 10652.33603608
0.20200001 266305.78742334 8919.91277133
0.20300001 262241.25953699 16851.62413433
0.20400001 258237.93403601 7940.81684694
0.20500001 254294.41204788 9429.23724443
0.20600001 250410.22771489 8552.76173187
0.20700001 246585.58687270 11540.20601114
0.20800001 242818.83893361 11418.55644061
0.20900001 239112.38498141 7532.04048296
0.21000001 235460.16410420 8942.77745542
0.21100001 231865.91462056 7373.33643350
0.21200001 228326.57378631 8024.53781508
0.21300001 224842.53852174 9382.67957608
0.21400001 221413.25819458 9282.75128866
0.21500001 218038.96676406 7770.90914286
0.21600001 214716.35327965 9085.72291859
0.21700001 211446.88509661 10371.47020435
0.21800001 208229.33529724 7524.36738672
0.21900001 205062.34400684 6767.05767218
0.22000001 201945.14445740 9372.27459741
0.22100001 198879.59617994 7284.95995253
0.22200001 195862.41390562 8517.07747141
0.22300001 192893.37570421 6481.21773013
0.22400001 189971.42324147 7693.84300509
0.22500001 187098.69445862 8879.70445890
0.22600001 184270.48880792 8784.17461686
0.22700001 181489.02639057 8069.00249490
0.22800001 178751.90211881 9824.20500504
0.22900001 176058.69079758 6074.02511976
0.23000001 173409.70118864 10214.69893159
0.23100001 170804.96106523 10699.22326712
0.23200001 168240.57853489 9996.01444640
0.23300001 165719.08136698 5816.74003108
0.23400001 163237.77906751 8055.78477798
0.23500001 160796.41044972 6261.41251905
0.23600001 158395.23118204 6194.04580833
0.23700001 156033.28660919 6684.46631450
0.23800001 153709.23901565 6061.52412728
0.23900001 151423.10829219 8721.97145018
0.24000001 149173.39885159 5392.61862356
0.24100001 146961.45457880 6935.11136961
0.24200001 144785.16027394 5805.16127578
0.24300001 142643.43759189 5220.75006282
0.24400001 140536.48698947 9296.48905411
0.24500001 138462.96904728 6642.06893940
0.24600001 136423.08498985 7076.26575317
0.24700001 134416.58489128 5000.29719450
0.24800001 132441.79487824 6430.71165453
0.24900001 130497.66282822 5872.39510508
0.25000001 128585.69925659 4841.25180604
0.25100001 126703.47277166 5747.26979682
0.25200001 124852.76403045 4738.16261912
0.25300001 123029.85291521 5156.18137962
0.25400001 121236.87639002 5564.77288958
0.25500001 119470.43743609 5046.43151606
0.25600001 117733.20375838 5446.33826354
0.25700001 116022.23793082 4939.06690240
0.25800001 114338.00982729 6663.04783794
0.25900001 112680.82278376 5273.46275579
0.26000001 111048.56141212 6956.08221599
0.26100001 109441.08964622 4731.13852927
0.26200001 107859.64157391 5531.58197986
0.26300001 106300.90399594 5472.37079665
0.26400001 104767.03442650 4580.93879706
0.26500001 103256.32727769 4531.92041866
0.26600001 101768.15724017 4483.39637937
0.26700001 100302.67520431 4435.38450742
0.26800001 98859.48022171  4387.87823728
0.26900001 97437.26052000  3946.20923780
0.27000001 96036.85500551  4684.67800886
0.27100001 94656.82701008  5792.99808716
0.27200001 93297.79536814  4202.59939124
0.27300001 91958.85392569  3779.50907521
0.27400001 90638.00981777  4112.69989011
0.27500001 89338.59620431  6287.65069842
0.27600001 88055.79722068  5488.07782151
0.27700001 86793.59923576  4343.15191130
0.27800001 85548.44603528  4296.24316322
0.27900001 84321.80028747  3541.51577969
0.28000001 83112.12422303  3503.17620180
0.28100001 81920.10575526  3811.74270120
0.28200001 80745.48403987  4113.17515167
0.28300001 79587.20624842  3729.45666132
0.28400001 78444.72994451  4694.91730939
0.28500001 77319.05815716  3980.38530233
0.28600001 76208.83282523  4265.02753094
0.28700001 75114.98377344  4867.45117891
0.28800001 74034.80888093  4493.17276366
0.28900001 72971.42771697  4126.53443272
0.29000001 71922.05671427  3767.27750901
0.29100001 70887.91858526  4657.33647151
0.29200001 69867.58675990  4298.95281683
0.29300001 68861.85141738  3947.85012863
0.29400001 67869.15932639  3303.53148659
0.29500001 66891.66643103  4157.98618218
0.29600001 65926.24705686  4699.22311266
0.29700001 64974.90236547  2904.37827322
0.29800001 64036.80810319  3159.25607733
0.29900001 63111.97774721  2840.03913307
0.30000001 62199.03322183  5897.40161411
0.30100001 61299.79444318  3609.94506565
0.30200001 60412.09604825  3020.30288492
0.30300001 59537.44444642  3529.37987387
0.30400001 58674.76347012  3758.11877818
0.30500001 57824.57248386  3450.39240346
0.30600001 56985.20221621  2886.58555492
0.30700001 56158.42051158  2853.97106551
0.30800001 55342.96009682  3334.69021851
0.30900001 54539.38279333  3043.29770395
0.31000001 53747.15343616  3008.76579181
0.31100001 52965.61114686  3222.42793474
0.31200001 52196.32513995  2940.74109762
0.31300001 51437.22843557  2907.23228882
0.31400001 50690.53186452  3353.17884160
0.31500001 49953.38710396  3078.12785909
0.31600002 49228.19833253  3043.04122401
0.31700002 48512.95199421  2314.06791969
0.31800002 47808.28732924  2516.38932272
0.31900002 47114.85504795  2713.81577926
0.32000002 46431.99349083  2459.27065169
0.32100002 45759.19373741  3094.23682704
0.32200002 45097.63699102  2840.47480038
0.32300002 44444.78541474  2376.01834078
0.32400002 43803.39396738  2348.95711273
0.32500002 43171.73112267  2111.09775186
0.32600002 42550.43220327  2504.51855808
0.32700002 41939.30447589  2476.09665351
0.32800002 41339.03258239  2652.10576091
0.32900002 40746.69935690  2420.35405641
0.33000002 40165.78676614  3390.19339254
0.33100002 39593.63625125  2957.64476803
0.33200002 39032.89590422  2339.63189129
0.33300002 38481.07138770  2120.69194460
0.33400002 37939.63747607  2287.76024815
0.33500002 37407.38529007  2262.39876948
0.33600002 36884.46621043  2237.41182628
0.33700002 36371.18835801  1844.01933708
0.33800002 35868.38806288  2006.29838131
0.33900002 35374.18430193  1984.49183332
0.34000002 34889.67063404  2141.52808494
0.34100002 34414.71455182  1765.47494012
0.34200002 33949.88402345  2270.73810045
0.34300002 33493.67219542  2592.41035070
0.34400002 33047.49889260  2052.24977842
0.34500002 32610.17216645  1861.71481715
0.34600002 32182.85226602  2010.14104774
0.34700002 31763.45539796  1658.05245030
0.34800002 31354.25920523  2297.95376599
0.34900002 30953.76916182  1625.07295796
0.35000002 30562.74922186  2413.69323411
0.35100002 30181.47656245  1752.94024177
0.35200002 29807.51922343  2051.80068292
0.35300002 29444.06304009  2345.21973222
0.35400002 29088.80649410  2323.46852876
0.35500002 28742.93664975  1534.87288979
0.35600002 28405.41170581  1521.10986889
0.35700002 28076.70256205  2563.12229829
0.35800002 27757.03976805  2242.07499346
0.35900002 27446.65533533  1926.75529580
0.36000002 27144.60504728  1616.86847623
0.36100002 26850.52863855  1603.78215155
0.36200002 26566.54844380  2169.82294692
0.36300002 26289.75165389  1578.96255912
0.36400002 26021.88618848  2137.04750446
0.36500002 25761.78988010  1697.18679769
0.36600002 25510.90049591  1685.25016659
0.36700002 25267.66846521  1534.25290188
0.36800002 25033.57886979  1385.60865608
0.36900002 24807.36049821  1652.17028744
0.37000002 24588.58723390  1505.19043882
0.37100002 24377.90277896  1496.31574345
0.37200002 24175.91741233  1758.43543628
0.37300002 23981.36264046  1479.88995865
0.37400002 23794.61005208  1472.29156672
0.37500002 23615.78965371  1465.12365952
0.37600002 23444.82226634  1590.96571436
0.37700002 23281.12412282  1584.04776036
0.37800002 23125.11367885  2366.39299486
0.37900002 22977.16788143  1440.66849441
0.38000002 22835.90456962  1696.59361037
0.38100002 22701.32953629  1560.94349286
0.38200002 22575.12305372  1945.41132132
0.38300002 22455.18670525  1422.76069705
0.38400002 22342.68817398  1290.29030317
0.38500002 22236.58771373  1673.74803651
0.38600002 22138.27651921  1799.17781795
0.38700002 22045.80142764  1667.98541504
0.38800002 21960.02470431  1537.64100264
0.38900002 21880.84669826  1792.04142949
0.39000002 21808.71233987  1406.98914326
0.39100002 21742.08353993  1789.80840180
0.39200002 21682.29514096  1661.62276685
0.39300002 21628.09008872  1278.22018480
0.39400002 21581.13488076  1406.55053249
0.39500002 21538.79174882  1791.16600669
0.39600002 21502.69463368  1536.58263132
0.39700002 21471.58800321  1538.22463743
0.39800002 21447.30427403  1411.98334378
0.39900002 21427.49042057  1285.64948615
0.40000002 21413.37854670  1803.22069285
0.40100002 21404.21588561  1677.87656277
0.40200002 21400.74065885  2069.87973459
0.40300002 21401.88816381  1296.95448418
0.40400002 21407.98898155  2210.91016682
0.40500002 21418.47560546  1826.13931664
0.40600002 21434.58357527  1701.15580605
0.40700002 21454.64434911  1706.93158529
0.40800002 21478.89475150  1713.04933207
0.40900002 21507.18278870  1587.23016501
0.41000002 21540.44063854  1460.76505112
0.41100002 21577.36942594  1733.52594182
0.41200002 21617.41267033  1874.87828973
0.41300002 21662.60664957  1479.77273035
0.41400002 21710.63584106  1892.08200320
0.41500002 21762.24165618  1357.96394369
0.41600002 21816.45189454  2046.92869600
0.41700002 21875.31678361  1645.89891279
0.41800002 21937.65121684  1378.78144431
0.41900002 22001.15499353  2356.32381146
0.42000002 22068.29210428  1393.61271242
0.42100002 22138.95699624  1541.53564869
0.42200002 22211.76451149  1691.20383004
0.42300002 22286.87720829  1984.42364066
0.42400002 22364.31067981  1425.72487340
0.42500002 22444.52010537  1577.62539296
0.42600002 22525.61611486  1587.04235858
0.42700002 22609.98548168  1887.02947772
0.42800002 22695.61272220  1752.55529746
0.42900002 22783.84762704  1616.51406574
0.43000002 22873.43192217  1774.52093261
0.43100002 22963.18762826  1785.61755459
0.43200002 23055.70428024  2246.20209595
0.43300002 23148.67550331  1657.67673135
0.43400002 23243.42186433  1668.29668337
0.43500002 23338.55641281  1984.24416025
0.43600002 23435.42865357  1843.43090525
0.43700002 23532.38184055  2937.54736436
0.43800002 23629.52814268  2334.00675290
0.43900002 23728.38858503  2035.89583708
0.44000002 23826.90629148  2048.99490364
0.44100002 23926.20883832  1744.93849327
0.44200002 24025.49577531  1596.49426993
0.44300002 24125.15653993  1606.73550170
0.44400002 24224.50381288  1778.68427675
0.44500002 24323.38606087  1789.95806505
0.44600002 24422.00014924  1637.49518761
0.44700002 24521.30434048  1647.83172977
0.44800002 24619.09684894  1823.90587649
0.44900002 24716.91737225  2168.90960220
0.45000002 24814.52405869  1846.57289534
0.45100002 24910.38696301  2195.60161097
0.45200002 25005.99561214  1869.07323061
0.45300002 25100.35235336  2564.00111441
0.45400002 25193.89390400  1891.43167448
0.45500002 25286.66730143  2421.45137555
0.45600002 25377.77883171  1913.61150350
0.45700002 25467.91943405  3149.36306647
0.45800002 25556.42131095  2111.47162878
0.45900002 25643.44236523  2123.27712847
0.46000002 25729.42870132  2312.94710273
0.46100002 25813.01359604  2146.61031238
0.46200002 25895.60925506  1978.29516280
0.46300002 25976.26186778  1988.74270285
0.46400002 26054.59006549  2544.23084048
0.46500002 26132.20461172  2191.96942672
0.46600002 26206.69451281  1835.77903763
0.46700002 26279.34304868  2398.25296029
0.46800002 26350.61337745  2224.51888676
0.46900002 26418.94051507  2980.05663134
0.47000002 26485.21989037  2245.41704873
0.47100002 26549.54824170  1879.70810460
0.47200002 26611.61498416  2265.71300714
0.47300002 26671.22551271  2085.95664622
0.47400002 26727.81525779  2094.79262012
0.47500002 26782.48109026  2103.49616453
0.47600002 26835.15240661  2112.06077027
0.47700002 26884.35119134  2120.36887896
