# SAXS profile: number of points = 501, q_min = 0, q_max = 0.5, delta_q = 0.001
#    q    intensity    error
0.00000000 1646666.22097350 246.99993315
0.00100000 1646585.14495411 642.16822178
0.00200000 1646341.84039359 1037.19539229
0.00300000 1645936.55366895 1283.83055760
0.00400000 1645369.13642885 1234.02689921
0.00500000 1644640.10420859 1480.17615237
0.00600000 1643749.35252514 2243.71795754
0.00700000 1642697.45481334 3351.10294709
0.00800000 1641484.23842559 3988.80686778
0.00900000 1640110.87876630 2460.16642332
0.01000000 1638576.85531574 3514.74750642
0.01100000 1636883.33239524 3535.66815191
0.01200000 1635030.27200469 4463.63283828
0.01300000 1633018.89642157 3429.33983374
0.01400000 1630849.15881103 4036.35184699
0.01500000 1628522.45571275 4690.14488130
0.01600000 1626038.25354677 4561.03750509
0.01700000 1623398.75366078 4383.17683151
0.01800000 1620603.91239633 5080.59349398
0.01900000 1617654.33652726 5823.55587427
0.02000000 1614551.34597304 6103.00436385
0.02100000 1611296.83737386 6380.73576529
0.02200000 1607889.35912490 6101.94039510
0.02300000 1604332.23568358 6353.15594249
0.02400000 1600624.81608684 7803.04633422
0.02500000 1596769.71329103 7472.88259949
0.02600000 1592767.08252098 6450.70697925
0.02700000 1588618.86183833 8673.85938291
0.02800000 1584324.90216287 7580.99500451
0.02900000 1579887.78797357 9953.29352123
0.03000000 1575308.89583718 8057.70537258
0.03100000 1570588.41844398 8292.70723096
0.03200000 1565727.98438221 9300.42465559
0.03300000 1560731.17901032 8755.70231789
0.03400000 1555596.48266461 9800.25829297
0.03500000 1550326.65488769 9208.94075528
0.03600000 1544923.26319640 9431.75695769
0.03700000 1539388.02532480 9651.96336517
0.03800000 1533722.37913577 13458.41449977
0.03900000 1527928.55658279 10084.32894045
0.04000000 1522006.15767443 12168.43979448
0.04100000 1515959.45334997 9550.54499893
0.04200000 1509789.11602661 13633.39635021
0.04300000 1503495.79873117 12899.99455190
0.04400000 1497083.36478923 15157.96977246
0.04500000 1490553.30421129 12341.78193233
0.04600000 1483905.24183893 12553.83892955
0.04700000 1477143.42778597 11698.97649216
0.04800000 1470268.52934511 11887.12161284
0.04900000 1463284.00269007 14267.01969032
0.05000000 1456189.72446929 14481.80748421
0.05100000 1448990.14438242 19213.61020956
0.05200000 1441683.67023837 12607.52428376
0.05300000 1434276.12588347 13941.16459349
0.05400000 1426767.38817644 14124.99780165
0.05500000 1419160.32577028 14305.13675109
0.05600000 1411455.59740300 14481.53510512
0.05700000 1403658.71193392 13433.01450024
0.05800000 1395768.45741923 13587.80656742
0.05900000 1387787.10547427 12490.08453263
0.06000000 1379718.99090046 12624.42935654
0.06100000 1371564.95405268 17857.77653628
0.06200000 1363327.53122304 16748.47950396
0.06300000 1355009.83324393 15609.71400881
0.06400000 1346610.43575376 15755.34283514
0.06500000 1338135.18283830 19871.30839468
0.06600000 1329586.02192964 21379.74423296
0.06700000 1320963.05259694 18863.35327387
0.06800000 1312270.69937015 13582.00237424
0.06900000 1303511.04516979 16424.23993810
0.07000000 1294684.85979219 15167.23384272
0.07100000 1285795.02610147 19441.22170524
0.07200000 1276844.38044972 13981.44662091
0.07300000 1267835.12080904 19702.15870053
0.07400000 1258769.94204991 18409.51126523
0.07500000 1249649.94486835 15670.61104317
0.07600000 1240476.91515114 15760.25994585
0.07700000 1231255.79052697 14405.69342463
0.07800000 1221986.79031129 14480.54414427
0.07900000 1212671.87434571 18917.68212710
0.08000000 1203315.42387383 27778.53786325
0.08100000 1193917.96752111 16153.71085846
0.08200000 1184481.53637641 19170.83456585
0.08300000 1175009.91580621 16285.63819739
0.08400000 1165503.77995670 19318.22605955
0.08500000 1155966.65392075 16403.16758918
0.08600000 1146399.76801249 20944.72474497
0.08700000 1136806.70024714 19507.60389227
0.08800000 1127187.48908953 19562.33979187
0.08900000 1117547.45864390 21121.64796045
0.09000000 1107885.71297138 18147.16883094
0.09100000 1098205.65490707 19701.81037465
0.09200000 1088509.14500684 22777.05492949
0.09300000 1078801.33138767 21295.53928232
0.09400000 1069078.46696776 21328.11641837
0.09500000 1059346.66127448 15254.59263936
0.09600000 1049606.88033482 18326.13699212
0.09700000 1039863.57371496 19871.79382792
0.09800000 1030116.49969618 15297.23073973
0.09900000 1020368.78479513 18366.63898996
0.10000000 1010620.44965899 22966.35079854
0.10100000 1000874.70138292 15313.38365137
0.10200000 991134.27358294 16844.32777184
0.10300000 981399.92275876 19902.79136979
0.10400000 971675.14350369 16834.27265317
0.10500000 961962.21611804 18354.23994709
0.10600001 952258.86630191 16812.13107563
0.10700001 942571.93621657 18323.59930232
0.10800001 932900.61604467 27455.26642229
0.10900001 923248.41395007 16756.95950187
0.11000001 913615.14672286 16732.86219984
0.11100001 904003.64854805 15187.26201052
0.11200001 894415.93103697 16676.38581926
0.11300001 884852.89060543 28748.87176929
0.11400001 875317.52082249 18119.07353415
0.11500001 865810.88769179 15065.11015522
0.11600001 856334.43897816 18034.40413415
0.11700001 846890.65607854 19486.95491410
0.11800001 837478.97412771 19433.70050993
0.11900001 828102.12457224 14905.83894439
0.12000001 818761.00287822 23776.82064359
0.12100001 809460.35988807 19257.06286890
0.12200001 800198.36962647 19192.75879969
0.12300001 790977.66954551 23539.49655472
0.12400001 781798.81617870 16124.60134344
0.12500001 772662.97468565 23365.32945548
0.12600001 763574.16949610 20364.52406011
0.12700001 754530.81263216 20281.78919936
0.12800001 745534.99755637 15868.71317087
0.12900001 736588.71045119 20108.87274309
0.13000001 727693.02597131 15729.08549776
0.13100001 718847.81475721 15656.50614342
0.13200001 710055.46666678 16998.72867333
0.13300001 701316.98351982 18325.41364329
0.13400001 692633.18441600 18233.56943938
0.13500001 684005.45653181 20930.56795671
0.13600001 675434.51135799 19432.25180801
0.13700001 666921.90859988 16566.34099078
0.13800001 658466.71791692 19220.64440236
0.13900001 650072.31830744 21842.43092518
0.14000001 641737.70713944 14930.02846071
0.14100001 633466.01623309 14842.10946034
0.14200001 625256.01172126 14752.91629239
0.14300001 617109.96521447 15995.49105283
0.14400001 609025.21295023 14570.92890714
0.14500001 601007.59963583 21059.30728465
0.14600001 593054.84917416 16999.91805354
0.14700001 585169.06899778 15588.90473353
0.14800001 577347.41903614 14194.08696666
0.14900001 569594.61819300 15379.05541681
0.15000001 561908.99936375 12727.23943610
0.15100001 554291.87924918 17692.99762048
0.15200001 546744.52448201 13802.56617185
0.15300001 539266.39111807 13702.75964493
0.15400001 531856.33944274 13602.22652315
0.15500001 524518.37888659 15955.84983873
0.15600001 517249.10403378 13399.33867238
0.15700001 510053.59528075 14505.92493442
0.15800001 502926.40635350 13194.27489344
0.15900001 495872.84716907 16661.32845131
0.16000001 488888.56714415 14167.99134460
0.16100001 481979.12543873 12883.30263112
0.16200001 475141.17265052 11617.20221971
0.16300001 468375.23356946 13826.43754769
0.16400001 461682.30190882 11426.63751169
0.16500001 455061.36852167 12464.13147226
0.16600001 448513.69663355 12358.79549423
0.16700001 442038.32536567 13367.23959019
0.16800001 435636.38333470 14356.39769065
0.16900001 429308.07295708 12042.09201505
0.17000001 423051.26059948 18447.15108951
0.17100001 416867.95294993 12906.23243278
0.17200001 410757.63644059 13856.90951969
0.17300001 404719.48085540 10563.17894917
0.17400001 398755.33152274 15700.99192020
0.17500001 392862.17618672 12445.87432938
0.17600001 387040.50897575 13358.70379822
0.17700001 381293.67820067 12216.65002655
0.17800001 375617.05984530 11093.85038652
0.17900001 370012.14207111 11988.39396936
0.18000001 364479.65720452 9895.62316052
0.18100001 359018.81625214 10781.33556132
0.18200001 353627.18706358 11648.48009212
0.18300001 348306.58929256 16342.54594162
0.18400001 343056.57997217 19039.64108790
0.18500001 337876.88245934 10369.44201255
0.18600001 332766.90535442 13067.75699063
0.18700001 327725.75295881 9241.86667007
0.18800001 322752.02387093 14640.03249447
0.18900001 317850.21816060 9058.73164558
0.19000001 313011.88839973 9864.57012901
0.19100001 308244.27713687 9765.17916110
0.19200001 303542.18718890 11423.81075464
0.19300001 298908.42087477 9568.05900432
0.19400001 294338.96985542 9470.35680261
0.19500001 289836.02759487 14486.00534373
0.19600001 285397.31468919 11806.88746664
0.19700001 281024.74757097 14188.94017539
0.19800001 276715.05008619 9911.93356251
0.19900001 272469.47001473 8991.49293542
0.20000001 268285.25555439 8897.68092098
0.20100001 264165.02173571 11205.88075164
0.20200001 260105.23499179 9504.24573580
0.20300001 256107.34098281 7836.88500448
0.20400001 252170.57071817 8529.66995770
0.20500001 248292.74320968 9206.69535339
0.20600001 244473.99765954 11386.37697920
0.20700001 240714.46712296 7510.29172924
0.20800001 237012.36723176 8173.37187034
0.20900001 233370.29342098 7351.16459026
0.21000001 229781.93793472 8727.11841531
0.21100001 226251.03344681 12950.60976671
0.21200001 222774.79233150 10676.48242721
0.21300001 219353.35315113 8449.49156284
0.21400001 215986.39087077 8358.67372187
0.21500001 212673.81180960 6890.63182840
0.21600001 209412.50470353 10224.56602555
0.21700001 206203.99659786 9440.01941057
0.21800001 203046.92369764 8671.11928648
0.21900001 199940.08556904 7257.82544932
0.22000001 196882.62015617 7831.99100013
0.22100001 193876.29285739 7101.68894316
0.22200001 190917.83485949 8940.68262923
0.22300001 188007.05331057 7580.44474793
0.22400001 185143.18286357 10622.59061910
0.22500001 182327.81671579 8035.18726263
0.22600001 179556.63273105 6725.29399697
0.22700001 176831.60254055 10280.98985789
0.22800001 174150.69228808 7776.69953188
0.22900001 171513.08009888 5917.20154324
0.23000001 168919.28612805 7023.66424937
0.23100001 166369.38869225 6368.62050033
0.23200001 163859.20327660 8590.31913804
0.23300001 161391.55636999 6797.81267580
0.23400001 158963.71960692 8405.20707174
0.23500001 156575.22368968 8314.14477115
0.23600001 154226.42367246 7127.57450714
0.23700001 151916.57122594 5965.76403421
0.23800001 149644.12781287 7510.63913017
0.23900001 147409.06312746 5837.39917595
0.24000001 145210.02150801 5249.34252581
0.24100001 143048.15807477 7788.97257560
0.24200001 140921.58862450 5650.25136317
0.24300001 138829.06945954 5589.25860083
0.24400001 136770.96609474 6031.59989009
0.24500001 134745.71080817 6463.75205323
0.24600001 132753.84572777 5902.23626026
0.24700001 130794.58566038 7784.89410678
0.24800001 128866.73070124 5294.48988133
0.24900001 126969.16990480 5237.47850635
0.25000001 125103.19017306 6123.17593270
0.25100001 123266.43810135 6523.26021293
0.25200001 121460.79341653 4609.43732823
0.25300001 119682.62359085 5471.88980945
0.25400001 117933.87961699 6315.35955228
0.25500001 116211.19897770 7140.01640300
0.25600001 114517.15830462 5739.02765996
0.25700001 112848.91686651 5240.70394724
0.25800001 111207.15231931 4752.43787922
0.25900001 109591.73845467 6411.11700294
0.26000001 108001.02378663 5496.71236570
0.26100001 106434.42355181 7529.17147831
0.26200001 104893.60741272 6207.07951235
0.26300001 103374.79574604 6549.82736839
0.26400001 101880.72930232 6074.63877209
0.26500001 100409.11572487 4807.58868840
0.26600001 98959.72004872  6341.33916079
0.26700001 97532.47027698  4312.88603973
0.26800001 96127.11037039  4654.47490439
0.26900001 94742.33602726  4988.18422788
0.27000001 93378.93767476  4175.43939572
0.27100001 92035.40355695  4130.54910711
0.27200001 90712.56211095  4086.14755366
0.27300001 89409.11348478  4777.12915957
0.27400001 88123.63573997  3998.61016093
0.27500001 86859.02268530  4674.75282216
0.27600001 85610.55375329  4268.54241215
0.27700001 84382.31285894  4574.36539657
0.27800001 83170.68416787  5221.03994574
0.27900001 81977.11241294  3787.34277272
0.28000001 80800.20889546  5449.16634581
0.28100001 79640.43721720  3705.66971910
0.28200001 78497.67480039  3332.22645299
0.28300001 77370.85539229  4284.79817443
0.28400001 76259.42999633  3260.09078665
0.28500001 75164.31635199  3224.54932412
0.28600001 74084.36777185  3508.26540189
0.28700001 73020.34069322  4416.27041416
0.28800001 71969.60495973  3119.88252268
0.28900001 70935.15621282  3085.67944131
0.29000001 69914.53594072  3967.30052975
0.29100001 68908.67970388  4829.12050223
0.29200001 67916.23406292  2984.91862836
0.29300001 66937.90202126  3837.55010453
0.29400001 65972.34171579  3795.05913685
0.29500001 65021.64699882  3753.04964243
0.29600001 64082.51522181  3996.82666358
0.29700001 63157.21315847  3952.37858656
0.29800001 62244.72176112  3908.34626440
0.29900001 61345.07544413  4416.84564107
0.30000001 60457.13092002  3548.53146734
0.30100001 59582.42017582  2968.99213791
0.30200001 58718.81976038  4536.90982357
0.30300001 57868.06221062  3166.54051407
0.30400001 57028.87126982  3652.69937776
0.30500001 56201.87929642  3869.49957275
0.30600001 55385.24042038  3315.63757474
0.30700001 54580.92912161  2773.80294928
0.30800001 53787.63665550  3490.27990782
0.30900001 53005.73168151  3450.67329584
0.31000001 52234.90882123  3898.81377901
0.31100001 51474.58318389  4095.31803200
0.31200001 50726.11620789  2619.75039559
0.31300001 49987.55179375  2589.85518105
0.31400001 49261.06446948  2793.10248766
0.31500001 48543.89334094  3451.47097996
0.31600002 47838.27083320  2502.18087440
0.31700002 47142.29987014  2698.42537233
0.31800002 46456.56613458  2445.24147427
0.31900002 45781.78158981  2637.03074443
0.32000002 45117.33902014  2606.87997202
0.32100002 44462.66216892  2791.81068978
0.32200002 43818.85713316  2123.02372863
0.32300002 43183.49368155  2518.46147076
0.32400002 42559.25862892  2489.71674768
0.32500002 41944.70578441  3076.64431497
0.32600002 41340.16086886  2230.50848530
0.32700002 40745.40691720  3007.01117288
0.32800002 40161.34967683  1981.96270040
0.32900002 39584.90956548  1959.45311628
0.33000002 39019.71454511  3099.72627025
0.33100002 38462.98337327  2298.54799523
0.33200002 37917.39912261  1893.97417586
0.33300002 37380.49001345  2247.31516603
0.33400002 36853.81971994  2407.47588721
0.33500002 36335.92613052  2014.46384007
0.33600002 35827.21448806  1992.17235595
0.33700002 35327.94768252  1970.23973556
0.33800002 34838.93833198  2303.02812750
0.33900002 34358.28463577  1927.49985935
0.34000002 33887.07018040  1906.65609400
0.34100002 33425.17156258  2229.12479708
0.34200002 32973.23880550  1866.12053858
0.34300002 32529.83229745  1846.39336865
0.34400002 32096.11241750  1827.07128590
0.34500002 31671.12535741  2136.85092907
0.34600002 31255.76017514  1952.23487300
0.34700002 30848.29966128  2254.39384602
0.34800002 30450.79012216  2391.14840759
0.34900002 30061.83382643  1893.89562076
0.35000002 29682.09207225  2344.14333243
0.35100002 29311.99677207  1857.20820344
0.35200002 28949.04274294  2452.56301734
0.35300002 28596.36028832  2125.85352452
0.35400002 28251.83215072  1654.85114661
0.35500002 27916.48049232  1788.88815468
0.35600002 27589.17094690  2068.36024386
0.35700002 27270.63981098  1903.76345538
0.35800002 26960.96213638  1887.40224375
0.35900002 26660.42100823  2303.46048422
0.36000002 26368.01188525  2570.09024019
0.36100002 26083.53398428  1982.87034741
0.36200002 25808.88089285  1686.35235742
0.36300002 25541.40482075  2091.84115390
0.36400002 25282.75831923  1661.07730025
0.36500002 25031.57685923  1511.65699813
0.36600002 24789.51057616  1501.12888405
0.36700002 24555.03890371  1626.52585403
0.36800002 24329.52972685  1481.30348759
0.36900002 24111.79897659  1739.66637857
0.37000002 23901.47864107  1463.12908432
0.37100002 23699.00873116  1322.40474984
0.37200002 23505.13015197  1578.13451316
0.37300002 23318.63434240  1438.99299344
0.37400002 23139.81321305  1561.93746587
0.37500002 22968.82273386  1295.44166356
0.37600002 22805.57193151  1418.62066920
0.37700002 22649.47269440  1412.64767887
0.37800002 22501.01835870  1279.18295429
0.37900002 22360.54253630  1529.46118194
0.38000002 22226.60399040  1524.30057387
0.38100002 22099.26148754  1392.91651755
0.38200002 21980.30249784  1389.04528216
0.38300002 21867.35476015  1763.38357140
0.38400002 21761.90155358  1508.09984911
0.38500002 21662.76407561  2006.83855904
0.38600002 21571.28279497  1753.09823580
0.38700002 21485.56635745  1625.59802762
0.38800002 21406.55951962  1748.70193000
0.38900002 21333.99624323  1248.03883936
0.39000002 21268.47472919  1372.13571216
0.39100002 21208.39910580  1496.46471180
0.39200002 21154.90294674  1621.20606413
0.39300002 21107.20593287  1496.92311568
0.39400002 21066.52054293  1248.19140130
0.39500002 21030.54231221  1623.97855429
0.39600002 21000.65648831  1250.58915313
0.39700002 20975.70607705  1627.92462577
0.39800002 20957.50298815  1630.59859725
0.39900002 20943.78161065  1507.95234741
0.40000002 20935.76964981  1511.14392492
0.40100002 20932.60786950  1640.90720864
0.40200002 20935.05556124  1392.07658550
0.40300002 20942.10672721  1396.00090058
0.40400002 20954.04928665  1272.95855448
0.40500002 20970.36995744  1787.93382728
0.40600002 20992.29627247  1537.89569779
0.40700002 21018.16231230  1414.94275391
0.40800002 21048.16523104  1678.69649754
0.40900002 21082.09942055  1426.20409338
0.41000002 21121.00886019  1562.53230951
0.41100002 21163.54737381  1700.27947657
0.41200002 21209.23306983  1445.30325603
0.41300002 21259.98899879  1848.34353113
0.41400002 21313.55514724  1592.12264494
0.41500002 21370.71891234  1333.53292332
0.41600002 21430.50300999  1742.62143483
0.41700002 21494.90726736  1752.04997438
0.41800002 21562.66253167  1626.25608520
0.41900002 21631.66975106  1907.91336245
0.42000002 21704.21584587  1507.68342517
0.42100002 21780.27152887  1654.42950373
0.42200002 21858.56906515  1664.31152748
0.42300002 21939.03598848  1813.91958148
0.42400002 22021.92236672  1825.06690262
0.42500002 22107.39864274  2260.26054434
0.42600002 22193.86402187  1563.66876376
0.42700002 22283.65502773  2002.85500880
0.42800002 22374.59025789  2447.66841725
0.42900002 22468.23024620  1739.04110346
0.43000002 22563.12127913  1750.44703178
0.43100002 22658.18862040  1761.90083061
0.43200002 22755.97811563  2069.20118811
0.43300002 22854.27406446  1487.81331210
0.43400002 22954.26258138  1947.09541573
0.43500002 23054.71553334  2110.88985426
0.43600002 23156.79399137  1821.51350168
0.43700002 23259.06899317  1986.55717685
0.43800002 23361.46948210  1692.18812213
0.43900002 23465.57045995  1703.60049613
0.44000002 23569.38363339  1870.93776148
0.44100002 23673.94268894  1883.49896959
0.44200002 23778.51522562  1738.09065279
0.44300002 23883.41925977  2385.95369712
0.44400002 23988.01667042  2241.68026409
0.44500002 24092.13133687  3062.35095936
0.44600002 24196.01884669  2271.28039678
0.44700002 24300.50535502  2122.89224842
0.44800002 24403.57334228  2136.65496524
0.44900002 24506.61598775  2150.45565484
0.45000002 24609.43649814  1997.79414960
0.45100002 24710.49375244  1842.90871140
0.45200002 24811.33931887  2697.48893859
0.45300002 24910.96919508  2035.72449910
0.45400002 25009.66662520  1706.90982807
0.45500002 25107.64987481  2404.30866596
0.45600002 25203.95378277  2246.05044780
0.45700002 25299.30726906  1911.86874093
0.45800002 25392.96427144  1923.13624024
0.45900002 25485.22545351  2461.87289549
0.46000002 25576.44163219  2299.19432949
0.46100002 25665.22270347  2667.90002647
0.46200002 25752.96391968  2503.96080058
0.46300002 25838.77724188  2517.73057378
0.46400002 25922.23630818  2350.49888865
0.46500002 26005.01430122  2544.85082013
0.46600002 26084.66578298  1827.23092470
0.46700002 26162.49316085  2387.58923902
0.46800002 26238.84814324  2030.49335980
0.46900002 26312.31019063  2411.52334327
0.47000002 26383.74378944  2050.41274578
0.47100002 26453.20596244  2247.46448509
0.47200002 26520.33455164  2257.94139075
0.47300002 26584.99550392  2646.27057789
0.47400002 26646.71670455  2658.01011726
0.47500002 26706.42616709  2478.89059432
0.47600002 26764.16714142  2489.46912466
0.47700002 26818.38735523  2307.45415741
