# SAXS profile: number of points = 501, q_min = 0, q_max = 0.5, delta_q = 0.001
#    q    intensity    error
0.00000000 1682732.95097188 277.65093691
0.00100000 1682650.90575412 555.27481209
0.00200000 1682404.71011515 1287.03964399
0.00300000 1681994.58417513 1614.71485833
0.00400000 1681420.39502702 1387.17187861
0.00500000 1680682.67851568 1663.87591759
0.00600000 1679781.31595768 1940.14749892
0.00700000 1678716.85873429 2215.90634562
0.00800000 1677489.16304525 3170.45465201
0.00900000 1676099.40554688 3016.97905895
0.01000000 1674547.06666950 3591.90361310
0.01100000 1672833.31734100 3312.21011255
0.01200000 1670958.10990234 3258.36845717
0.01300000 1668922.64033547 3855.21146921
0.01400000 1666726.96697297 4125.14942613
0.01500000 1664372.36581962 5192.84201259
0.01600000 1661858.35268343 4661.51288766
0.01700000 1659187.21251904 4479.80567476
0.01800000 1656358.85417462 6136.80983086
0.01900000 1653373.83972514 5456.13391729
0.02000000 1650233.48614103 6237.88285979
0.02100000 1646939.81138445 5978.39178638
0.02200000 1643491.29123937 7371.05877609
0.02300000 1639891.22921421 6493.96956328
0.02400000 1636139.05240108 8589.73041678
0.02500000 1632237.42998417 9548.58940150
0.02600000 1628186.31072756 6594.15486005
0.02700000 1623987.72418346 7502.82362937
0.02800000 1619641.68059074 9863.61828714
0.02900000 1615150.71809267 7994.99642164
0.03000000 1610516.05322897 13480.01998514
0.03100000 1605738.03966822 10790.56012308
0.03200000 1600818.38807576 11093.67194032
0.03300000 1595760.59934505 8952.21737503
0.03400000 1590562.76307272 10855.59135885
0.03500000 1585228.42208688 9416.25726202
0.03600000 1579758.65723697 11397.95923871
0.03700000 1574155.33686033 10767.22300208
0.03800000 1568419.83904160 9175.25648302
0.03900000 1562554.42360815 14062.99046373
0.04000000 1556558.76432412 14359.25526628
0.04100000 1550437.06615775 12698.08016060
0.04200000 1544190.11215795 10956.02935404
0.04300000 1537818.54676581 17254.32489562
0.04400000 1531326.19594504 14471.03322374
0.04500000 1524714.37304193 15780.79449424
0.04600000 1517983.08736547 10701.78126342
0.04700000 1511136.39806940 16320.27385817
0.04800000 1504175.06115701 12161.25593529
0.04900000 1497102.48325009 17965.23063524
0.05000000 1489918.55355700 19376.39169129
0.05100000 1482627.65648344 17346.74438894
0.05200000 1475228.38684973 11728.06622200
0.05300000 1467726.52660941 14266.30250371
0.05400000 1460121.99633324 13250.60773465
0.05500000 1452417.44424309 15860.39923101
0.05600000 1444613.91697540 12351.44956651
0.05700000 1436716.77847797 17499.21117870
0.05800000 1428724.43642899 13908.63303806
0.05900000 1420639.99003229 17900.06471044
0.06000000 1412467.17931197 12924.07529450
0.06100000 1404207.07227520 14365.03902067
0.06200000 1395862.15069378 14509.98773471
0.06300000 1387435.33032975 15983.25575270
0.06400000 1378925.75385063 16133.43207456
0.06500000 1370339.02378899 18992.89975816
0.06600000 1361676.48451145 13684.84930963
0.06700000 1352939.71694213 15179.98433450
0.06800000 1344131.56748314 20867.64356197
0.06900000 1335254.97745039 16824.21350357
0.07000000 1326310.51400230 14125.20763559
0.07100000 1317301.39914231 19917.59808793
0.07200000 1308230.07930553 17190.14404738
0.07300000 1299098.91839609 18745.99827081
0.07400000 1289910.65457682 15962.64509846
0.07500000 1280666.47103271 14599.59845409
0.07600000 1271367.88941087 22026.44971666
0.07700000 1262020.17807325 16242.20045338
0.07800000 1252623.57088246 14843.59001107
0.07900000 1243179.82709444 16409.97448734
0.08000000 1233693.34583464 23982.99976809
0.08100000 1224165.06873642 15057.23105192
0.08200000 1214596.79958940 22682.59629672
0.08300000 1204991.79312901 24292.63568958
0.08400000 1195351.91811955 24385.18027425
0.08500000 1185679.45569072 19883.84540538
0.08600000 1175976.62820310 18415.79486231
0.08700000 1166246.65090416 24631.13042372
0.08800000 1156489.58025101 16983.05028357
0.08900000 1146710.40925890 17028.65037733
0.09000000 1136909.13972646 17070.69153490
0.09100000 1127088.42408094 15553.82098305
0.09200000 1117250.52941926 15585.64561772
0.09300000 1107400.23267462 23421.51602170
0.09400000 1097534.04183448 18767.83299741
0.09500000 1087658.27760480 18794.73592041
0.09600000 1077773.83211298 15681.60999440
0.09700000 1067885.27480576 18837.49713318
0.09800000 1057991.88712203 17282.29828871
0.09900000 1048097.25991778 23582.18945704
0.10000000 1038201.28378586 15728.75018903
0.10100000 1028307.12285827 17306.40969166
0.10200000 1018417.54514032 17308.00699376
0.10300000 1008533.61711281 28319.62530070
0.10400000 998658.58419542 18874.64812925
0.10500000 988794.83708901 20438.39024424
0.10600001 978939.76859832 17283.18242784
0.10700001 969101.18802843 21979.21597878
0.10800001 959277.15763944 20389.43694519
0.10900001 949471.56085913 21932.79408813
0.11000001 939685.05029848 21904.05955347
0.11100001 929919.64417594 26558.50628786
0.11200001 920177.29700448 24955.20946958
0.11300001 910459.46067853 17125.74326166
0.11400001 900768.51333462 17092.08334530
0.11500001 891106.30769125 15505.25048394
0.11600001 881473.58954976 23204.79333765
0.11700001 871873.47383826 23148.24182057
0.11800001 862304.65798827 15392.13887003
0.11900001 852770.53825207 21489.81857616
0.12000001 843271.95330306 22958.08001011
0.12100001 833813.69428756 22888.18698641
0.12200001 824393.47832054 18252.07246990
0.12300001 815014.85298524 18191.13237570
0.12400001 805677.18599659 16617.09274414
0.12500001 796382.65763156 18061.95952617
0.12600001 787134.95028013 17993.90581134
0.12700001 777932.52943376 17923.56632283
0.12800001 768777.38372949 19338.59599913
0.12900001 759671.84550613 23701.76269690
0.13000001 750616.54435301 17699.53895011
0.13100001 741611.56651723 19089.08262197
0.13200001 732659.85897586 19001.53433828
0.13300001 723761.92194806 16002.37684867
0.13400001 714917.92665083 17372.50643665
0.13500001 706130.47994032 17286.07496395
0.13600001 697399.89477488 14331.56851337
0.13700001 688727.48505414 17107.99153544
0.13800001 680112.12446151 14180.33846371
0.13900001 671558.54453536 19743.82214042
0.14000001 663064.35250284 22438.09874689
0.14100001 654633.06355829 16732.42189370
0.14200001 646263.51888139 13862.35313383
0.14300001 637958.60738743 15157.89722649
0.14400001 629714.28247741 15065.91491893
0.14500001 621538.01490098 14972.85148527
0.14600001 613426.13884159 21641.67519926
0.14700001 605381.86047655 14783.42573027
0.14800001 597402.06045190 16022.32401723
0.14900001 589490.92699170 17242.61042803
0.15000001 581647.21133283 15809.17194995
0.15100001 573872.51621441 17009.58218319
0.15200001 566167.88433975 23388.39640570
0.15300001 558532.77619946 16772.74006076
0.15400001 550965.80875159 17933.93792118
0.15500001 543471.35698899 13988.95338908
0.15600001 536045.87481323 17673.43332669
0.15700001 528694.54593249 12530.06132998
0.15800001 521411.70969570 13679.23684951
0.15900001 514203.17397692 16043.13978533
0.16000001 507064.32714882 15919.28530227
0.16100001 500000.30232025 15795.01029589
0.16200001 493008.52808818 12054.05908078
0.16300001 486089.05736484 13153.57051324
0.16400001 479243.25474698 20164.16089542
0.16500001 472469.89875333 11764.50103438
0.16600001 465770.60635079 11667.55423995
0.16700001 459143.43261745 13884.49805790
0.16800001 452590.06784757 11473.15876166
0.16900001 446111.52666163 14788.59780712
0.17000001 439704.70205296 12406.26875424
0.17100001 433372.20719290 12299.10382091
0.17200001 427112.60715705 14408.64448286
0.17300001 420926.58827246 10986.18447273
0.17400001 414814.35725039 11977.76513127
0.17500001 408774.14827211 16187.45703607
0.17600001 402805.93798307 14972.29742196
0.17700001 396913.31078769 10597.58589856
0.17800001 391091.34614201 11550.88345388
0.17900001 385341.39567615 13525.48362709
0.18000001 379665.27257698 11338.70390110
0.18100001 374061.17966725 15317.80603093
0.18200001 368526.56050893 12139.26547660
0.18300001 363064.14140441 12024.68493135
0.18400001 357672.61446688 13895.58172848
0.18500001 352352.22006979 10813.69014480
0.18600001 347102.42334399 13630.71280868
0.18700001 341921.78697214 9642.19484816
0.18800001 336809.40460466 15277.67531468
0.18900001 331769.76796399 11346.52660046
0.19000001 326794.64382878 11235.20038568
0.19100001 321890.67866635 11124.54238034
0.19200001 317052.87440590 10096.54926253
0.19300001 312284.53196550 9087.48030960
0.19400001 307581.10586688 9896.42254891
0.19500001 302945.08823247 13359.87902237
0.19600001 298373.61507945 8816.94074225
0.19700001 293869.56537787 13091.88975628
0.19800001 289429.16710253 11231.29936019
0.19900001 285053.33866036 13682.56090233
0.20000001 280739.90337511 10157.17018415
0.20100001 276491.45204296 10890.99881071
0.20200001 272304.16083736 10779.16071621
0.20300001 268179.56655554 10668.18366181
0.20400001 264116.55864853 11370.21838724
0.20500001 260113.72250356 8841.26584580
0.20600001 256170.85411579 13521.97917366
0.20700001 252287.87782935 9445.65859242
0.20800001 248463.39468386 7789.32779154
0.20900001 244699.49028565 8478.83773920
0.21000001 240990.37157907 8390.08018314
0.21100001 237339.78920466 9811.62734955
0.21200001 233744.28584465 10455.38240010
0.21300001 230204.71600036 10345.40042614
0.21400001 226720.38823874 8042.90615301
0.21500001 223291.56203531 8681.57634238
0.21600001 219914.74699930 10021.51549456
0.21700001 216591.65281445 9207.31159646
0.21800001 213320.97064363 10511.39132545
0.21900001 210101.13691010 6933.33784585
0.22000001 206931.61853669 7545.76182672
0.22100001 203814.18811746 9501.81789932
0.22200001 200745.80550013 8057.93701379
0.22300001 197725.72631972 8636.66013403
0.22400001 194753.34667625 7230.21833725
0.22500001 191830.71215640 9104.28602946
0.22600001 188952.97727441 7720.61901653
0.22700001 186122.50192129 7638.46784007
0.22800001 183336.78910099 6927.38090378
0.22900001 180595.39905819 6853.59571837
0.23000001 177898.85471859 6780.61516827
0.23100001 175246.82272501 6708.44869117
0.23200001 172635.82855602 7843.70924140
0.23300001 170068.09826370 7760.20769079
0.23400001 167540.71009741 8268.13443435
0.23500001 165054.06912774 5842.91432347
0.23600001 162608.05175361 6358.78816458
0.23700001 160201.42192022 9722.62475620
0.23800001 157833.33973068 5658.32549698
0.23900001 155503.70911616 7837.38731016
0.24000001 153210.78897317 7753.99839670
0.24100001 150956.12435198 5479.70757317
0.24200001 148737.51587699 8132.22406524
0.24300001 146554.01331289 5363.87714098
0.24400001 144405.53605456 6368.28444125
0.24500001 142291.02202149 7350.75454535
0.24600001 140210.61762607 5714.28399167
0.24700001 138164.04961027 5653.67317750
0.24800001 136149.59999844 6610.74414066
0.24900001 134165.96261366 7043.71337044
0.25000001 132215.26796149 7466.85761137
0.25100001 130294.54362583 6402.67417668
0.25200001 128405.84861311 5360.30240395
0.25300001 126545.26644996 5785.64985581
0.25400001 124715.15100497 5247.39022679
0.25500001 122911.74286192 5663.77337904
0.25600001 121138.24502605 6070.84343671
0.25700001 119391.25030548 6468.61824760
0.25800001 117671.39463432 5485.84067741
0.25900001 115979.04965711 5880.13809583
0.26000001 114311.81935351 7608.02349705
0.26100001 112670.06896717 5756.31409590
0.26200001 111054.45769380 6133.53798865
0.26300001 109462.12725639 4334.70044446
0.26400001 107894.91666782 6004.35239668
0.26500001 106351.30443375 4667.75897247
0.26600001 104830.47710086 5038.15296787
0.26700001 103332.88476263 5400.17681323
0.26800001 101857.96536566 4109.96909699
0.26900001 100404.19370648 4879.64404505
0.27000001 98972.62686932  4827.88496715
0.27100001 97561.91834548  5174.68439393
0.27200001 96172.48628011  5119.74254941
0.27300001 94803.42652139  4286.06311587
0.27400001 93452.89738512  4625.91863948
0.27500001 92124.02283608  5339.50861627
0.27600001 90812.35091991  4905.22936708
0.27700001 89521.41082702  5972.86881305
0.27800001 88247.88316230  5539.76112769
0.27900001 86993.19343796  4019.08572705
0.28000001 85755.72988026  3976.06460408
0.28100001 84536.25535640  4648.64890206
0.28200001 83334.50936259  4598.81511683
0.28300001 82149.52539389  4199.48393690
0.28400001 80980.52838453  4154.30130275
0.28500001 79828.69029825  4452.04626865
0.28600001 78692.58985031  4404.03099942
0.28700001 77573.21099209  4021.39544817
0.28800001 76467.57773611  3646.35661694
0.28900001 75379.30921822  4262.70013806
0.29000001 74305.14188776  3892.10351631
0.29100001 73246.51284543  4170.65663884
0.29200001 72201.95133821  4759.91386728
0.29300001 71172.37950943  4394.18291891
0.29400001 70156.08618429  4346.16974485
0.29500001 69155.12441241  3377.53643618
0.29600001 68166.63619743  3340.50616499
0.29700001 67192.36767488  5406.29815904
0.29800001 66231.62088370  4158.68367215
0.29900001 65284.51386022  3231.58358906
0.30000001 64349.43636272  3486.45262718
0.30100001 63428.31008562  4884.61439093
0.30200001 62518.91094419  4546.37541909
0.30300001 61622.87961676  3934.00482097
0.30400001 60739.01218706  2778.80993911
0.30500001 59867.87750011  2747.93570735
0.30600001 59007.74654448  3260.76822842
0.30700001 58160.47617098  3224.41695157
0.30800001 57324.75750771  2922.70289990
0.30900001 56501.09188695  2890.03098684
0.31000001 55688.97015587  3896.83587115
0.31100001 54887.80474190  2568.74938354
0.31200001 54098.99006383  3301.93201488
0.31300001 53320.58127777  4520.51909476
0.31400001 52554.89050395  2731.54056327
0.31500001 51798.62053295  2946.30567541
0.31600002 51054.90562428  3155.95914059
0.31700002 50321.07431727  2640.34689444
0.31800002 49598.12307470  3322.57842209
0.31900002 48886.50447793  2815.86279126
0.32000002 48185.75982472  2784.17333450
0.32100002 47495.01884817  3441.01427848
0.32200002 46815.88242915  3175.52145553
0.32300002 46145.56416290  2242.67452451
0.32400002 45486.90376696  2439.23533000
0.32500002 44838.07023501  2411.83991215
0.32600002 44199.73545925  2818.39626502
0.32700002 43571.73623310  2786.84838143
0.32800002 42954.78890561  3603.69218588
0.32900002 42345.94622128  3144.18665582
0.33000002 41748.50568719  2487.37608663
0.33100002 41160.09619698  2459.72746521
0.33200002 40583.23006227  2432.55892513
0.33300002 40015.39244394  2806.67975893
0.33400002 39457.97449100  2379.31597448
0.33500002 38910.02587921  2157.17193690
0.33600002 38371.53753723  2133.64944580
0.33700002 37842.79814515  1918.62995682
0.33800002 37324.53434275  3226.51952406
0.33900002 36815.08729613  2065.32649512
0.34000002 36315.38629189  2229.03851616
0.34100002 35825.50787246  2021.63350498
0.34200002 35345.73379881  2182.24570809
0.34300002 34874.63266940  2339.39047026
0.34400002 34413.75173037  3383.73229914
0.34500002 33961.85092785  1938.88216130
0.34600002 33520.05376070  2268.13454514
0.34700002 33086.21879578  2590.65105441
0.34800002 32662.73006061  2393.85159952
0.34900002 32247.98532957  1862.32124099
0.35000002 31842.94010001  2011.83705080
0.35100002 31447.56682650  1826.47476779
0.35200002 31059.74872507  1809.07515017
0.35300002 30682.43566383  2118.00863419
0.35400002 30313.30298870  2259.85684484
0.35500002 29953.72396822  2079.38761636
0.35600002 29602.59322203  2060.78462476
0.35700002 29260.33584237  1571.28010916
0.35800002 28927.30664011  2025.05619726
0.35900002 28603.55724365  2471.34746291
0.36000002 28288.19724272  1684.98654857
0.36100002 27980.87536697  2430.97856703
0.36200002 27683.83657905  1959.60046507
0.36300002 27393.86592118  1794.84618017
0.36400002 27113.05154062  2375.10342746
0.36500002 26840.00625279  1915.57133700
0.36600002 26576.21651690  1901.92702512
0.36700002 26320.14914134  1743.44676171
0.36800002 26073.28257043  1587.47188450
0.36900002 25834.34154144  2294.08963755
0.37000002 25602.89612966  1852.24160824
0.37100002 25379.72154535  2124.28279397
0.37200002 25165.18911514  1689.59087723
0.37300002 24958.20536326  1680.18646465
0.37400002 24758.97303713  1810.49998911
0.37500002 24567.77296028  1662.74695272
0.37600002 24384.58273894  1654.73786305
0.37700002 24208.67907569  2058.94825292
0.37800002 24040.33027316  1503.36212485
0.37900002 23880.42556159  1497.30275364
0.38000002 23726.92962117  1627.19291050
0.38100002 23580.29442334  1486.26602791
0.38200002 23442.09462581  1750.77292007
0.38300002 23310.32860029  1476.94249008
0.38400002 23185.93736004  1874.58312437
0.38500002 23067.93763328  1602.76038269
0.38600002 22957.87424162  1599.24559544
0.38700002 22853.59747790  1596.09532347
0.38800002 22756.12258481  1991.72972359
0.38900002 22665.22755460  1988.87381214
0.39000002 22581.51435492  1721.72764356
0.39100002 22503.16775607  1323.18632674
0.39200002 22431.98960786  1454.60243504
0.39300002 22366.29886504  2114.95732088
0.39400002 22307.93139907  1453.91949782
0.39500002 22254.17993450  1982.84752611
0.39600002 22206.60751489  1586.88424820
0.39700002 22164.23664098  1455.52548917
0.39800002 22128.74133071  1721.72680081
0.39900002 22097.61937654  1723.61439303
0.40000002 22072.40242458  1460.42057562
0.40100002 22052.03160478  1861.63259628
0.40200002 22037.41997226  1731.81073057
0.40300002 22027.52806540  1868.81556961
0.40400002 22022.67890072  1605.45336793
0.40500002 22022.18083839  1475.26596426
0.40600002 22027.39163421  1748.20401988
0.40700002 22036.50007414  1618.36064212
0.40800002 22049.95146648  1488.04104522
0.40900002 22067.50932879  1628.58226563
0.41000002 22089.95736425  1361.84593603
0.41100002 22116.25461983  1366.78460027
0.41200002 22145.56258080  1783.49296695
0.41300002 22180.18869111  1515.12876128
0.41400002 22217.62604957  1383.04728712
0.41500002 22258.72841089  1805.62813425
0.41600002 22302.29549410  1674.01037911
0.41700002 22350.76551580  1961.95028994
0.41800002 22402.73497113  1830.41554755
0.41900002 22455.93910660  1839.14149998
0.42000002 22512.75085744  2416.85648282
0.42100002 22573.18631274  1571.77103743
0.42200002 22635.78911398  2154.36133101
0.42300002 22700.69167878  2021.26968286
0.42400002 22767.99570537  1596.60577450
0.42500002 22838.22350145  1751.23506108
0.42600002 22909.37398288  1760.81456776
0.42700002 22983.74420904  2065.77902740
0.42800002 23059.39884555  1632.25962463
0.42900002 23137.82760766  1940.10693684
0.43000002 23217.67159892  1951.32930200
0.43100002 23297.66793660  1811.62674460
0.43200002 23380.42607065  1518.55874525
0.43300002 23463.80415391  1527.49372280
0.43400002 23548.97255038  2151.19874442
0.43500002 23634.50599604  2009.40579501
0.43600002 23721.97157645  1865.97037263
0.43700002 23809.44165123  1877.13646874
0.43800002 23897.33474533  2517.82330809
0.43900002 23986.85117808  2216.38515389
0.44000002 24076.17953817  1751.90328712
0.44100002 24166.25066227  1602.22249484
0.44200002 24256.40854649  1773.02226673
0.44300002 24346.97599371  1945.81041363
0.44400002 24437.35715616  1631.19366748
0.44500002 24527.33067431  2133.14204984
0.44600002 24617.03222847  1815.62929806
0.44700002 24707.57056806  1826.38370295
0.44800002 24796.50721308  2338.06277593
0.44900002 24885.66492811  2015.73895471
0.45000002 24974.64719923  2872.20943727
0.45100002 25062.07526318  2208.97141839
0.45200002 25149.21287235  1708.88909566
0.45300002 25235.11733403  2405.91620065
0.45400002 25320.33841136  1728.11317848
0.45500002 25404.85994174  2259.00025308
0.45600002 25487.71395046  2446.05602375
0.45700002 25569.80421422  1756.64563277
0.45800002 25650.23903488  2119.22284950
0.45900002 25729.21901428  2130.37943535
0.46000002 25807.28359941  1784.57374548
0.46100002 25882.93695503  1973.05637759
0.46200002 25957.76409431  1983.04348197
0.46300002 26030.78283542  1992.91682833
0.46400002 26101.48608324  2002.63661465
0.46500002 26171.55464433  2195.27010761
0.46600002 26238.63230649  2021.81790820
0.46700002 26303.80559565  2215.83268840
0.46800002 26367.81872654  2782.46420300
0.46900002 26428.88177260  2049.55987861
0.47000002 26487.95895315  3368.47389973
0.47100002 26545.23484661  2067.34298784
0.47200002 26600.32486097  2642.21039367
0.47300002 26653.05716223  2653.04543568
0.47400002 26702.76300992  3044.11512741
0.47500002 26750.65415787  2673.99551636
0.47600002 26796.74070199  2492.49895453
0.47700002 26839.28346796  2886.56507380
