# SAXS profile: number of points = 501, q_min = 0, q_max = 0.5, delta_q = 0.001
#    q    intensity    error
0.00000000 1664650.74656090 399.51617917
0.00100000 1664569.15635227 898.86736578
0.00200000 1664324.31892181 898.73516068
0.00300000 1663916.46141742 1198.01989490
0.00400000 1663345.45424541 1871.26370713
0.00500000 1662611.80794031 2094.89096092
0.00600000 1661715.42991550 3140.64229040
0.00700000 1660656.87059492 2789.90365855
0.00800000 1659435.96687024 2688.28637983
0.00900000 1658053.90721324 3730.62145071
0.01000000 1656510.17646156 3553.21448194
0.01100000 1654805.90196334 3276.51582854
0.01200000 1652941.12254307 6446.47066056
0.01300000 1650916.94986135 4507.00347190
0.01400000 1648733.45999504 4822.54558427
0.01500000 1646391.95647145 5136.74313292
0.01600000 1643891.94318526 5868.69449952
0.01700000 1641235.66287731 4874.47013741
0.01800000 1638423.05289579 5136.45650196
0.01900000 1635454.68842207 6868.91000132
0.02000000 1632331.86899623 6170.21474392
0.02100000 1629056.62121823 6451.06451251
0.02200000 1625627.40573529 8412.62220689
0.02300000 1622047.53044357 7007.24565047
0.02400000 1618316.37278134 6068.68667465
0.02500000 1614436.64808933 6925.93353661
0.02600000 1610408.33899553 8478.80029262
0.02700000 1606233.41340117 9444.65290337
0.02800000 1601911.88367040 7665.14871488
0.02900000 1597446.22927435 10063.91170650
0.03000000 1592837.86142777 8147.36603570
0.03100000 1588086.90974201 9147.38102101
0.03200000 1583195.15968691 9404.17968168
0.03300000 1578166.05096840 11268.10612338
0.03400000 1572997.97230653 9909.88768278
0.03500000 1567694.05428708 11005.21276929
0.03600000 1562255.56775243 10404.62256207
0.03700000 1556684.32917259 10647.72130397
0.03800000 1550981.74555968 9980.56799457
0.03900000 1545150.04104527 11125.08081073
0.04000000 1539188.98903998 10412.61399337
0.04100000 1533102.65871335 16419.53023614
0.04200000 1526891.89760973 14772.67979472
0.04300000 1520557.23073070 13046.38164526
0.04400000 1514102.60602165 13286.25098488
0.04500000 1507529.40600617 14562.73473868
0.04600000 1500837.43747053 11638.99486864
0.04700000 1494030.85615614 17211.23626338
0.04800000 1487110.42982611 14209.34081812
0.04900000 1480079.48685949 13320.71600178
0.05000000 1472937.95099630 19155.55894471
0.05100000 1465690.22774995 12575.62273992
0.05200000 1458334.88554433 12753.13916840
0.05300000 1450877.70688450 17628.16496043
0.05400000 1443318.55511074 13098.11649845
0.05500000 1435660.19072639 15677.41001407
0.05600000 1427903.48758803 14650.29046630
0.05700000 1420053.84848388 13589.91596435
0.05800000 1412109.97117199 14996.60859407
0.05900000 1404074.34899676 13900.33670429
0.06000000 1395951.26252800 22991.31836796
0.06100000 1387741.57084958 18068.39609682
0.06200000 1379447.68788474 16946.51563780
0.06300000 1371072.72168209 17110.98836662
0.06400000 1362615.54931939 17271.15289534
0.06500000 1354081.85202890 18767.57534703
0.06600000 1345473.23544931 16226.40797873
0.06700000 1336790.62826765 19089.37106502
0.06800000 1328037.65600015 13745.19038300
0.06900000 1319216.73515593 15236.95400443
0.07000000 1310328.72123993 15350.50168817
0.07100000 1301376.40984338 22487.78541537
0.07200000 1292362.69316706 15566.50936844
0.07300000 1283289.66157851 17093.41909315
0.07400000 1274160.18215504 15767.73299311
0.07500000 1264975.30976624 14420.71920727
0.07600000 1255736.76907513 20305.26450787
0.07700000 1246449.44693006 17500.15105545
0.07800000 1237114.00863266 21989.70253468
0.07900000 1227731.88862133 19152.61836082
0.08000000 1218307.74069469 22203.65961576
0.08100000 1208841.98706571 19329.38428008
0.08200000 1199337.01656748 17918.09586833
0.08300000 1189795.84854012 22487.14259277
0.08400000 1180220.22885161 15047.80862418
0.08500000 1170612.76438366 22651.35805420
0.08600000 1160975.22314409 21211.01832273
0.08700000 1151310.92753631 18236.76594853
0.08800000 1141620.28173374 18288.75777228
0.08900000 1131908.03421145 19864.98693346
0.09000000 1122173.96277589 15317.67531145
0.09100000 1112420.91927455 18421.69128866
0.09200000 1102651.18081533 16920.18316464
0.09300000 1092869.53888862 18491.35346694
0.09400000 1083072.46546744 16977.16169409
0.09500000 1073266.21964471 20091.54457611
0.09600000 1063451.65643433 15473.22232848
0.09700000 1053633.28634568 17037.25104118
0.09800000 1043810.61507156 17050.64719888
0.09900000 1033987.14036293 15509.80783475
0.10000000 1024162.62560252 21722.49031058
0.10100000 1014340.33233451 17071.34859609
0.10200000 1004523.11747871 18623.85947405
0.10300000 994711.70253708 18621.00394744
0.10400000 984909.53621195 17063.55851763
0.10500000 975119.05316038 17054.83304219
0.10600001 965337.72794140 20141.77264124
0.10700001 955572.89286375 20124.36607072
0.10800001 945823.20047131 18557.05206657
0.10900001 936092.24780529 18534.62737889
0.11000001 926380.39335146 16966.65770284
0.11100001 916690.10850709 20020.51291223
0.11200001 907023.13194892 18448.85137236
0.11300001 897380.83237729 16879.73425173
0.11400001 887765.87617638 18376.75450211
0.11500001 878179.76815631 19864.42729107
0.11600001 868623.48872212 16768.77723945
0.11700001 859099.89053824 18247.28253439
0.11800001 849608.09010643 18198.60614720
0.11900001 840151.00002580 18147.26245532
0.12000001 830729.70492736 19601.06831107
0.12100001 821348.82403538 19539.88944429
0.12200001 812006.44548443 20974.12747498
0.12300001 802705.32224599 22395.47954581
0.12400001 793445.82777678 16364.82096897
0.12500001 784229.43206703 23715.09914317
0.12600001 775060.02648934 20670.85188055
0.12700001 765936.00485596 17647.16638353
0.12800001 756859.39781808 23432.36806080
0.12900001 747832.52133095 18957.55530925
0.13000001 738856.14718934 17422.22877192
0.13100001 729930.19684834 17343.14229463
0.13200001 721057.31247602 17262.11287442
0.13300001 712238.45061902 18610.79159204
0.13400001 703473.76757143 28490.68892985
0.13500001 694765.54651955 25511.79207103
0.13600001 686114.15260644 18329.54045113
0.13700001 677521.16713749 16829.62658527
0.13800001 668985.43716890 18132.85112953
0.13900001 660511.20326713 16644.88310727
0.14000001 652096.35520448 17929.39013191
0.14100001 643744.62774433 21938.81794823
0.14200001 635454.67631333 17719.65448475
0.14300001 627229.07495585 18967.40812131
0.14400001 619064.41804188 17504.04724580
0.14500001 610967.48579505 14718.20742709
0.14600001 602935.21836084 19942.08328804
0.14700001 594970.36120185 17170.84543435
0.14800001 587069.78461217 14433.11133563
0.14900001 579238.10444771 14336.14376147
0.15000001 571473.80425222 12943.88227704
0.15100001 563778.22273632 15424.97290189
0.15200001 556152.68875345 12763.70480917
0.15300001 548596.66374926 12672.58353061
0.15400001 541108.73715332 15096.93447902
0.15500001 533693.16008847 21230.31491024
0.15600001 526346.46582101 17353.64379712
0.15700001 519073.77765392 19683.27857763
0.15800001 511869.64828677 14649.71002541
0.15900001 504739.44500653 14536.49670232
0.16000001 497678.97538406 13220.84260513
0.16100001 490693.22325903 16693.38424327
0.16200001 483779.48957970 14194.09089432
0.16300001 476937.96591391 14079.20941843
0.16400001 470169.76331851 16291.38306810
0.16500001 463473.85555705 16156.69936750
0.16600001 456851.89582536 19455.03890225
0.16700001 450301.91291395 14751.89136357
0.16800001 443825.71890838 13501.17900667
0.16900001 437423.81694830 17846.89257419
0.17000001 431093.59052827 13269.06134302
0.17100001 424837.39959887 13152.96651268
0.17200001 418654.10254365 14123.29681625
0.17300001 412543.87208470 16151.09335484
0.17400001 406507.50207610 12804.98692013
0.17500001 400542.69595726 16918.92427627
0.17600001 394649.70529881 10477.95017055
0.17700001 388832.02090607 12458.17853824
0.17800001 383084.85320423 15428.74319153
0.17900001 377409.44691629 14266.07776727
0.18000001 371807.41082797 12113.48601696
0.18100001 366277.10396192 11999.23849259
0.18200001 360816.35707696 11885.29136355
0.18300001 355427.15245969 11771.74784555
0.18400001 350108.84622288 11658.62512998
0.18500001 344861.20307780 13470.27922858
0.18600001 339683.81761112 10480.94468755
0.18700001 334575.43321340 10378.53042861
0.18800001 329534.96375718 11210.77999669
0.18900001 324566.86858948 9250.15619185
0.19000001 319662.90794658 10074.17701993
0.19100001 314829.79790511 11787.22819051
0.19200001 310062.70806982 9873.94740504
0.19300001 305364.57665271 9774.72056053
0.19400001 300730.97633834 10555.65776827
0.19500001 296164.38713397 11319.40341116
0.19600001 291662.26621749 9480.48241141
0.19700001 287226.99616482 8530.64218923
0.19800001 282855.00335427 8443.22224914
0.19900001 278547.32343913 11698.98813734
0.20000001 274301.65699553 13232.31255884
0.20100001 270120.48059031 9003.11604358
0.20200001 266000.18547416 10529.61783966
0.20300001 261942.16540670 11221.60289641
0.20400001 257945.57331971 8725.00942993
0.20500001 254008.51108652 10203.52237263
0.20600001 250131.13538119 8543.22933277
0.20700001 246313.20633640 9990.46412124
0.20800001 242553.37125767 8364.45340321
0.20900001 238853.74005938 8276.28248429
0.21000001 235208.45959260 8933.21771762
0.21100001 231621.19528533 10311.77610158
0.21200001 228088.84440734 10202.41449265
0.21300001 224611.86460901 10094.05767273
0.21400001 221189.73572578 9273.38010872
0.21500001 217822.72344603 7763.20223064
0.21600001 214507.18263654 9076.87186241
0.21700001 211244.97803811 10361.56666266
0.21800001 208034.77322682 8884.12541070
0.21900001 204875.10557793 9465.23032523
0.22000001 201765.26195133 8695.07437492
0.22100001 198707.06080791 7278.63998155
0.22200001 195697.31839214 7200.68317072
0.22300001 192735.58892887 9066.28253192
0.22400001 189821.22370268 9609.69990436
0.22500001 186955.98218047 6971.58890518
0.22600001 184135.26128598 8150.74772626
0.22700001 181361.22663356 7443.06509302
0.22800001 178631.75583541 6749.60121343
0.22900001 175945.92839942 9105.20222526
0.23000001 173304.60942749 6605.50550072
0.23100001 170707.27825339 5940.61356417
0.23200001 168150.50668205 6464.54653512
0.23300001 165636.59036903 8720.76689537
0.23400001 163162.73418624 6326.63531729
0.23500001 160728.94127864 6258.78526941
0.23600001 158335.29983381 6191.70219285
0.23700001 155980.77326299 6125.36525575
0.23800001 153664.27175516 7161.52372388
0.23900001 151385.72905367 7084.85245482
0.24000001 149143.39022577 6469.84057402
0.24100001 146938.93002735 5867.27175352
0.24200001 144770.04413209 5804.55519404
0.24300001 142635.71850024 5220.46754405
0.24400001 140536.09046205 6714.11203943
0.24500001 138469.88285285 6642.40059467
0.24600001 136437.43922478 7582.51104361
0.24700001 134438.12632306 7501.64780370
0.24800001 132470.64323663 8906.00176611
0.24900001 130533.51707670 5874.00854634
0.25000001 128628.84511275 5327.16387236
0.25100001 126753.74752875 7666.06701321
0.25200001 124910.02497569 5214.36923930
0.25300001 123094.14557259 5158.87588502
0.25400001 121308.25601181 6032.05331557
0.25500001 119548.62837786 5049.73430159
0.25600001 117818.26645081 4541.89438657
0.25700001 116114.06425696 6291.06029909
0.25800001 114436.65764249 4445.86435976
0.25900001 112786.15340190 6597.99028619
0.26000001 111160.44347597 4351.93156800
0.26100001 109559.61277059 4305.69298561
0.26200001 107984.67818445 5963.99405832
0.26300001 106432.33544088 5479.13688776
0.26400001 104904.80643754 5837.95275449
0.26500001 103400.38137293 4538.24295320
0.26600001 101918.33320346 4898.19532554
0.26700001 100459.04538127 7673.06224931
0.26800001 99021.95276138  5993.30397449
0.26900001 97605.62522070  3953.02800850
0.27000001 96211.13203115  4693.17924257
0.27100001 94836.93970135  4256.28205522
0.27200001 93483.68672998  3828.15715275
0.27300001 92150.15374060  4544.84579757
0.27400001 90835.04549166  5245.72412540
0.27500001 89540.90845444  5560.49067817
0.27600001 88263.54879337  4767.55581370
0.27700001 87006.63663293  5079.44768702
0.27800001 85766.68566602  3948.26956150
0.27900001 84545.07135166  4261.07179779
0.28000001 83340.40168660  3512.79809735
0.28100001 82153.30187638  3822.59331723
0.28200001 80983.36803187  3437.74413566
0.28300001 79829.89257193  3740.82894297
0.28400001 78691.99182465  4709.71593362
0.28500001 77570.73706503  3660.56325536
0.28600001 76464.96654336  4279.36205515
0.28700001 75375.41903400  4233.08373331
0.28800001 74299.30504088  3865.05003117
0.28900001 73240.02684153  4460.31784577
0.29000001 72194.59854412  3466.42381318
0.29100001 71164.26775631  3740.39409032
0.29200001 70147.63498425  3699.58644419
0.29300001 69145.55323435  3354.25094617
0.29400001 68156.40899102  3317.51336468
0.29500001 67182.26600770  3579.47130233
0.29600001 66220.18282170  3540.13114123
0.29700001 65271.90235696  4376.48126021
0.29800001 64336.82614507  2885.50678920
0.29900001 63414.97151048  3424.40862367
0.30000001 62504.91992525  3386.51672187
0.30100001 61608.32940161  3628.11469022
0.30200001 60723.21485866  4139.80536897
0.30300001 59851.03280884  4093.81083793
0.30400001 58990.67204510  3238.58804860
0.30500001 58142.79674349  3202.50539625
0.30600001 57305.47046608  3166.70044788
0.30700001 56480.76116767  3914.11693423
0.30800001 55667.21810034  2580.17568111
0.30900001 54865.34463956  2551.23864653
0.31000001 54074.64188388  4036.13146130
0.31100001 53294.77626855  3491.87390644
0.31200001 52526.79139383  2712.74626997
0.31300001 51769.01165678  3901.31290317
0.31400001 51023.58161783  2893.03721471
0.31500001 50287.37010865  3337.07003841
0.31600002 49563.23968769  2828.07859048
0.31700002 48848.75276026  2563.09417869
0.31800002 48144.82903282  2534.10319613
0.31900002 47451.93053100  3644.30843733
0.32000002 46769.54241196  2702.34428852
0.32100002 46097.02326703  2671.78359507
0.32200002 45435.74365715  2861.77044975
0.32300002 44782.94187330  3047.03150934
0.32400002 44141.54179944  2367.09029108
0.32500002 43509.85685994  2340.39531132
0.32600002 42888.35011492  2524.40840730
0.32700002 42276.78913801  2496.02174890
0.32800002 41676.14536087  2468.06144514
0.32900002 41083.28550812  2236.98500185
0.33000002 40501.62195877  2815.26787567
0.33100002 39928.71459453  2187.29508907
0.33200002 39367.02527043  2949.57450806
0.33300002 38814.21238607  2527.96977242
0.33400002 38271.61240828  3461.66750626
0.33500002 37738.22914422  2092.20752283
0.33600002 37213.94027362  2257.39772390
0.33700002 36699.30139913  2232.78560286
0.33800002 36194.95230664  1840.51341195
0.33900002 35699.05341422  2184.78217242
0.34000002 35212.83097549  2341.47730660
0.34100002 34736.00838308  2851.13170311
0.34200002 34269.24039379  1939.46775194
0.34300002 33810.96756201  2442.50441235
0.34400002 33362.65143559  2589.77594034
0.34500002 32923.12540772  2221.32337646
0.34600002 32493.39506410  2029.53755182
0.34700002 32071.66802142  2176.38349501
0.34800002 31659.89434729  1823.13510234
0.34900002 31256.80937122  2297.37559759
0.35000002 30863.08811130  1624.94166602
0.35100002 30479.00045566  1609.29130028
0.35200002 30102.29016702  1912.69960780
0.35300002 29735.86324262  2052.66673686
0.35400002 29377.54668437  2033.66076555
0.35500002 29028.57281927  2015.16362056
0.35600002 28687.76111525  2304.34452073
0.35700002 28355.78238821  1522.70558637
0.35800002 28032.80632032  1660.52336104
0.35900002 27719.04370866  2095.55980363
0.36000002 27413.40381673  1781.32306438
0.36100002 27115.79843538  2503.05947213
0.36200002 26828.17080705  1752.95276356
0.36300002 26547.59315829  1594.44852061
0.36400002 26276.08990768  1582.47758965
0.36500002 26012.01181838  1570.86546812
0.36600002 25757.20197779  1985.10765046
0.36700002 25509.97629241  2112.22613706
0.36800002 25271.86621207  1538.67764721
0.36900002 25041.48111803  1667.76272146
0.37000002 24818.60594121  1657.38658326
0.37100002 24603.72617314  1647.46558259
0.37200002 24397.45123895  1911.05244607
0.37300002 24198.64052235  1629.05255713
0.37400002 24007.44952256  1890.58673946
0.37500002 23824.22277291  1881.16071926
0.37600002 23648.82827723  1738.54369316
0.37700002 23480.62816911  1863.89235236
0.37800002 23319.96637460  1458.31416632
0.37900002 23167.57313110  1320.55173103
0.38000002 23021.62994892  1447.25483530
0.38100002 22882.29651006  1704.50234778
0.38200002 22751.46846040  1437.77911747
0.38300002 22626.80972958  1563.96516260
0.38400002 22509.55203988  1819.89736864
0.38500002 22398.59700465  1815.63035921
0.38600002 22295.52593922  1553.10641050
0.38700002 22198.11415870  1679.50939681
0.38800002 22107.53250859  1547.96949959
0.38900002 22023.45020165  1803.72065697
0.39000002 21946.37506051  1415.87045411
0.39100002 21874.76114102  1414.85961763
0.39200002 21810.03006762  1799.98186676
0.39300002 21750.91363637  1542.57486817
0.39400002 21698.98586500  1671.36446544
0.39500002 21651.73736730  1414.72458661
0.39600002 21610.46312596  1415.59345413
0.39700002 21574.41442769  1545.59112283
0.39800002 21545.13400282  1676.31923051
0.39900002 21520.24341305  1420.33613255
0.40000002 21501.20105251  1293.29730458
0.40100002 21487.00783153  1295.66663363
0.40200002 21478.43377445  1558.04565982
0.40300002 21474.62832545  1431.49879200
0.40400002 21475.70454404  1565.57893544
0.40500002 21481.16920308  2093.12522632
0.40600002 21492.38909902  1574.53250000
0.40700002 21507.33611334  1447.87393575
0.40800002 21526.69558803  1320.66283690
0.40900002 21550.00396242  1590.39036778
0.41000002 21578.28758008  1596.36179081
0.41100002 21610.33257955  1469.07047837
0.41200002 21645.41096668  1743.21325480
0.41300002 21685.75910042  1885.35998552
0.41400002 21728.92698990  1758.41349998
0.41500002 21775.70532877  1902.32570766
0.41600002 21825.01301517  1774.70101742
0.41700002 21879.09955355  2194.91137122
0.41800002 21936.68374872  1792.33683062
0.41900002 21995.51660152  2217.14817849
0.42000002 22057.93995303  2089.43846106
0.42100002 22123.84795019  2100.65946241
0.42200002 22192.12575017  1971.32662380
0.42300002 22262.53482656  1699.07673847
0.42400002 22335.41140231  1566.27079881
0.42500002 22411.11793089  1861.69165474
0.42600002 22487.76142014  1584.37530593
0.42700002 22567.71491308  1883.50157590
0.42800002 22648.87492038  1894.69172125
0.42900002 22732.73173490  2199.39189957
0.43000002 22818.06126703  1622.70650390
0.43100002 22903.49282596  1929.39032709
0.43200002 22991.73092386  1941.30689255
0.43300002 23080.55154648  2404.07036301
0.43400002 23171.19588155  1965.49678379
0.43500002 23262.11935078  1825.61121316
0.43600002 23355.04569700  1837.10798158
0.43700002 23447.96140707  1694.58425119
0.43800002 23541.20673933  2170.26395215
0.43900002 23636.19559430  1871.98677978
0.44000002 23730.95920730  1883.76363115
0.44100002 23826.46653869  1895.63376765
0.44200002 23922.07398643  2543.39502677
0.44300002 24018.05536462  1919.52307571
0.44400002 24113.84778787  2092.47924096
0.44500002 24209.17493642  2429.39082000
0.44600002 24304.33642295  1792.56641783
0.44700002 24400.22480099  1967.63422120
0.44800002 24494.64322354  1814.68572922
0.44900002 24589.15304965  1825.74470046
0.45000002 24683.55760335  2337.77985141
0.45100002 24776.30531120  2183.78365362
0.45200002 24868.80507788  1689.83538513
0.45300002 24960.14531901  1869.76457446
0.45400002 25050.72477776  1880.68325182
0.45500002 25140.62183132  2407.46606066
0.45600002 25228.84341636  2248.26848760
0.45700002 25316.28776213  2087.07486202
0.45800002 25402.08159985  1748.93340104
0.45900002 25486.44054858  2989.55961804
0.46000002 25569.93078173  2121.79295683
0.46100002 25650.94473845  1955.37161009
0.46200002 25731.17233377  1787.03000328
0.46300002 25809.43417824  2694.50505591
0.46400002 25885.47637071  2527.71688740
0.46500002 25960.90922066  1814.66764053
0.46600002 26033.30558267  2005.99645675
0.46700002 26103.84074438  2015.73867782
0.46800002 26173.09567427  2025.40510475
0.46900002 26239.48890376  2034.87246093
0.47000002 26303.89604998  2044.20737841
0.47100002 26366.43981725  2240.09283305
0.47200002 26426.83425608  2624.97757107
0.47300002 26484.76127669  1883.06661602
0.47400002 26539.73975700  2458.24351151
0.47500002 26592.90142537  2468.35322730
0.47600002 26644.27234702  1906.39777679
0.47700002 26691.95758920  2487.95748481
