# SAXS profile: number of points = 501, q_min = 0, q_max = 0.5, delta_q = 0.001
#    q    intensity    error
0.00000000 1682732.95097188 328.13292544
0.00100000 1682650.89463365 504.79528038
0.00200000 1682404.66285297 908.49854671
0.00300000 1681994.48636928 1009.19672777
0.00400000 1681420.21742905 1513.27825319
0.00500000 1680682.39079337 1512.61421159
0.00600000 1679780.90308582 1763.77002005
0.00700000 1678716.30012258 2618.79753703
0.00800000 1677488.43043219 2943.99231970
0.00900000 1676098.49108548 3016.97741292
0.01000000 1674545.93083093 2763.00090518
0.01100000 1672831.91598393 4516.64636981
0.01200000 1670956.45462619 3910.03827526
0.01300000 1668920.74344576 3855.20708739
0.01400000 1666724.74897956 3750.13085145
0.01500000 1664369.82252380 4393.93652712
0.01600000 1661855.46207446 7204.14375014
0.01700000 1659183.94693522 6271.71560076
0.01800000 1656355.13802711 5664.73482695
0.01900000 1653369.74436014 5952.13134827
0.02000000 1650228.98808403 5718.04370237
0.02100000 1646934.85001079 7065.35082688
0.02200000 1643485.84617212 7371.03435497
0.02300000 1639885.25187873 8265.02204568
0.02400000 1636132.56229429 7362.59686604
0.02500000 1632230.38366805 8275.40842314
0.02600000 1628178.68759977 7912.94878366
0.02700000 1623979.57620392 8184.85743894
0.02800000 1619632.87892136 7749.94368105
0.02900000 1615141.24517443 7994.94953070
0.03000000 1610505.95838552 8237.73835579
0.03100000 1605727.34181077 8478.24075487
0.03200000 1600806.97044711 11093.59281615
0.03300000 1595748.45000082 8138.31747018
0.03400000 1590549.96932758 8350.38772426
0.03500000 1585214.75330044 11128.20808205
0.03600000 1579744.35786702 8767.58159134
0.03700000 1574140.16259783 9869.85927594
0.03800000 1568403.82577600 11010.19536649
0.03900000 1562537.69120972 15000.36253028
0.04000000 1556541.15222694 10530.00138276
0.04100000 1550418.68397377 11721.16579431
0.04200000 1544170.78461510 10955.89222512
0.04300000 1537798.35829984 14209.25749026
0.04400000 1531305.05917238 13437.20251829
0.04500000 1524692.35345736 11572.41550045
0.04600000 1517960.06772356 12841.94276992
0.04700000 1511112.49275726 13056.01254463
0.04800000 1504150.12705889 17688.80631724
0.04900000 1497076.55188184 14596.49706028
0.05000000 1489891.61268209 12537.43850454
0.05100000 1482599.84902851 18502.84697781
0.05200000 1475199.40417516 11727.83580972
0.05300000 1467696.48023268 14266.01045291
0.05400000 1460090.84479821 14454.90003759
0.05500000 1452385.25464638 13420.04037897
0.05600000 1444580.76860233 16056.51599228
0.05700000 1436682.47172566 13749.05189620
0.05800000 1428689.05198343 12643.89870043
0.05900000 1420603.44324366 19178.14737952
0.06000000 1412429.54619182 14216.10404658
0.06100000 1404168.25040996 13058.76533907
0.06200000 1395822.15925804 14509.57202372
0.06300000 1387394.16655243 17314.68000813
0.06400000 1378883.12992978 14788.52226011
0.06500000 1370295.39769606 18992.29510049
0.06600000 1361631.69005434 15052.83903785
0.06700000 1352893.67485755 17939.37096816
0.06800000 1344084.42496428 16693.52933947
0.06900000 1335206.52625814 14019.66918210
0.07000000 1326260.96410817 18362.08390795
0.07100000 1317250.43777966 14226.30539435
0.07200000 1308177.68072396 18621.91015748
0.07300000 1299045.55800720 18745.22828036
0.07400000 1289855.87994439 15961.96726236
0.07500000 1280610.51880974 14598.96059872
0.07600000 1271310.60959828 14683.63822924
0.07700000 1261961.60293646 25100.41745933
0.07800000 1252563.61427344 22264.31928782
0.07900000 1243118.72112977 16409.16788856
0.08000000 1233630.98672193 16487.47891098
0.08100000 1224101.36369608 19573.38172385
0.08200000 1214531.73998255 19657.19713404
0.08300000 1204925.46853948 21254.88626257
0.08400000 1195284.23822138 18287.84970319
0.08500000 1185610.45729891 15294.37561715
0.08600000 1175906.16283538 21483.80660370
0.08700000 1166174.99253187 18472.21274912
0.08800000 1156416.57209189 20069.61055120
0.08900000 1146636.03862558 18575.50469822
0.09000000 1136833.44916834 18621.33277212
0.09100000 1127011.48983957 17108.03521952
0.09200000 1117172.29312951 20259.92048785
0.09300000 1107320.56101347 20297.18683719
0.09400000 1097453.19613069 17202.57965783
0.09500000 1087576.04209232 18793.31489069
0.09600000 1077690.27752911 21952.55198521
0.09700000 1067800.41284244 17266.33348740
0.09800000 1057905.72273253 18851.88086547
0.09900000 1048009.78705913 15720.14754509
0.10000000 1038112.48235268 15727.40484726
0.10100000 1028217.03082801 18878.06557387
0.10200000 1018326.22417489 17306.45499388
0.10300000 1008440.97854164 15731.68000528
0.10400000 998564.65773675 18872.87291910
0.10500000 988699.60772474 23580.48675368
0.10600001 978843.31341897 18852.52310353
0.10700001 969003.47801581 23546.78562384
0.10800001 959178.27615336 15682.56555316
0.10900001 949371.47378068 17231.09306011
0.11000001 939583.65246379 21901.69596983
0.11100001 929817.05152990 20307.20536134
0.11200001 920073.43146027 20273.81901666
0.11300001 910354.44942238 18680.47418164
0.11400001 900662.20675933 23304.63569718
0.11500001 890999.09050260 18604.06188572
0.11600001 881365.07801385 23201.93677133
0.11700001 871763.70315333 20059.28375425
0.11800001 862193.92369831 21546.22716801
0.11900001 852658.63795356 19952.21306790
0.12000001 843158.89773014 16833.66818613
0.12100001 833699.59451516 21359.38461768
0.12200001 824278.12988683 15207.93221288
0.12300001 814898.52598258 18188.53595687
0.12400001 805559.78313962 22656.36996831
0.12500001 796264.26564711 18059.27439584
0.12600001 787015.49159076 17991.17498557
0.12700001 777812.13580640 20907.59119578
0.12800001 768656.12005428 14873.49662403
0.12900001 759549.57907398 17773.46098803
0.13000001 750493.29740605 17696.63278696
0.13100001 741487.20530238 20554.02629985
0.13200001 732534.68410082 23382.50821876
0.13300001 723635.83514361 15999.58906929
0.13400001 714790.85140774 18816.87005044
0.13500001 706002.78036892 14402.45739858
0.13600001 697271.17832617 18627.60040729
0.13700001 688597.89831764 18530.17031749
0.13800001 679981.86105663 15595.38471875
0.13900001 671427.51808981 16919.97425378
0.14000001 662932.62569982 14021.02569479
0.14100001 654500.65327272 18123.12394386
0.14200001 646130.31098090 22175.19331876
0.14300001 637824.57377995 15154.71258782
0.14400001 629579.75826035 15062.69642688
0.14500001 621402.74989311 16330.46503753
0.14600001 613290.20882916 20284.57461394
0.14700001 605245.42653780 17467.38383393
0.14800001 597265.07147220 17353.53747034
0.14900001 589353.38121463 15912.54204356
0.15000001 581509.22561939 21073.89533077
0.15100001 573734.01793546 14389.24984878
0.15200001 566029.02124523 14289.40331561
0.15300001 558393.36472247 18058.44226728
0.15400001 550826.14025009 21771.40422080
0.15500001 543331.12173331 15256.73861828
0.15600001 535905.26788267 13882.62661969
0.15700001 528553.72736550 12526.72392978
0.15800001 521270.47040674 18648.45195898
0.15900001 514061.60056258 14804.97479501
0.16000001 506922.45582334 14690.61346319
0.16100001 499858.38102078 13361.21515539
0.16200001 492866.20809696 18075.86903525
0.16300001 485946.64769449 14345.14571714
0.16400001 479100.81601773 13043.52033186
0.16500001 472327.31540186 14113.14085051
0.16600001 465627.82740143 13996.77315252
0.16700001 459000.68248065 13880.18129356
0.16800001 452447.19003379 14910.39785158
0.16900001 445968.68972151 12509.42233736
0.17000001 439561.97501154 12402.24171058
0.17100001 433229.49399975 15648.25006220
0.17200001 426969.94766746 11079.87066519
0.17300001 420784.07072935 15375.45067055
0.17400001 414671.93441517 11973.65267171
0.17500001 408631.96087752 10787.88427665
0.17600001 402664.06274662 17105.17019334
0.17700001 396771.56425999 12712.56151931
0.17800001 390949.77932192 12596.40248471
0.17900001 385200.11087243 13520.52453025
0.18000001 379524.43383944 17516.95107127
0.18100001 373920.50499127 13270.43934899
0.18200001 368386.43362430 16179.53292907
0.18300001 362924.41766253 10016.71440067
0.18400001 357533.28678743 12898.01393017
0.18500001 352213.46101375 12774.78283448
0.18600001 346964.14155942 14598.51694580
0.18700001 341783.94247402 11565.96915975
0.18800001 336672.16867816 11453.58771957
0.18900001 331633.13198562 12287.00812060
0.19000001 326658.73931489 10294.65065592
0.19100001 321755.29320793 12046.51874690
0.19200001 316918.09875795 11009.73527108
0.19300001 312150.52381077 15442.08714260
0.19400001 307447.91231973 9892.13704633
0.19500001 302812.52431050 8902.68863543
0.19600001 298241.91680945 8813.04905819
0.19700001 293738.66803970 10468.84662367
0.19800001 289299.02977085 9499.13409144
0.19900001 284924.17127048 11112.04320470
0.20000001 280611.69323536 14382.75301652
0.20100001 276364.07011929 9211.21489242
0.20200001 272177.73259763 9116.59358424
0.20300001 268054.08523174 9022.70093535
0.20400001 263992.05607729 9741.30732968
0.20500001 259990.33615768 11247.18247380
0.20600001 256048.56975630 8745.33931340
0.20700001 252166.72575193 8654.36243689
0.20800001 248343.19659200 8564.11553930
0.20900001 244580.51837820 10015.57270104
0.21000001 240872.51389104 7623.61542504
0.21100001 237223.06310729 11315.54064514
0.21200001 233628.88480958 10450.22051156
0.21300001 230090.51083805 10340.26804590
0.21400001 226607.47350021 7308.09136588
0.21500001 223179.92903287 8677.23605104
0.21600001 219804.40322774 7870.09702966
0.21700001 216482.59043704 7786.87914618
0.21800001 213213.34528891 8404.87046868
0.21900001 209994.78937026 9008.77688993
0.22000001 206826.73621754 8913.19861873
0.22100001 203710.69104416 10853.70613203
0.22200001 200643.71285801 10067.29876868
0.22300001 197625.16366398 8632.26755702
0.22400001 194654.23210607 9854.37096635
0.22500001 191733.14163453 7799.70457052
0.22600001 188856.88644588 8359.75047384
0.22700001 186027.93685163 6362.15574119
0.22800001 183243.71524837 6923.86410809
0.22900001 180503.98474624 8718.34287554
0.23000001 177809.04444228 8009.40878568
0.23100001 175158.57867703 9143.27823935
0.23200001 172549.14762028 9045.88949181
0.23300001 169983.08306482 8352.96909685
0.23400001 167457.34687070 8854.30763456
0.23500001 164972.39445561 11096.04377588
0.23600001 162528.00650305 6355.65799491
0.23700001 160123.09716462 6859.67380698
0.23800001 157756.71360880 5655.57845038
0.23900001 155428.72394240 6714.52119191
0.24000001 153137.65671151 8303.88982796
0.24100001 150884.70566806 7667.96110475
0.24200001 148667.83130665 7586.51979044
0.24300001 146486.03027815 5897.52785797
0.24400001 144339.36080120 5304.47176036
0.24500001 142226.62631254 7872.24413879
0.24600001 140147.94431422 5711.72974072
0.24700001 138103.18006263 7706.15781204
0.24800001 136090.51843225 6607.87543507
0.24900001 134108.86620501 6034.89926472
0.25000001 132159.84272649 4975.81831405
0.25100001 130240.93613237 6400.03990432
0.25200001 128354.09718508 6332.34968421
0.25300001 126495.35171691 5783.36775411
0.25400001 124666.98831631 7152.76879305
0.25500001 122865.46948784 6605.24795217
0.25600001 121093.78392859 5601.79870957
0.25700001 119348.59634508 5080.66998679
0.25800001 117630.62564217 7311.92003587
0.25900001 115940.07947917 7234.66130181
0.26000001 114274.80561356 5368.63062174
0.26100001 112634.81687097 4426.54851248
0.26200001 111021.04640287 4817.75853661
0.26300001 109430.58304924 7366.86719946
0.26400001 107865.16481864 5145.16860531
0.26500001 106323.34086247 5090.76180138
0.26600001 104804.45769996 5876.38622130
0.26700001 103308.62404620 4568.30757150
0.26800001 101835.55117242 4519.97115268
0.26900001 100383.61487648 4472.09025437
0.27000001 98953.73723031  4826.96353052
0.27100001 97544.84327197  4377.81277322
0.27200001 96157.27868593  3937.64074853
0.27300001 94790.00763840  4285.45644814
0.27400001 93441.15033784  4239.89239723
0.27500001 92114.17596178  4194.87977182
0.27600001 90804.20311949  6413.95519089
0.27700001 89515.04884932  5225.88879915
0.27800001 88243.14430825  4431.57091689
0.27900001 86990.24602634  5115.02670843
0.28000001 85754.53726366  5421.83087510
0.28100001 84536.73360383  6794.21760130
0.28200001 83336.64440284  4598.93293904
0.28300001 82153.33375567  3849.70540200
0.28400001 80986.04418742  5539.44568461
0.28500001 79835.83050008  3424.95729056
0.28600001 78701.38189436  4404.52304619
0.28700001 77583.47955171  4692.24906538
0.28800001 76479.53513919  5304.62080834
0.28900001 75392.84562531  4591.42451591
0.29000001 74320.16531747  3892.89044360
0.29100001 73263.16714594  3529.81956017
0.29200001 72220.20123230  3808.89359329
0.29300001 71191.99402448  3453.52379360
0.29400001 70177.20442659  3726.40973145
0.29500001 69177.75986679  3685.79122018
0.29600001 68190.68530461  3949.26372636
0.29700001 67217.91434473  3906.03318748
0.29800001 66258.55319836  3268.86587678
0.29900001 65312.78367410  2939.07540447
0.30000001 64379.00126428  3488.05445362
0.30100001 63459.23698644  3449.64428589
0.30200001 62551.20084809  2842.95221313
0.30300001 61656.46012791  3092.68818643
0.30400001 60773.87324324  3058.44531576
0.30500001 59903.96190935  3849.42877454
0.30600001 59045.00013940  4350.43581623
0.30700001 58198.93864353  4570.94485747
0.30800001 57364.41594885  3190.60896613
0.30900001 56541.87739606  2892.11716573
0.31000001 55730.93575600  3119.81793133
0.31100001 54930.83509188  3341.99216522
0.31200001 54143.06742425  3304.62227670
0.31300001 53365.76172461  2764.88024586
0.31400001 52601.01811343  3231.01769060
0.31500001 51845.77842477  3440.48601916
0.31600002 51102.96902742  3644.91943846
0.31700002 50370.13408392  3123.45216243
0.31800002 49648.02507544  2613.22392358
0.31900002 48937.31582535  2818.78952501
0.32000002 48237.38132192  3019.41902681
0.32100002 47547.49821156  2526.19869960
0.32200002 46869.12228980  3406.21362370
0.32300002 46199.53585856  3367.94632356
0.32400002 45541.68467578  3108.22012630
0.32500002 44893.46848995  2853.87792704
0.32600002 44255.77737308  2170.74598294
0.32700002 43628.44845881  2575.82371898
0.32800002 43012.11150752  2334.91258375
0.32900002 42403.83157362  3358.38361966
0.33000002 41807.05218656  3113.58035903
0.33100002 41219.12185446  2257.98360211
0.33200002 40642.74992034  2436.12654559
0.33300002 40075.40814630  2610.11145617
0.33400002 39518.34378290  1985.79686913
0.33500002 38970.86813031  2160.54503146
0.33600002 38432.74971278  1942.77558998
0.33700002 37904.26511704  2882.61949866
0.33800002 37386.40881410  2851.64846734
0.33900002 36877.26657422  2068.81475279
0.34000002 36377.77638386  2605.01269022
0.34100002 35888.16104792  2025.16902384
0.34200002 35408.58871021  2186.12637050
0.34300002 34937.64356117  2343.61724108
0.34400002 34476.82791148  2497.84630048
0.34500002 34025.14214221  1765.90496081
0.34600002 33583.40460106  2272.42117995
0.34700002 33149.59121097  1903.44961748
0.34800002 32726.18396386  2227.18055514
0.34900002 32311.43158073  1696.35023833
0.35000002 31906.32172275  1679.86791826
0.35100002 31510.87922164  1996.52940204
0.35200002 31122.93092869  1977.55112487
0.35300002 30745.52684883  2285.62257420
0.35400002 30376.30179322  2102.79959123
0.35500002 30016.48068708  1923.45617353
0.35600002 29665.25794639  1747.43210210
0.35700002 29322.72247674  1574.63027158
0.35800002 28989.48844502  2029.40923472
0.35900002 28665.41237359  2012.31204394
0.36000002 28349.76016497  1688.65354421
0.36100002 28042.20536179  2131.76855258
0.36200002 27744.74088166  1963.91157633
0.36300002 27454.42925874  2248.51786280
0.36400002 27173.18026600  1636.50485904
0.36500002 26899.77031517  1772.15695231
0.36600002 26635.48541921  2492.68202103
0.36700002 26378.98446815  1747.34401394
0.36800002 26131.61197053  1446.38479108
0.36900002 25892.18423487  2299.22606897
0.37000002 25660.18343444  1713.58713092
0.37100002 25436.43658601  1703.22387448
0.37200002 25221.37970260  1552.24988733
0.37300002 25013.72793837  1683.92424458
0.37400002 24813.95546492  1395.78506102
0.37500002 24622.11602565  1944.16237348
0.37600002 24438.22241807  1796.57600617
0.37700002 24261.65047517  1375.63564711
0.37800002 24092.68307121  1917.53673648
0.37900002 23931.91993656  1773.35535131
0.38000002 23777.85066744  1630.68507602
0.38100002 23630.44235348  1624.82929320
0.38200002 23491.43530294  1754.45792871
0.38300002 23358.95733985  1749.11880847
0.38400002 23233.73515476  1744.27274938
0.38500002 23114.92832943  2007.53162052
0.38600002 23004.01875654  1335.38335208
0.38700002 22898.94672226  1465.99063861
0.38800002 22800.58551167  1596.49707316
0.38900002 22708.85638367  1594.16179366
0.39000002 22624.26357101  1990.36968196
0.39100002 22545.10792030  1723.34813107
0.39200002 22473.01707596  1722.21974521
0.39300002 22406.40986610  1456.64077441
0.39400002 22347.13212227  1456.47440507
0.39500002 22292.43166463  1853.83870506
0.39600002 22244.00345324  1589.55656208
0.39700002 22200.67865208  1722.99475182
0.39800002 22164.19500686  1724.48527421
0.39900002 22132.16002227  1460.72263068
0.40000002 22105.96924182  1595.60893547
0.40100002 22084.64621462  1598.04507580
0.40200002 22069.05515818  2401.33400554
0.40300002 22058.25058431  1470.40305362
0.40400002 22052.33978159  1339.67970521
0.40500002 22050.90804680  1611.48043641
0.40600002 22055.08936885  2288.98755860
0.40700002 22063.28239874  1620.32753614
0.40800002 22075.67350899  2166.94821432
0.40900002 22092.23538283  1630.40704850
0.41000002 22113.76327825  1908.63899898
0.41100002 22139.06044971  1641.83280074
0.41200002 22167.35159859  1922.57449524
0.41300002 22201.00940757  1792.28757440
0.41400002 22237.47441610  1799.56770239
0.41500002 22277.57213021  1807.15673683
0.41600002 22320.19784062  1814.96697341
0.41700002 22367.67845194  1823.18955701
0.41800002 22418.70654840  1409.01577333
0.41900002 22470.88438170  1981.93209638
0.42000002 22526.76599316  1564.82187386
0.42100002 22586.26287058  1429.71050745
0.42200002 22647.92880068  1868.11449565
0.42300002 22711.89758790  1444.47675504
0.42400002 22778.28971801  1597.32764217
0.42500002 22847.53362273  1459.95746767
0.42600002 22917.77230680  1614.67172439
0.42700002 22991.22234766  1623.64019913
0.42800002 23066.04231023  2226.44983950
0.42900002 23143.55257189  1642.03513279
0.43000002 23222.45074122  1801.59781388
0.43100002 23301.59341188  1509.94332464
0.43200002 23383.52718277  1670.63617874
0.43300002 23466.01791825  1527.63783887
0.43400002 23550.35998804  2151.32548685
0.43500002 23635.11444458  1854.88386951
0.43600002 23721.69216433  1710.45269457
0.43700002 23808.39268806  1877.05376848
0.43800002 23895.45740278  1573.51594454
0.43900002 23984.24784924  1899.55251968
0.44000002 24072.78013811  2229.38027424
0.44100002 24162.11566794  1922.33801364
0.44200002 24251.57117324  1772.66867892
0.44300002 24341.37938433  1621.13594382
0.44400002 24431.03584469  2283.08040788
0.44500002 24520.31448991  2132.53185225
0.44600002 24609.34871494  1980.06829144
0.44700002 24699.25997116  1991.74841847
0.44800002 24787.55905026  1669.44218115
0.44900002 24876.12278488  2350.79371458
0.45000002 24964.56447149  2364.39401315
0.45100002 25051.32140768  2887.41544229
0.45200002 25137.88280503  1708.11921755
0.45300002 25223.19461864  2061.23956192
0.45400002 25307.90396144  2245.44388540
0.45500002 25391.89452574  2431.52793502
0.45600002 25474.26280905  1746.26079832
0.45700002 25555.83175220  1755.68572458
0.45800002 25635.79541635  2294.53197749
0.45900002 25714.35863325  1951.71991276
0.46000002 25791.94437799  3031.97216505
0.46100002 25867.29455983  1971.86395775
0.46200002 25941.65991156  2882.63738599
0.46300002 26014.33960886  2353.77755937
0.46400002 26084.68563869  2183.28829144
0.46500002 26154.42137613  2193.83296901
0.46600002 26221.16188923  2387.83022062
0.46700002 26286.08766827  2398.86847430
0.46800002 26349.77330261  3151.30128749
0.46900002 26410.56705817  2606.72309219
0.47000002 26469.45261918  2057.07360780
0.47100002 26526.50210116  2253.69172533
0.47200002 26581.37654379  2263.13850620
0.47300002 26633.92640218  2461.77393403
0.47400002 26683.47585140  2091.31751898
0.47500002 26731.22756109  1908.60973833
0.47600002 26777.15582743  2873.85838539
0.47700002 26819.63283668  2884.45164830
