# SAXS profile: number of points = 501, q_min = 0, q_max = 0.5, delta_q = 0.001
#    q    intensity    error
0.00000000 1664650.74656090 349.57665678
0.00100000 1664569.13689592 649.18197881
0.00200000 1664324.23889569 823.84052434
0.00300000 1663916.28559812 1497.52471038
0.00400000 1663345.13271428 1746.51245571
0.00500000 1662611.31533932 1795.62029164
0.00600000 1661714.71160013 2442.72072550
0.00700000 1660655.88703781 2192.06586199
0.00800000 1659434.69119507 2688.28431324
0.00900000 1658052.30398294 2984.49427475
0.01000000 1656508.18429903 3279.88634654
0.01100000 1654803.51254895 4467.96967841
0.01200000 1652938.23886346 4190.19861923
0.01300000 1650913.57783955 4506.99426628
0.01400000 1648729.57346334 4822.53421617
0.01500000 1646387.48895090 5926.99522415
0.01600000 1643886.88793421 5030.29410195
0.01700000 1641229.94153657 6646.98156140
0.01800000 1638416.61123900 5136.43630736
0.01900000 1635447.55698507 6378.24576004
0.02000000 1632324.00293640 5141.82084184
0.02100000 1629047.93625271 8063.78765005
0.02200000 1625617.82814563 7851.73446667
0.02300000 1622037.14109107 8175.06756321
0.02400000 1618305.06800947 7282.37313810
0.02500000 1614424.39234352 8185.13204300
0.02600000 1610395.06311171 9130.94042548
0.02700000 1606219.17156778 8095.34499548
0.02800000 1601896.60388849 12542.85098366
0.02900000 1597429.81427046 7907.27794370
0.03000000 1592820.26291940 8147.27601932
0.03100000 1588068.27097407 8385.00085656
0.03200000 1583175.24118398 8620.38958529
0.03300000 1578144.98669315 9658.24776381
0.03400000 1572975.64919815 9909.74704719
0.03500000 1567670.37333523 8465.42040693
0.03600000 1562230.62880476 9537.41842961
0.03700000 1556657.95028365 10647.54087236
0.03800000 1550953.98796279 9980.38937443
0.03900000 1545120.94918452 11124.87134932
0.04000000 1539158.43772034 9465.82483062
0.04100000 1533070.62522891 11590.01446412
0.04200000 1526858.24566287 9848.23614141
0.04300000 1520522.15982179 11038.99139271
0.04400000 1514065.95384229 13285.92936199
0.04500000 1507491.11493870 13522.19592931
0.04600000 1500797.52431468 13754.80994976
0.04700000 1493989.35448250 11832.39623780
0.04800000 1487067.28859712 13115.93409569
0.04900000 1480034.50409564 14430.33708663
0.05000000 1472891.24478715 14647.90411150
0.05100000 1465641.89314359 14861.60948879
0.05200000 1458284.72879540 15071.37337445
0.05300000 1450825.62860208 11751.68813952
0.05400000 1443264.72715988 14288.32146520
0.05500000 1435604.53149368 16882.71007793
0.05600000 1427845.98698213 17091.31726173
0.05700000 1419994.48011637 13589.34780904
0.05800000 1412048.73241650 12496.63186538
0.05900000 1404011.16135057 17690.54145927
0.06000000 1395886.19929041 20435.77491235
0.06100000 1387674.47406778 19358.05981787
0.06200000 1379378.53108689 13035.12772808
0.06300000 1371001.59251866 18426.26226498
0.06400000 1362542.28506458 17270.22427087
0.06500000 1354006.70659650 18766.53383128
0.06600000 1345395.90743778 14873.35245263
0.06700000 1336711.26976622 17724.79226660
0.06800000 1327956.26457584 13744.34798172
0.06900000 1319133.33858719 16621.08084438
0.07000000 1310243.04302150 16744.90687395
0.07100000 1301288.67480062 19675.48568454
0.07200000 1292272.65338832 24055.65656975
0.07300000 1283197.75165184 17092.19485287
0.07400000 1274065.98573916 15766.56731241
0.07500000 1264879.06346884 15861.58419937
0.07600000 1255638.35588399 17403.14842842
0.07700000 1246348.87082333 24789.88020304
0.07800000 1237011.08588420 16124.44026068
0.07900000 1227626.90974567 14731.52360791
0.08000000 1218200.48803998 17761.36394883
0.08100000 1208732.75610446 17840.89631716
0.08200000 1199225.43295541 25381.60747954
0.08300000 1189682.06378877 19486.99311942
0.08400000 1180104.33030536 18055.59710118
0.08500000 1170494.62691051 24159.01023358
0.08600000 1160854.68580529 19693.90066934
0.08700000 1151188.37203205 18234.82466925
0.08800000 1141495.43509758 18286.75772908
0.08900000 1131780.87402775 19862.75527213
0.09000000 1122044.59246262 18379.09128790
0.09100000 1112289.45438529 18419.51422999
0.09200000 1102517.46514417 18456.14323371
0.09300000 1092733.75125695 16948.30127843
0.09400000 1082934.54398136 20061.36337009
0.09500000 1073126.06192621 20088.92082349
0.09600000 1063309.18268183 17018.26426881
0.09700000 1053488.76394789 26326.68544875
0.09800000 1043663.92946067 21697.77411367
0.09900000 1033838.25801864 20159.84697933
0.10000000 1024011.75814973 20167.91252520
0.10100000 1014187.36105316 17068.77408930
0.10200000 1004367.91079952 20172.73043726
0.10300000 994554.33187827 18618.05796857
0.10400000 984750.14993158 21713.74182752
0.10500000 974957.66577656 20152.37589976
0.10600001 965174.31655635 21687.46791349
0.10700001 955407.41383650 21668.64116549
0.10800001 945655.74330684 20099.91376992
0.10900001 935922.77187050 16986.99910895
0.11000001 926208.80919032 15421.37739890
0.11100001 916516.68464988 16937.22912962
0.11200001 906847.68628325 16908.17590674
0.11300001 897203.60584278 23013.27357335
0.11400001 887586.62724866 19904.13105323
0.11500001 877998.78014847 21388.05129154
0.11600001 868440.68781645 18289.36174669
0.11700001 858915.08932779 15202.79779708
0.11800001 849421.58840750 18194.61128062
0.11900001 839962.70214220 19655.12815592
0.12000001 830539.74329831 25626.30498659
0.12100001 821157.18432294 18032.61261721
0.12200001 811812.86192454 20969.12721139
0.12300001 802510.20995040 20897.36685168
0.12400001 793249.03518191 16360.76212150
0.12500001 784031.04045145 20745.46230788
0.12600001 774860.02491114 19189.40942120
0.12700001 765734.50667991 17642.52386533
0.12800001 756656.47917304 16105.43391824
0.12900001 747628.19855597 20410.25078256
0.13000001 738650.16577597 23223.16230662
0.13100001 729722.96417629 17338.21844611
0.13200001 720848.59585364 15819.02318172
0.13300001 712028.56072879 20036.48464349
0.13400001 703262.33425811 21361.59441020
0.13500001 694552.91878894 24087.09635926
0.13600001 685900.32160734 16914.30272836
0.13700001 677306.04629507 15422.25940135
0.13800001 668769.19259406 19521.37365237
0.13900001 660293.83078328 19412.63954049
0.14000001 651878.09244247 15165.94453591
0.14100001 643525.28550235 16448.50707320
0.14200001 635234.29986372 17713.50928716
0.14300001 627007.60745870 16252.03795190
0.14400001 618842.28313013 21535.71246877
0.14500001 610744.29569703 20062.95106006
0.14600001 602711.22391429 15947.73973710
0.14700001 594745.67250718 13203.35455255
0.14800001 586844.34423611 14427.56888372
0.14900001 579011.94319464 19541.65400481
0.15000001 571247.01806502 15526.49468359
0.15100001 563550.73780090 14133.85317095
0.15200001 555924.95923282 16586.02194136
0.15300001 548368.13262707 20267.68713831
0.15400001 540880.00179656 13833.00669874
0.15500001 533463.82150715 13731.35941362
0.15600001 526116.76364908 14868.06044242
0.15700001 518843.80247421 17215.23817860
0.15800001 511639.29706073 12202.59781085
0.15900001 504508.91771672 12108.21459672
0.16000001 497448.22479185 16818.72527410
0.16100001 490462.41243512 13110.06090324
0.16200001 483548.49216326 13005.03731065
0.16300001 476706.97254965 17590.48811749
0.16400001 469938.93111514 15120.28582245
0.16500001 463243.18446466 14995.18258906
0.16600001 456621.05353695 13726.02951737
0.16700001 450071.52523673 22683.60594293
0.16800001 443595.46946787 15743.20395475
0.16900001 437193.77411323 12263.28594292
0.17000001 430863.88616441 13261.99104237
0.17100001 424608.09310885 14241.35611537
0.17200001 418425.25369220 14115.57659988
0.17300001 412315.47894962 10761.43450879
0.17400001 406279.71268966 12797.81155411
0.17500001 400315.50639798 12681.99584163
0.17600001 394423.15897619 11519.12890194
0.17700001 388606.14687300 14526.09845619
0.17800001 382859.70480181 12335.74027136
0.17900001 377185.02366052 10183.99611986
0.18000001 371583.85545073 11097.35236722
0.18100001 366054.48470451 12991.27427583
0.18200001 360594.70454759 13857.65515037
0.18300001 355206.45225107 9803.69854525
0.18400001 349889.22285930 15535.08222884
0.18500001 344642.71288551 9615.53214376
0.18600001 339466.58312468 10474.24191715
0.18700001 334359.25777941 10371.82466633
0.18800001 329320.10291258 10269.84789454
0.18900001 324353.29670899 14790.51102874
0.19000001 319450.81629558 11897.94621509
0.19100001 314619.15798325 13591.54826708
0.19200001 309853.29872667 10764.30410639
0.19300001 305156.64164115 9768.06456050
0.19400001 300524.85144780 10548.42278427
0.19500001 295959.87410403 13921.95313574
0.19600001 291459.29159354 8612.62247359
0.19700001 287025.77662310 12786.99895284
0.19800001 282655.50515986 9280.99395053
0.19900001 278349.74404743 11690.68980249
0.20000001 274105.83273566 10743.57862183
0.20100001 269926.64222713 9814.53317524
0.20200001 265808.30296350 10522.02217012
0.20300001 261752.23409389 8810.58061603
0.20400001 257757.61044594 9511.25627501
0.20500001 253822.74856586 10980.37262197
0.20600001 249947.40917607 7760.86742176
0.20700001 246131.83842961 9983.10783860
0.20800001 242374.09944365 11397.64256511
0.20900001 238676.73153930 9021.98087867
0.21000001 235033.76016908 9670.46451930
0.21100001 231448.93745394 10304.10718256
0.21200001 227918.94092717 10923.01576031
0.21300001 224444.39345722 10806.99805587
0.21400001 221024.76511651 9979.26861680
0.21500001 217660.26492701 8462.63150045
0.21600001 214347.30677444 10465.50774806
0.21700001 211087.75918512 7592.82705687
0.21800001 207880.16057003 6828.86359760
0.21900001 204723.22387130 7431.45337790
0.22000001 201616.14075173 8688.64799652
0.22100001 198560.58749701 8595.68823918
0.22200001 195553.63665421 7849.52334646
0.22300001 192594.68660642 8412.53630876
0.22400001 189683.16178268 6401.80701288
0.22500001 186820.87330155 7599.87348528
0.22600001 184003.07569059 6891.83552589
0.22700001 181232.00435697 8057.57529475
0.22800001 178505.49634553 6131.66408944
0.22900001 175822.72106850 6672.47258010
0.23000001 173184.47230870 6600.92647422
0.23100001 170590.20895163 5936.53955227
0.23200001 168036.52358930 7047.45213263
0.23300001 165525.75093109 7552.94037220
0.23400001 163055.05357112 8621.53636533
0.23500001 160624.44598295 9097.76905076
0.23600001 158233.95934982 6187.73927304
0.23700001 155882.79720506 5565.01612343
0.23800001 153569.52097321 9359.29489840
0.23900001 151294.16250681 7625.22615101
0.24000001 149055.23871463 6466.01656129
0.24100001 146853.99293088 5330.80019554
0.24200001 144688.40388868 6328.67108545
0.24300001 142557.47747355 5217.60392234
0.24400001 140461.25796641 8775.31750656
0.24500001 138398.46075730 6638.97447658
0.24600001 136369.33075348 6568.22912645
0.24700001 134373.43246961 7997.90707894
0.24800001 132409.39215112 7418.23654620
0.24900001 130475.84491839 6849.98218227
0.25000001 128574.51426303 7261.24603652
0.25100001 126702.81879559 7662.98684329
0.25200001 124862.60133392 5212.38953928
0.25300001 123050.20002505 5157.03412703
0.25400001 121267.64024422 6030.03369643
0.25500001 119511.64366001 5048.17206704
0.25600001 117784.79530048 5902.78529576
0.25700001 116084.02559739 8086.41360571
0.25800001 114410.16503425 5778.28565845
0.25900001 112763.04784932 6156.86270388
0.26000001 111140.90506832 5221.39996716
0.26100001 109543.47465019 5166.07050894
0.26200001 107972.13567851 6389.25143110
0.26300001 106423.27062779 5057.23405953
0.26400001 104899.26133041 5003.69500223
0.26500001 103398.25737936 4538.14973112
0.26600001 101919.77429377 4898.26458434
0.26700001 100463.89768347 4846.37865358
0.26800001 99030.27914050  5594.22073337
0.26900001 97617.43655717  4348.85700442
0.27000001 96226.31028708  5085.07960776
0.27100001 94855.52192466  3870.10547767
0.27200001 93505.76130794  4594.87332812
0.27300001 92175.69275430  5303.78961208
0.27400001 90863.82656755  3748.13302329
0.27500001 89573.22154244  6304.16363050
0.27600001 88299.11916672  4769.47714751
0.27700001 87045.53388445  3992.77882824
0.27800001 85808.81491378  3591.09907410
0.27900001 84590.66557264  3908.08893442
0.28000001 83389.20197996  5623.76804769
0.28100001 82205.32085144  4172.74228391
0.28200001 81038.67897777  5160.13812814
0.28300001 79888.36755365  4083.89354263
0.28400001 78753.73713891  3703.39466424
0.28500001 77635.64106457  5661.96757083
0.28600001 76532.99688470  4612.64394057
0.28700001 75446.46917665  3585.21638497
0.28800001 74373.43144527  3868.90608691
0.28900001 73317.22076031  4146.08903025
0.29000001 72274.77835752  5047.67075942
0.29100001 71247.51376793  3120.64125075
0.29200001 70233.84687999  4630.16657473
0.29300001 69234.63417135  4579.87126723
0.29400001 68248.36292997  3925.98726339
0.29500001 67277.12319864  3285.81485256
0.29600001 66317.78630475  3840.79477565
0.29700001 65372.39510052  3506.57543919
0.29800001 64439.99135447  4046.18724869
0.29900001 63520.84111070  5145.18837354
0.30000001 62613.33232273  3392.39050584
0.30100001 61719.44776628  3355.06933940
0.30200001 60836.87163453  2765.03594669
0.30300001 59967.29592709  3281.41058848
0.30400001 59109.38196286  2704.25435282
0.30500001 58263.91840812  3744.03957416
0.30600001 57429.01479714  2909.06688227
0.30700001 56606.65732537  2876.75046147
0.30800001 55795.42702780  3103.34179821
0.30900001 54995.88085194  2813.03943876
0.31000001 54207.41703040  3034.53134903
0.31100001 53429.65199064  3750.76174732
0.31200001 52663.88730151  2967.08355105
0.31300001 51908.18694623  2689.36329302
0.31400001 51164.72021440  3142.79308797
0.31500001 50430.50327972  3107.52775923
0.31600002 49708.29015059  2836.35517029
0.31700002 48995.68238621  2570.80357653
0.31800002 48293.59162306  2541.93331544
0.31900002 47602.46814301  2513.41043696
0.32000002 46921.86824031  2485.21686902
0.32100002 46251.00156843  2904.10052599
0.32200002 45591.32937075  2650.68001513
0.32300002 44940.06533962  2620.90473471
0.32400002 44300.14354793  2375.59531025
0.32500002 43669.89389880  2562.54949532
0.32600002 43049.80327311  2533.91154064
0.32700002 42439.61631198  2923.24090999
0.32800002 41840.19516085  2890.73922055
0.32900002 41248.52711263  2450.16262651
0.33000002 40668.13661608  2221.09038646
0.33100002 40096.34305001  2196.47777629
0.33200002 39535.71674895  3159.69463220
0.33300002 38983.89772785  2539.02137925
0.33400002 38442.17355569  1931.71931265
0.33500002 37909.72549046  2292.78030624
0.33600002 37386.28181763  2078.86429892
0.33700002 36872.31579755  2056.36914941
0.33800002 36368.74296861  2774.02600130
0.33900002 35873.51782908  2195.45939511
0.34000002 35387.83713083  1810.08795496
0.34100002 34911.58749577  2686.44678503
0.34200002 34445.31679591  2126.65395970
0.34300002 33987.46272028  1929.12847537
0.34400002 33539.51598918  2082.80404157
0.34500002 33100.31585521  1889.69712167
0.34600002 32670.82747676  1870.56831577
0.34700002 32249.23693896  2188.43332232
0.34800002 31837.61692109  2166.70912218
0.34900002 31434.64457547  1980.38270205
0.35000002 31040.96769427  1634.30702651
0.35100002 30656.76447422  1780.54496499
0.35200002 30279.94457322  2244.65239753
0.35300002 29913.36876554  1747.23995235
0.35400002 29554.86221015  1888.55578468
0.35500002 29205.57882841  1871.49357997
0.35600002 28864.54770032  2318.54490385
0.35700002 28532.14656608  1685.39397749
0.35800002 28208.75863433  1974.75424173
0.35900002 27894.42263078  1958.18856143
0.36000002 27588.24791737  1792.68443458
0.36100002 27290.08452262  1778.22199172
0.36200002 27001.79137582  2352.39617609
0.36300002 26720.53949242  2042.51813555
0.36400002 26448.16885215  1448.03731324
0.36500002 26183.41646456  1868.71052159
0.36600002 25927.66907709  1570.05007533
0.36700002 25679.53460126  1701.01245256
0.36800002 25440.40404008  1548.93907335
0.36900002 25209.08831145  1539.01491432
0.37000002 24985.07759218  1668.50356064
0.37100002 24769.14108169  1796.75357918
0.37200002 24561.70062805  2336.18626590
0.37300002 24361.59656467  1503.35419522
0.37400002 24169.18693157  2039.27524395
0.37500002 23984.64120965  1623.28059397
0.37600002 23807.85885978  1615.60137876
0.37700002 23638.21578822  1742.37296829
0.37800002 23476.20835132  1601.54700960
0.37900002 23322.24180213  1595.24141484
0.38000002 23174.79393748  1721.77139715
0.38100002 23033.96874923  1583.81576623
0.38200002 22901.40541346  1578.82296400
0.38300002 22775.11718316  1705.40085547
0.38400002 22656.11586047  1831.74705410
0.38500002 22543.45112683  1435.79247029
0.38600002 22438.56230848  1823.58204520
0.38700002 22339.36731371  1430.16636318
0.38800002 22246.86257464  1557.72539127
0.38900002 22160.86655690  1555.69290600
0.39000002 22081.94182781  1424.61654451
0.39100002 22008.31691779  1423.49800568
0.39200002 21941.58232318  1293.45633923
0.39300002 21880.43135908  1293.13355459
0.39400002 21826.45618945  1681.18286764
0.39500002 21777.01953629  1940.33253261
0.39600002 21733.72414473  1294.24333414
0.39700002 21695.45262232  1813.30601608
0.39800002 21663.96418144  1555.90598123
0.39900002 21636.86605399  1557.85442970
0.40000002 21615.57700586  1560.21242220
0.40100002 21599.11721946  1302.42683004
0.40200002 21588.29737241  2088.02022079
0.40300002 21582.15071869  1700.24191418
0.40400002 21580.86615597  1835.45275353
0.40500002 21583.96153699  1577.35598386
0.40600002 21592.72434605  1581.88306054
0.40700002 21605.33804662  1454.47142621
0.40800002 21622.25571188  1989.78817616
0.40900002 21643.10434076  1464.15607803
0.41000002 21668.96209437  1736.65904934
0.41100002 21698.50720266  1475.06458953
0.41200002 21731.06539358  1750.11143440
0.41300002 21768.94911616  1351.85180417
0.41400002 21809.61674146  1764.94331843
0.41500002 21853.85271884  1909.15266398
0.41600002 21900.60404484  1506.87113271
0.41700002 21952.15751306  1376.40034129
0.41800002 22007.14981033  1383.14943112
0.41900002 22063.45281804  1528.99735274
0.42000002 22123.34920781  1536.79852554
0.42100002 22186.63477611  2106.62107181
0.42200002 22252.31874401  1835.48259857
0.42300002 22320.17053471  2413.25695257
0.42400002 22390.43475685  1855.60736840
0.42500002 22463.51523412  1866.04429892
0.42600002 22537.57315932  1732.23795511
0.42700002 22614.94969863  1597.06782340
0.42800002 22693.57589374  1752.39801355
0.42900002 22774.79476846  1615.87176539
0.43000002 22857.45767483  1921.05512131
0.43100002 22940.34891936  1635.18814846
0.43200002 23026.10743313  1645.10032352
0.43300002 23112.25512551  1805.52945597
0.43400002 23200.35555409  1513.82327164
0.43500002 23288.74589016  1675.39245873
0.43600002 23379.08676634  1532.49921016
0.43700002 23469.51416504  1850.33658446
0.43800002 23560.21553277  1706.58429299
0.43900002 23652.73596926  2185.51290713
0.44000002 23744.92086633  1727.79924872
0.44100002 23837.95915779  2054.59379718
0.44200002 23931.08940429  2703.37564267
0.44300002 24024.59347839  1920.04560178
0.44400002 24117.96216934  2092.83626643
0.44500002 24210.86212113  2105.61877846
0.44600002 24303.59279334  2118.42276623
0.44700002 24397.15944191  2131.33594985
0.44800002 24489.18242793  2144.15046909
0.44900002 24581.35898366  1825.16599103
0.45000002 24673.43724728  2670.65297421
0.45100002 24763.85722291  1846.88855921
0.45200002 24854.07260886  3377.66862762
0.45300002 24943.10860878  1698.62577676
0.45400002 25031.50407199  1708.40023388
0.45500002 25119.17868526  2061.78228420
0.45600002 25205.20420034  2073.38019578
0.45700002 25290.46620320  1737.45511050
0.45800002 25374.14282735  1747.00981646
0.45900002 25456.41231601  2634.73879958
0.46000002 25537.76153129  2648.90444038
0.46100002 25616.78165750  1952.76735830
0.46200002 25694.92334049  2141.41501269
0.46300002 25771.28218785  1793.68132529
0.46400002 25845.34422319  2523.79798301
0.46500002 25918.84236762  1811.72716736
0.46600002 25989.33469045  2184.66357762
0.46700002 26058.00868728  2195.12675586
0.46800002 26125.43746671  1837.92461289
0.46900002 26190.01076825  2769.59377001
0.47000002 26252.71170432  2411.18042077
0.47100002 26313.46752076  2608.19102428
0.47200002 26372.17130665  2619.54790005
0.47300002 26428.45868094  3006.50160204
0.47400002 26481.79695238  2452.87655897
0.47500002 26533.39141172  3031.17477855
0.47600002 26583.18134782  3233.44541650
0.47700002 26629.37561365  2673.05685080
