# SAXS profile: number of points = 501, q_min = 0, q_max = 0.5, delta_q = 0.001
#    q    intensity    error
0.00000000 1664650.74656090 324.60689558
0.00100000 1664569.14016795 549.30782930
0.00200000 1664324.25055288 898.73512376
0.00300000 1663916.31158558 1397.68975152
0.00400000 1663345.18315358 1372.25982824
0.00500000 1662611.38735826 1795.62036942
0.00600000 1661714.82031732 1744.80063237
0.00700000 1660656.04241604 2391.34480046
0.00800000 1659434.88365806 2688.28462503
0.00900000 1658052.55065874 2984.49471877
0.01000000 1656508.49033733 4099.85869061
0.01100000 1654803.87056293 3276.51180637
0.01200000 1652938.68542624 4190.19975127
0.01300000 1650914.10169142 4160.30371975
0.01400000 1648730.17433768 5564.46458507
0.01500000 1646388.17886241 3951.33180522
0.01600000 1643887.65925280 4191.91371849
0.01700000 1641230.84568107 6203.85287497
0.01800000 1638417.60212129 6070.33748901
0.01900000 1635448.65692437 5887.61543059
0.02000000 1632325.21690506 7712.73699877
0.02100000 1629049.26544684 5375.86281971
0.02200000 1625619.32690373 6730.06431914
0.02300000 1622038.69579287 8759.00935598
0.02400000 1618306.79135950 6675.51581875
0.02500000 1614426.24768602 8185.14144959
0.02600000 1610397.09755435 7826.53025209
0.02700000 1606221.33575748 8769.96889491
0.02800000 1601898.89644064 7665.08657099
0.02900000 1597432.27875753 7907.29014291
0.03000000 1592822.96468543 8887.95255148
0.03100000 1588071.11422712 7622.74169904
0.03200000 1583178.27718389 10187.75268291
0.03300000 1578148.14565822 13682.54505363
0.03400000 1572979.00422705 12387.21022984
0.03500000 1567673.87891494 9311.98327076
0.03600000 1562234.35750491 10404.48130181
0.03700000 1556661.89799608 9760.27055182
0.03800000 1550958.12113150 11795.03705707
0.03900000 1545125.27112724 11124.90246731
0.04000000 1539162.95689898 10412.43788592
0.04100000 1533075.39458466 10624.21297708
0.04200000 1526863.28224136 12802.74921555
0.04300000 1520527.35056545 13046.12527343
0.04400000 1514071.33007101 13285.97653840
0.04500000 1507496.78299327 11441.90111457
0.04600000 1500803.40528140 14812.93029873
0.04700000 1493995.42950229 11832.44435196
0.04800000 1487073.49718176 14208.98792669
0.04900000 1480041.08804581 15540.43214785
0.05000000 1472898.07587119 13521.20496613
0.05100000 1465648.99279796 13718.47521165
0.05200000 1458292.02640556 13912.10658023
0.05300000 1450833.16588467 15277.27394896
0.05400000 1443272.49827308 15479.09826583
0.05500000 1435612.55510147 18088.71903810
0.05600000 1427854.24282985 15870.60064964
0.05700000 1420003.02319932 14824.83225420
0.05800000 1412057.47485724 12496.70923599
0.05900000 1404020.23824206 17690.65582811
0.06000000 1395895.45831565 14049.68844433
0.06100000 1387683.97580054 14196.00773584
0.06200000 1379388.35844828 18249.30883531
0.06300000 1371011.61794507 17110.22579195
0.06400000 1362552.51202112 19927.33142024
0.06500000 1354017.18661781 14745.24785202
0.06600000 1345406.76418217 13521.33861267
0.06700000 1336722.30161851 17724.93854897
0.06800000 1327967.61374895 20616.69816850
0.06900000 1319144.79760351 13851.02102333
0.07000000 1310254.96124657 15349.63758980
0.07100000 1301300.71048156 22486.47733034
0.07200000 1292285.02369112 21225.78250849
0.07300000 1283210.27774603 15667.99822541
0.07400000 1274078.79561498 15766.72583463
0.07500000 1264892.10060334 18745.70180960
0.07600000 1255651.63601253 15953.05478343
0.07700000 1246362.43035683 18957.17345460
0.07800000 1237024.91102766 19056.36964805
0.07900000 1227640.90857317 17678.02991262
0.08000000 1218214.80569899 14801.31058359
0.08100000 1208747.19460955 22301.38678689
0.08200000 1199240.19486213 14930.54112665
0.08300000 1189697.12223777 17988.22133246
0.08400000 1180119.42835694 19560.48044316
0.08500000 1170509.97696070 22649.36911747
0.08600000 1160870.37837433 19694.16689379
0.08700000 1151204.23881749 18235.07599915
0.08800000 1141511.49356415 19810.93290120
0.08900000 1131797.24213900 16807.18983519
0.09000000 1122061.14310792 22974.20298436
0.09100000 1112306.14592917 18419.79064197
0.09200000 1102534.46823263 16918.39220997
0.09300000 1092750.82964617 20030.12364867
0.09400000 1082951.81470412 21604.88971872
0.09500000 1073143.52529507 24725.22798495
0.09600000 1063326.96112763 17018.54881285
0.09700000 1053506.61321775 18583.85753084
0.09800000 1043682.04280257 18598.41487720
0.09900000 1033856.47545308 15507.84786101
0.10000000 1024030.05278517 15514.05602928
0.10100000 1014205.77113217 23276.02354220
0.10200000 1004386.64717899 17069.55187170
0.10300000 994573.27756853 18618.41263191
0.10400000 984769.18976664 18612.13856220
0.10500000 974976.70837895 18602.55647111
0.10600001 965193.55562679 20138.76448575
0.10700001 955426.82791749 17025.70687468
0.10800001 945675.23457111 20100.32805676
0.10900001 935942.45143103 18531.66141054
0.11000001 926228.68369034 24674.73329494
0.11100001 916536.54497816 15397.81468046
0.11200001 906867.70160459 16908.54909242
0.11300001 897223.60636805 16876.77683036
0.11400001 887606.79662352 18373.46155521
0.11500001 878018.99210296 21388.54365477
0.11600001 868460.92193823 15241.48989776
0.11700001 858935.43054223 16723.47362025
0.11800001 849442.06699177 27292.57489788
0.11900001 839983.25450901 19655.60908132
0.12000001 830560.22026123 21104.53619096
0.12100001 821177.71780360 15027.55294373
0.12200001 811833.45181707 16476.16068084
0.12300001 802530.82361249 16419.78142472
0.12400001 793269.69964463 17848.56908298
0.12500001 784051.74434646 16300.43653305
0.12600001 774880.72496056 19189.92205794
0.12700001 765755.27971299 14702.50206337
0.12800001 756677.22909758 17570.04608771
0.12900001 747648.83858120 20410.81425527
0.13000001 738670.91810022 17417.86106979
0.13100001 729743.49874682 20228.49073878
0.13200001 720869.25054032 21572.01333933
0.13300001 712049.00193613 15743.40417500
0.13400001 703282.89222219 15665.62716281
0.13500001 694573.40966845 19837.01751541
0.13600001 685920.82615421 16914.80837051
0.13700001 677326.48353710 15422.72475737
0.13800001 668789.60709780 16733.11675865
0.13900001 660314.13578166 19413.23650747
0.14000001 651898.21397795 15166.41266345
0.14100001 643545.36828182 13707.51699089
0.14200001 635254.18901636 17714.06389621
0.14300001 627027.49165593 16252.55335032
0.14400001 618861.92421638 22882.42072726
0.14500001 610763.99481978 17388.45175277
0.14600001 602730.75239303 17277.27783239
0.14700001 594764.97837625 13203.78314286
0.14800001 586863.60946579 14428.04251941
0.14900001 579031.06617967 15633.83952447
0.15000001 571265.93882771 18114.84377494
0.15100001 563569.63121785 12849.38819806
0.15200001 555943.43708675 16586.57322815
0.15300001 548386.62896643 13934.50489959
0.15400001 540898.14540506 12575.88247414
0.15500001 533481.99616800 13731.82722941
0.15600001 526134.64156657 13629.51853303
0.15700001 518861.56646129 14756.42364662
0.15800001 511656.89862147 12203.01760809
0.15900001 504526.13322737 14530.35332279
0.16000001 497465.28505283 12013.78720111
0.16100001 490479.32490819 13110.51297367
0.16200001 483565.16113354 13005.48562262
0.16300001 476723.45977399 16418.35672969
0.16400001 469955.13177269 17447.08509073
0.16500001 463259.01949406 14995.69516899
0.16600001 456636.79863641 14870.37804967
0.16700001 450086.87427724 13610.62772077
0.16800001 443610.62366783 12370.08282505
0.16900001 437208.72585118 12263.70533919
0.17000001 430878.64724344 12157.24160603
0.17100001 424622.53913218 14241.84063501
0.17200001 418439.42043289 11944.35382030
0.17300001 412329.32211972 11837.97539710
0.17400001 406293.20377252 10665.19710270
0.17500001 400328.72191410 13739.28238497
0.17600001 394436.16648081 12566.73685759
0.17700001 388618.85893085 14526.57363293
0.17800001 382872.04222152 15420.17222880
0.17900001 377197.16446638 17313.35066678
0.18000001 371595.65289775 11097.70469799
0.18100001 366065.86028379 15989.75753250
0.18200001 360605.84462079 12868.22017316
0.18300001 355217.34288571 11764.79895214
0.18400001 349899.68297363 12622.63165958
0.18500001 344652.91539480 12500.56183192
0.18600001 339476.35881388 13331.23724043
0.18700001 334368.79463150 11315.04054491
0.18800001 329329.29453443 12137.43172351
0.18900001 324362.24593901 9244.32444603
0.19000001 319459.31947432 10067.76092892
0.19100001 314627.29578992 9061.26654689
0.19200001 309861.23049260 8970.48304663
0.19300001 305164.27645539 10656.33703736
0.19400001 300532.01519583 11427.73041783
0.19500001 295966.61436775 13922.27019776
0.19600001 291465.83273960 12919.22364670
0.19700001 287031.83467689 13639.75342843
0.19800001 282661.27391789 10124.92731023
0.19900001 278355.17461135 8350.65563299
0.20000001 274111.05233039 9917.33834202
0.20100001 269931.29729539 11450.48617245
0.20200001 265812.68154534 9712.79584273
0.20300001 261756.26737969 14417.53588871
0.20400001 257761.29387895 10304.00820984
0.20500001 253826.08946803 9411.87184234
0.20600001 249950.50958449 12417.54190311
0.20700001 246134.42892378 10751.15236359
0.20800001 242376.41141462 9118.20102844
0.20900001 238678.73942785 10525.73290633
0.21000001 235035.42669743 8182.75876729
0.21100001 231450.16094090 10304.16165220
0.21200001 227919.95578846 7282.04293170
0.21300001 224444.98790214 7925.15289749
0.21400001 221025.04532742 9979.28126832
0.21500001 217660.17388378 9873.06595414
0.21600001 214346.90589551 9070.08975179
0.21700001 211086.97764882 8973.30784411
0.21800001 207879.12518137 10243.24437762
0.21900001 204721.70152135 7431.39811659
0.22000001 201614.28002058 9356.91917817
0.22100001 198558.51612055 7273.19878940
0.22200001 195551.22605514 7195.30770292
0.22300001 192592.05385294 9706.63997317
0.22400001 189680.22463170 7041.87867244
0.22500001 186817.58020003 6966.42789508
0.22600001 183999.44695001 7518.21775790
0.22700001 181228.05118834 6817.79960811
0.22800001 178501.20113108 7970.97151346
0.22900001 175818.18441227 6065.72764908
0.23000001 173179.64711795 9001.01258463
0.23100001 170585.10478083 7717.27050526
0.23200001 168031.03174510 7047.22180468
0.23300001 165520.04289279 9876.58142652
0.23400001 163049.14331701 6896.97908850
0.23500001 160618.16920519 9097.41353405
0.23600001 158227.46435225 8437.47993565
0.23700001 155875.90321943 7234.20101058
0.23800001 153562.46039073 6606.25735848
0.23900001 151286.85121240 5990.95959138
0.24000001 149047.64030309 8620.91592290
0.24100001 146846.23601652 6396.62234345
0.24200001 144680.43618444 6855.68279289
0.24300001 142549.25632869 5217.30302842
0.24400001 140452.75886634 9290.95043850
0.24500001 138389.74328361 6127.89812247
0.24600001 136360.38871160 7073.01369706
0.24700001 134364.30775609 5498.18773348
0.24800001 132399.99311406 5934.16797210
0.24900001 130466.32676734 5870.98498227
0.25000001 128564.74141667 6292.60156633
0.25100001 126692.95785749 7183.49105036
0.25200001 124852.54970335 5685.78538248
0.25300001 123039.93866710 5156.60407350
0.25400001 121257.22998772 6029.51604640
0.25500001 119501.04459484 6424.37646137
0.25600001 117774.04947084 4540.18982191
0.25700001 116073.15717779 4941.23453484
0.25800001 114399.09315722 6222.16697122
0.25900001 112751.98198176 5276.79300642
0.26000001 111129.67818991 6526.09066049
0.26100001 109532.16077200 5595.99835862
0.26200001 107960.61228751 4259.04635627
0.26300001 106411.66658345 5478.07285493
0.26400001 104887.56583083 7087.77759640
0.26500001 103386.42324343 4537.63033087
0.26600001 101907.92692619 4897.69519983
0.26700001 100451.92016935 5653.43433465
0.26800001 99018.22202743  4394.92399266
0.26900001 97605.28911706  6720.12447372
0.27000001 96214.12357256  4693.32516997
0.27100001 94843.30416005  4643.52839142
0.27200001 93493.49026389  4211.41446824
0.27300001 92163.33428761  4545.49586218
0.27400001 90851.54545267  4122.38907001
0.27500001 89560.81657865  4820.16337638
0.27600001 88286.71934377  5502.47004351
0.27700001 87033.19356920  3992.21277796
0.27800001 85796.50083193  3949.64210272
0.27900001 84578.23163575  4617.97166587
0.28000001 83376.84451242  4920.06782754
0.28100001 82193.02239701  4519.79451553
0.28200001 81026.37501219  3783.52676027
0.28300001 79876.09745227  3402.72191252
0.28400001 78741.48905306  4039.43857961
0.28500001 77623.41253225  3330.04455525
0.28600001 76520.80370045  3953.06490627
0.28700001 75434.34387613  3910.51657163
0.28800001 74361.43744107  3545.92531222
0.28900001 73305.28601713  3507.65810195
0.29000001 72262.93745752  3785.13284319
0.29100001 71235.74072630  4368.17582810
0.29200001 70222.18686675  4012.14483655
0.29300001 69223.01949774  3358.00883479
0.29400001 68236.84888126  4529.22105889
0.29500001 67265.72966545  3882.57810008
0.29600001 66306.55128725  3249.35269965
0.29700001 65361.20431724  4966.79815119
0.29800001 64429.02098055  3467.57007332
0.29900001 63509.93898428  2857.94738959
0.30000001 62602.63996464  3957.11305949
0.30100001 61708.88321517  3354.49505038
0.30200001 60826.48535984  3870.38944667
0.30300001 59956.99098965  4374.46226970
0.30400001 59099.33558009  5137.20998850
0.30500001 58254.03768232  3208.63254745
0.30600001 57419.31869531  2908.57572621
0.30700001 56597.10057558  4706.61510669
0.30800001 55786.08681134  3361.39081996
0.30900001 54986.64063324  3068.25469260
0.31000001 54198.44002569  3286.86455097
0.31100001 53420.87237190  2500.09694537
0.31200001 52655.25192933  3955.46271221
0.31300001 51899.83181574  4888.96438852
0.31400001 51156.52950433  3142.28997358
0.31500001 50422.57873814  3824.04855256
0.31600002 49700.54119147  2363.26084555
0.31700002 48988.22647294  3037.76006742
0.31800002 48286.31148413  2772.60013670
0.31900002 47595.44364470  2513.03954343
0.32000002 46915.01266770  2936.64535698
0.32100002 46244.41690887  2680.32653095
0.32200002 45584.97808649  2208.59229287
0.32300002 44933.99027418  3057.30884302
0.32400002 44294.37882481  2375.28617695
0.32500002 43664.32209479  2348.70399669
0.32600002 43044.42191817  2533.59479407
0.32700002 42434.54700685  2505.33577392
0.32800002 41835.38588745  2271.03403044
0.32900002 41244.02796493  2041.57948094
0.33000002 40663.91012397  2624.65220324
0.33100002 40092.34371355  2595.57845493
0.33200002 39531.97813162  2172.08464130
0.33300002 38980.44478169  2148.21241365
0.33400002 38439.02389618  3476.80987606
0.33500002 37906.83985613  1910.50481922
0.33600002 37383.67834573  2078.71953285
0.33700002 36869.97560276  2430.10020706
0.33800002 36366.70550667  1849.24706259
0.33900002 35871.77306765  2195.35261571
0.34000002 35386.34037994  2172.01367538
0.34100002 34910.39584909  2507.26474862
0.34200002 34444.43071463  2126.59925303
0.34300002 33986.83370304  2455.20898298
0.34400002 33539.13946148  1735.65054933
0.34500002 33100.22824112  2061.48231249
0.34600002 32671.06608771  1870.58197744
0.34700002 32249.75878956  2356.81248396
0.34800002 31838.48841934  2833.46641108
0.34900002 31435.69525444  2805.63593434
0.35000002 31042.25736645  1961.24991330
0.35100002 30658.43080807  2428.14783500
0.35200002 30281.86480060  2405.13722570
0.35300002 29915.57943926  2541.62774954
0.35400002 29557.31496399  1888.71251566
0.35500002 29208.35634257  1871.67156308
0.35600002 28867.56863233  1855.03004818
0.35700002 28535.50836439  2298.53530762
0.35800002 28212.32254243  2126.92709722
0.35900002 27898.26038717  1657.15674549
0.36000002 27592.39894554  1643.54132104
0.36100002 27294.49163765  1630.30006274
0.36200002 27006.44087834  1764.60093057
0.36300002 26725.46111338  1605.13127050
0.36400002 26453.40633649  2027.65369174
0.36500002 26188.82436267  1581.54317818
0.36600002 25933.38476463  1855.92276859
0.36700002 25685.49898441  1417.83961110
0.36800002 25446.64903381  1690.16650889
0.36900002 25215.57617351  2099.19681588
0.37000002 24991.82291202  1529.87451203
0.37100002 24776.04304322  1520.75359403
0.37200002 24568.81256264  2199.40020479
0.37300002 24368.97268906  1503.80937588
0.37400002 24176.85978180  2583.90201158
0.37500002 23992.49613403  1759.12989988
0.37600002 23815.91592350  2289.54318576
0.37700002 23646.54252684  1340.75902479
0.37800002 23484.72025177  1335.10640956
0.37900002 23330.91995276  1861.80750043
0.38000002 23183.71709040  2649.89898897
0.38100002 23043.04206573  1452.40301021
0.38200002 22910.72219319  1447.84315759
0.38300002 22784.63033687  1574.87372349
0.38400002 22665.80108753  1832.53010474
0.38500002 22553.30570956  1567.00375494
0.38600002 22448.55746375  1433.45270476
0.38700002 22349.56855078  1430.81944641
0.38800002 22257.25559857  1688.32420341
0.38900002 22171.43621921  2464.35525252
0.39000002 22092.57917755  1425.30281316
0.39100002 22019.20545399  2071.56694725
0.39200002 21952.58998424  1811.74733723
0.39300002 21891.56575448  1293.79159739
0.39400002 21837.68528843  1552.65949757
0.39500002 21788.44485491  1423.65705427
0.39600002 21745.24577990  1683.40828181
0.39700002 21707.10417877  1943.87127131
0.39800002 21675.73445345  1427.02204535
0.39900002 21648.72543510  2078.27774024
0.40000002 21627.51806310  1691.16385507
0.40100002 21611.16091595  1433.46837147
0.40200002 21600.40648601  1828.04248752
0.40300002 21594.37891444  2093.79107875
0.40400002 21593.17229866  1705.32086308
0.40500002 21596.32024233  1315.21596507
0.40600002 21605.15086579  1714.69287971
0.40700002 21617.84378095  1455.31331229
0.40800002 21634.78239742  1460.02335927
0.40900002 21655.72681962  1465.00998876
0.41000002 21681.62115719  1871.34081074
0.41100002 21711.18921665  1341.75155716
0.41200002 21743.80022815  1481.73133676
0.41300002 21781.66893278  1487.90587530
0.41400002 21822.35975241  1765.97454664
0.41500002 21866.57534224  1910.26411241
0.41600002 21913.42038811  1644.82141227
0.41700002 21964.90964288  1514.91988985
0.41800002 22019.95921492  1383.95450224
0.41900002 22076.16382836  1529.87822580
0.42000002 22136.02889397  1957.04640725
0.42100002 22199.34604318  1826.78427246
0.42200002 22264.98771201  1695.25624472
0.42300002 22332.79055093  2130.54831952
0.42400002 22403.06004609  1571.01466018
0.42500002 22476.08787082  2010.71091620
0.42600002 22550.08457704  1444.33298560
0.42700002 22627.39340633  1597.94659808
0.42800002 22705.94187515  1899.46565758
0.42900002 22787.11006350  1910.69926937
0.43000002 22869.73157212  1478.52821620
0.43100002 22952.52702819  1636.05620410
0.43200002 23038.16876287  2094.86078488
0.43300002 23124.27134782  1505.39013608
0.43400002 23212.25183034  2271.89925556
0.43500002 23300.58827999  1828.63025487
0.43600002 23390.79747051  2146.57358559
0.43700002 23481.09071346  1851.24927958
0.43800002 23571.68928427  2173.07413810
0.43900002 23664.03684220  2186.55710784
0.44000002 23756.12497663  2200.05483835
0.44100002 23849.05914215  1739.31196566
0.44200002 23942.07020044  1590.95064021
0.44300002 24035.42454075  1920.91122033
0.44400002 24128.63630305  2254.82116938
0.44500002 24221.36530124  1782.45035699
0.44600002 24313.98572050  2119.32866576
0.44700002 24407.33369210  2624.27664294
0.44800002 24499.21532542  2310.03112251
0.44900002 24591.27278168  1991.89318972
0.45000002 24683.18354260  2671.70791327
0.45100002 24773.39731880  2687.41826851
0.45200002 24863.46343650  1858.41966264
0.45300002 24952.30793286  1699.25225076
0.45400002 25040.48705425  2050.81598694
0.45500002 25127.97860265  2406.25534503
0.45600002 25213.85239564  2419.77352909
0.45700002 25298.92024808  1911.83949376
0.45800002 25382.37656046  2621.36506352
0.45900002 25464.44036084  2284.16040862
0.46000002 25545.60112410  2296.42192189
0.46100002 25624.43673708  3196.39239008
0.46200002 25702.37793782  1963.53325562
0.46300002 25778.50416621  2153.02077000
0.46400002 25852.34818201  2163.84164539
0.46500002 25925.62873942  2355.86199521
0.46600002 25995.90192036  1821.01301583
0.46700002 26064.37159354  1829.71897259
0.46800002 26131.55753054  2941.36825505
0.46900002 26195.87880627  1846.80954337
0.47000002 26258.37110611  2226.18480789
0.47100002 26318.97321428  2422.39840946
0.47200002 26377.40490499  2620.06775340
0.47300002 26433.44497074  2255.30163180
0.47400002 26486.57799854  2075.88564903
0.47500002 26537.93735728  2084.28969883
0.47600002 26587.48255862  2092.56791396
0.47700002 26633.44546454  3055.38900851
