# SAXS profile: number of points = 501, q_min = 0, q_max = 0.5, delta_q = 0.001
#    q    intensity    error
0.00000000 1664650.74656090 274.66737318
0.00100000 1664569.20711190 898.86739319
0.00200000 1664324.51866726 823.84066283
0.00300000 1663916.91229547 1098.18520124
0.00400000 1663346.25781711 1372.26071484
0.00500000 1662613.06035793 2244.52772032
0.00600000 1661717.23802751 2268.24412225
0.00700000 1660659.32853080 2989.18691559
0.00800000 1659439.17299407 3360.36446719
0.00900000 1658057.96346114 2984.50446181
0.01000000 1656515.17899211 5193.17531038
0.01100000 1654811.97132063 3276.52784587
0.01200000 1652948.30518329 6124.17373921
0.01300000 1650925.39019664 5200.41520848
0.01400000 1648743.23403898 4080.63968515
0.01500000 1646403.16100726 3951.36776237
0.01600000 1643904.67204010 5030.34852132
0.01700000 1641250.04689146 4874.51285793
0.01800000 1638439.15260344 6537.37251305
0.01900000 1635472.57679937 6868.98513250
0.02000000 1632351.73972090 5656.09903399
0.02100000 1629078.41947396 5913.55493080
0.02200000 1625651.24712623 7851.89588035
0.02300000 1622073.58862633 6423.41170334
0.02400000 1618344.71052347 7282.55152942
0.02500000 1614467.32307907 6926.06513233
0.02600000 1610441.47308307 8478.97474360
0.02700000 1606269.07870958 8770.22957144
0.02800000 1601950.18933345 9059.02873612
0.02900000 1597487.23738661 7907.56218813
0.03000000 1592881.65747736 8147.59005250
0.03100000 1588133.56901766 10672.25807486
0.03200000 1583244.68953139 10188.18004638
0.03300000 1578218.68857600 8853.80725108
0.03400000 1573053.68575662 9084.38545440
0.03500000 1567752.94485996 9312.45292250
0.03600000 1562317.70837905 13873.38189155
0.03700000 1556749.73157046 8873.47388033
0.03800000 1551050.58044416 9981.01094708
0.03900000 1545222.39441474 11125.60175501
0.04000000 1539264.83432775 9466.47916978
0.04100000 1533182.13754783 13522.66708017
0.04200000 1526974.96690630 12803.68569151
0.04300000 1520644.16433576 13047.12753562
0.04400000 1514193.29183299 11242.88571400
0.04500000 1507623.96757563 10402.60585963
0.04600000 1500935.92346879 12697.91850283
0.04700000 1494133.29390187 12909.31225970
0.04800000 1487216.91922133 15303.46281083
0.04900000 1480190.09977952 12211.56889160
0.05000000 1473052.65830440 14649.50936901
0.05100000 1465809.20966079 19436.63102554
0.05200000 1458458.04739289 13913.69042052
0.05300000 1451005.12445089 12928.45626155
0.05400000 1443450.36138281 19053.54565879
0.05500000 1435796.25579718 14472.82693358
0.05600000 1428044.03659278 14651.73249915
0.05700000 1420198.96811805 14826.87791925
0.05800000 1412259.46957827 13748.34657829
0.05900000 1404228.52420905 15165.66876978
0.06000000 1396110.07840431 14051.84859562
0.06100000 1387904.89074139 12907.51608708
0.06200000 1379615.56966763 13037.36774277
0.06300000 1371245.33754574 18429.53819829
0.06400000 1362792.79104947 13287.23033413
0.06500000 1354263.88601454 18770.09833819
0.06600000 1345659.83882437 16228.65841554
0.06700000 1336982.15940460 15000.94053055
0.06800000 1328233.81305000 15121.94266942
0.06900000 1319417.73718639 16624.66426690
0.07000000 1310534.40225903 15352.91124142
0.07100000 1301586.99847811 15462.85426617
0.07200000 1292578.07712799 16984.47672913
0.07300000 1283509.89081607 15671.65650117
0.07400000 1274385.19436104 20071.56775182
0.07500000 1265205.22072735 15865.67421158
0.07600000 1255971.59663348 20309.06166966
0.07700000 1246689.13301120 20420.76895622
0.07800000 1237358.40286313 17595.23731386
0.07900000 1227981.09825607 20630.08341833
0.08000000 1218561.69518028 16286.07782008
0.08100000 1209100.94675470 25282.30198284
0.08200000 1199600.66638696 20909.04059629
0.08300000 1190064.38056913 17993.77427869
0.08400000 1180493.53590874 21071.81060505
0.08500000 1170890.73098305 19635.83848039
0.08600000 1161257.84101075 16669.85709038
0.08700000 1151598.45214447 19761.43036675
0.08800000 1141912.36843357 18293.43700143
0.08900000 1132204.59686469 19870.19160827
0.09000000 1122475.31817035 19918.32545661
0.09100000 1112726.91094715 19962.32172025
0.09200000 1102961.58826744 24618.10380685
0.09300000 1093184.50746501 20038.07296347
0.09400000 1083391.96924662 20069.83717353
0.09500000 1073590.10609869 17005.66807992
0.09600000 1063779.92371634 15477.99861766
0.09700000 1053965.80566940 17042.62787890
0.09800000 1044147.50541586 18606.70942135
0.09900000 1034328.35773094 26375.37436237
0.10000000 1024508.05323689 21729.81683105
0.10100000 1014689.92714243 18629.70793852
0.10200000 1004876.76758000 21735.48550511
0.10300000 995069.47769795 17075.39304054
0.10400000 985271.28166040 17069.82575782
0.10500000 975484.75526647 17061.22917233
0.10600001 965707.31694416 15499.60316627
0.10700001 955946.29439363 20132.22990731
0.10800001 946200.32467916 21658.52645119
0.10900001 936473.06145681 16996.98686542
0.11000001 926764.92227308 16973.70035038
0.11100001 917078.00344886 16947.60230152
0.11200001 907414.57017728 21532.94876402
0.11300001 897775.77862232 19957.55649839
0.11400001 888164.08321437 15320.83115682
0.11500001 878581.24287511 15287.31434588
0.11600001 869028.12997242 19826.87771900
0.11700001 859507.66299287 21298.60089202
0.11800001 850018.75412866 16690.11902339
0.11900001 840564.92596875 16643.18631810
0.12000001 831146.15988204 16593.83386370
0.12100001 821768.06039538 16542.19183503
0.12200001 812428.08580727 16488.22877824
0.12300001 803129.82619198 16432.03701807
0.12400001 793872.84429006 22327.67479768
0.12500001 784658.63499419 19279.06357025
0.12600001 775491.66072303 16250.42851623
0.12700001 766369.94684573 17657.16440744
0.12800001 757295.48594521 19049.76884675
0.12900001 748270.64373048 17509.53388855
0.13000001 739296.05918685 17432.60189731
0.13100001 730371.97107193 21692.04856335
0.13200001 721500.80655881 18712.12430020
0.13300001 712683.60786560 14324.94119342
0.13400001 703920.30998381 18530.70303397
0.13500001 695213.64529082 17018.83083913
0.13600001 686563.70101783 14108.88472116
0.13700001 677971.80458937 16840.82042010
0.13800001 669437.08602603 20936.64585275
0.13900001 660963.84931971 19432.33808639
0.14000001 652550.08774058 13801.43500660
0.14100001 644199.05636689 17837.87271209
0.14200001 635909.73138355 13640.26438152
0.14300001 627684.73579687 13557.99093271
0.14400001 619520.52678870 13474.57209325
0.14500001 611424.00547360 14729.20498667
0.14600001 603391.99260040 18626.71169028
0.14700001 595427.19568068 21149.57498834
0.14800001 587526.74664778 15757.46808851
0.14900001 579694.82128924 16956.07432271
0.15000001 571930.35518241 20726.75704976
0.15100001 564234.48199932 18010.36551524
0.15200001 556608.57657869 12774.16743526
0.15300001 549051.89882707 16488.02929983
0.15400001 541563.36578870 15109.61861854
0.15500001 534147.03349668 13748.94529106
0.15600001 526799.39966613 12406.12644764
0.15700001 519525.79970578 13544.03823757
0.15800001 512320.54650875 13440.73017204
0.15900001 505189.17141823 12124.54068632
0.16000001 498127.23378374 16841.68256920
0.16100001 491140.11353926 13128.17585461
0.16200001 484224.74175718 13023.22504433
0.16300001 477381.49807251 14092.30248837
0.16400001 470611.60628748 18636.22048879
0.16500001 463913.79637849 19637.47192781
0.16600001 457289.80546596 16037.15423485
0.16700001 450737.84812765 20445.46975640
0.16800001 444259.27769512 16892.95983198
0.16900001 437855.10837300 16747.95868607
0.17000001 431522.26519933 12175.40128752
0.17100001 425263.65960553 12068.98322952
0.17200001 419077.63530741 16312.59772467
0.17300001 412964.59300881 11856.21402519
0.17400001 406925.30568443 16022.68466801
0.17500001 400957.57885330 11643.80863981
0.17600001 395061.46811482 14684.43546336
0.17700001 389240.63565895 12471.27055554
0.17800001 383489.96398598 12356.04722323
0.17900001 377811.28588838 14281.26728114
0.18000001 372205.59330213 11115.92056903
0.18100001 366671.77666135 14014.19596598
0.18200001 361207.19575244 12889.67938931
0.18300001 355814.26551906 12766.61644991
0.18400001 350492.04383552 11671.38561109
0.18500001 345240.35124257 12521.86813113
0.18600001 340058.87714515 10492.51715002
0.18700001 334946.27388296 15112.77659160
0.18800001 329901.39225304 14029.05736838
0.18900001 324928.97086672 10186.52371796
0.19000001 320020.52260632 10085.44724646
0.19100001 315182.89234741 9984.99450136
0.19200001 310411.18023100 11682.32532000
0.19300001 305708.11360742 13344.15978951
0.19400001 301069.69494392 11448.17569121
0.19500001 296498.25747260 13075.57377243
0.19600001 291991.08333464 11216.83799637
0.19700001 287550.69042098 12810.38386364
0.19800001 283173.50203222 13524.36709620
0.19900001 278860.56791696 8365.81743288
0.20000001 274609.62901072 10763.32491776
0.20100001 270423.05211755 9832.58263970
0.20200001 266297.31514399 13784.88116995
0.20300001 262233.71013152 8826.78710022
0.20400001 258231.39088873 7940.61564515
0.20500001 254288.74686243 9429.02717934
0.20600001 250405.49236170 7775.09090534
0.20700001 246581.78248620 11540.02796584
0.20800001 242816.01753964 9134.73901164
0.20900001 239110.43568841 9791.57280430
0.21000001 235459.16856249 10433.19625221
0.21100001 231865.93990485 11060.00585631
0.21200001 228327.36378379 9483.57750309
0.21300001 224844.19683247 10104.49868335
0.21400001 221415.86089962 9282.86040708
0.21500001 218042.49631674 9183.95037906
0.21600001 214720.71183324 8386.99140073
0.21700001 211452.08708223 11754.62207665
0.21800001 208235.45061856 9576.74882674
0.21900001 205069.30716422 7444.01620203
0.22000001 201952.94616483 9372.63667467
0.22100001 198888.27155348 8609.87368266
0.22200001 195871.91349606 8517.49056112
0.22300001 192903.58429185 8426.02896030
0.22400001 189982.59032816 6411.91272677
0.22500001 187110.64761891 6977.35637965
0.22600001 184283.20454461 8157.29643491
0.22700001 181502.48542956 6828.12382476
0.22800001 178766.24800786 6140.62090946
0.22900001 176073.69363752 8504.35980487
0.23000001 173425.50112469 6610.11328797
0.23100001 170821.42300311 7727.96154214
0.23200001 168257.78855963 6468.67098710
0.23300001 165737.07184935 9307.79439527
0.23400001 163256.40321718 8632.18272837
0.23500001 160815.74584091 9677.89204243
0.23600001 158415.28595393 6757.99641843
0.23700001 156053.85068629 8356.68409950
0.23800001 153730.42270901 7164.60668923
0.23900001 151445.02940721 7632.82984315
0.24000001 149195.85809308 7550.80273525
0.24100001 146984.51843473 6936.19975303
0.24200001 144808.79947741 7389.59338687
0.24300001 142667.62813398 7832.45315505
0.24400001 140561.12800278 5682.18386830
0.24500001 138488.20805762 5110.21511906
0.24600001 136448.89025790 8594.23375945
0.24700001 134442.82240948 6501.65519929
0.24800001 132468.56216401 5937.24123706
0.24900001 130524.75415313 5384.14636353
0.25000001 128613.40132962 5810.75374697
0.25100001 126731.45593195 6227.58403912
0.25200001 124881.16003916 5213.16427247
0.25300001 123058.67754448 7501.65733802
0.25400001 121266.14306917 6029.95924940
0.25500001 119499.98671044 5965.43961882
0.25600001 117763.08895673 4993.74402348
0.25700001 116052.39131344 6287.71885886
0.25800001 114368.47599135 5776.18015324
0.25900001 112711.63847721 6154.05575203
0.26000001 111079.51204723 7827.77358434
0.26100001 109472.38482334 5162.71791255
0.26200001 107891.17420600 4681.93772620
0.26300001 106332.63938348 4631.84999071
0.26400001 104798.91290703 5832.05977924
0.26500001 103288.44074661 5357.57167504
0.26600001 101800.33834366 4077.10374359
0.26700001 100335.06614418 6050.20477479
0.26800001 98892.04326162  5985.44120165
0.26900001 97469.86615844  6316.04762595
0.27000001 96069.49634879  5857.83781707
0.27100001 94689.54590332  3863.33365568
0.27200001 93330.63179648  4586.26746352
0.27300001 91991.55431835  6049.36489826
0.27400001 90670.82775980  4488.20618651
0.27500001 89371.28205487  4069.96837739
0.27600001 88088.58077618  4758.10491581
0.27700001 86826.27448566  5068.91814437
0.27800001 85581.09107399  3939.72571405
0.27900001 84354.30490649  5314.32146062
0.28000001 83144.57896896  3504.54416941
0.28100001 81952.44746693  3813.24756111
0.28200001 80777.64656670  4114.81351086
0.28300001 79619.25868354  4070.13669654
0.28400001 78476.62295717  4696.82610629
0.28500001 77350.74580156  3650.18186714
0.28600001 76240.37799931  3938.57811386
0.28700001 75146.36113748  3246.32295480
0.28800001 74065.91991234  3852.90933621
0.28900001 73002.26358585  3810.71833956
0.29000001 71952.63997326  4397.02603690
0.29100001 70918.17634300  3416.83789794
0.29200001 69897.58196617  3071.99887283
0.29300001 68891.51984947  3645.73940301
0.29400001 67898.58593405  4506.76885471
0.29500001 66920.69067741  3268.40668740
0.29600001 65954.98777205  3819.78329764
0.29700001 65003.21809102  2905.64398622
0.29800001 64064.74944681  4309.95622306
0.29900001 63139.52874490  4261.91839204
0.30000001 62226.25659780  3933.32186575
0.30100001 61326.53234146  3611.51966056
0.30200001 60438.41715623  3845.69666571
0.30300001 59563.28445444  3259.30307965
0.30400001 58700.11542752  3491.18953033
0.30500001 57849.54978057  2920.82390670
0.30600001 57009.64167725  2887.82353588
0.30700001 56182.47522908  3114.75657416
0.30800001 55366.48362388  3849.35495619
0.30900001 54562.40551676  3298.29756964
0.31000001 53769.57994530  3260.85633017
0.31100001 52987.64772201  2727.80423388
0.31200001 52217.72970923  2941.94703111
0.31300001 51458.13013943  2423.67804432
0.31400001 50710.92069302  3354.52756267
0.31500001 49973.16661245  2605.60103054
0.31600002 49247.46459242  3044.23216792
0.31700002 48531.63751204  2777.95106272
0.31800002 47826.41879555  2975.04252204
0.31900002 47132.38014326  2488.58978940
0.32000002 46448.89364792  2907.46863556
0.32100002 45775.48719942  2874.24297735
0.32200002 45113.38217818  3715.76389905
0.32300002 44459.87601096  2808.97509938
0.32400002 43817.85438558  2349.73255269
0.32500002 43185.64814481  2956.48961199
0.32600002 42563.74609962  2505.30221406
0.32700002 41951.96196090  2889.65127670
0.32800002 41351.12759167  2652.88171627
0.32900002 40758.17405457  2622.78862461
0.33000002 40176.59615604  1994.76809361
0.33100002 39603.81481728  1972.27007130
0.33200002 39042.45683682  3120.27329816
0.33300002 38489.99541023  3085.35817819
0.33400002 37947.90598975  2097.57060292
0.33500002 37415.07919868  2640.00811328
0.33600002 36891.50718493  2237.83893181
0.33700002 36377.66281284  3319.82566552
0.33800002 35874.12777617  1824.19948381
0.33900002 35379.33202097  2526.08442593
0.34000002 34894.16257137  2141.80380006
0.34100002 34418.56301551  3001.64302274
0.34200002 33953.13940690  1921.57801574
0.34300002 33496.31731946  1901.25106109
0.34400002 33049.50762196  2052.37452052
0.34500002 32611.60585140  2200.30515100
0.34600002 32183.57818159  2010.18638843
0.34700002 31763.63341418  1989.67409130
0.34800002 31353.85596070  1641.37443728
0.34900002 30952.72247909  2437.52701067
0.35000002 30561.13361312  2896.27876969
0.35100002 30179.24288496  2071.50332974
0.35200002 29804.73802812  2367.24143000
0.35300002 29440.71196713  2032.29244335
0.35400002 29084.90537791  2632.91118404
0.35500002 28738.50343748  1841.56338750
0.35600002 28400.33953789  1977.08973057
0.35700002 28071.09426948  1658.15961704
0.35800002 27750.91639931  1793.26430266
0.35900002 27440.04442491  1481.76246913
0.36000002 27137.46660886  1469.49388647
0.36100002 26842.88908922  1749.08273590
0.36200002 26558.41539118  2024.54810117
0.36300002 26281.03129235  1721.93325184
0.36400002 26012.80025953  1424.20088167
0.36500002 25752.14134002  2403.44746511
0.36600002 25500.81417624  1403.81988690
0.36700002 25257.07653522  1951.86696710
0.36800002 25022.54046959  1661.99721672
0.36900002 24795.88554445  1376.17171290
0.37000002 24576.69454457  1504.46242781
0.37100002 24365.61801010  1631.52185924
0.37200002 24163.25683804  1892.70799778
0.37300002 23968.36371970  1882.47537572
0.37400002 23781.11154737  2006.53138186
0.37500002 23601.98381117  1331.15195001
0.37600002 23430.65445666  1590.00428675
0.37700002 23266.65347841  1978.82897208
0.37800002 23110.20109511  1445.19649394
0.37900002 22962.09303203  1963.25904724
0.38000002 22820.46361495  1304.18955738
0.38100002 22685.54953207  2469.77589456
0.38200002 22559.06150851  1555.22177407
0.38300002 22438.89740143  2067.96888248
0.38400002 22326.16424082  1418.26965059
0.38500002 22219.75154540  2187.09024823
0.38600002 22121.28573323  1540.96883718
0.38700002 22028.57445113  1923.09464069
0.38800002 21942.62050973  2176.59834458
0.38900002 21863.26488209  1279.00105620
0.39000002 21790.89680066  1533.64338949
0.39100002 21724.09300940  1788.32742126
0.39200002 21664.18464801  2043.36599281
0.39300002 21609.90346970  1532.57442668
0.39400002 21562.78641584  1660.87370237
0.39500002 21520.43362636  1278.31381797
0.39600002 21484.13773678  1407.31850912
0.39700002 21452.99551312  1536.89267137
0.39800002 21428.66960715  1539.00712410
0.39900002 21408.78196254  1412.97967647
0.40000002 21394.71162981  1801.64875171
0.40100002 21385.46066239  1289.54333904
0.40200002 21381.98363412  1551.04916631
0.40300002 21383.16858303  1425.40208528
0.40400002 21389.28801507  1819.15903187
0.40500002 21399.84228027  1954.87568493
0.40600002 21416.07194091  1699.68663012
0.40700002 21436.06812445  1443.07617451
0.40800002 21460.46388416  1579.91942601
0.40900002 21488.82626651  1453.71916581
0.41000002 21522.19263330  1459.52756258
0.41100002 21559.27093515  1332.36300692
0.41200002 21599.42327525  1605.70120236
0.41300002 21644.80062672  1478.55640087
0.41400002 21692.98543355  1890.54377011
0.41500002 21744.78744115  1628.24976075
0.41600002 21799.10093886  1636.24059400
0.41700002 21858.22527475  2192.81726347
0.41800002 21920.74290647  2204.35001113
0.41900002 21984.48861523  1523.52513323
0.42000002 22051.83115016  1671.08784374
0.42100002 22122.73638885  1680.44313572
0.42200002 22195.89972202  1408.32990410
0.42300002 22271.18465852  1983.02637596
0.42400002 22348.97148829  1709.69639987
0.42500002 22429.47298908  1576.56773111
0.42600002 22510.92310961  1874.37210154
0.42700002 22595.58936274  1595.70059641
0.42800002 22681.48921685  1897.42007035
0.42900002 22770.09432257  2203.00673010
0.43000002 22860.03867234  1773.48188424
0.43100002 22950.18153962  1487.17183424
0.43200002 23043.01130472  1496.64365516
0.43300002 23136.40838548  1958.03433445
0.43400002 23231.54160791  1515.85816175
0.43500002 23326.99591928  2135.81984758
0.43600002 23424.34258986  1535.46572953
0.43700002 23521.62129284  1699.90765139
0.43800002 23619.26833101  1710.86178263
0.43900002 23718.54483052  2035.05124290
0.44000002 23817.56190381  1575.53179460
0.44100002 23917.24850923  2378.57047696
0.44200002 24017.03912877  1915.11879089
0.44300002 24117.16980414  2088.06466060
0.44400002 24216.96924593  2263.07588328
0.44500002 24316.33906958  2277.46842519
0.44600002 24415.42118329  1964.46488151
0.44700002 24515.22685958  2635.87731686
0.44800002 24613.46097389  1989.26001018
0.44900002 24711.76663837  1834.84875986
0.45000002 24809.89760715  1678.38965267
0.45100002 24906.31818793  1857.51329849
0.45200002 25002.42992579  2208.58975217
0.45300002 25097.33035267  1709.12827802
0.45400002 25191.36278733  1891.24165089
0.45500002 25284.66832384  2421.25995344
0.45600002 25376.28701913  2957.22574793
0.45700002 25467.03517578  1924.54393945
0.45800002 25555.99795776  1935.48359706
0.45900002 25643.57502233  2477.16946456
0.46000002 25730.09920370  1957.16008869
0.46100002 25814.19408618  2325.60085545
0.46200002 25897.37060916  1798.57247405
0.46300002 25978.55639651  2169.72913307
0.46400002 26057.44668761  1999.25769186
0.46500002 26135.59747070  2740.31752468
0.46600002 26210.64607228  2019.66142882
0.46700002 26283.82900638  2214.14986044
0.46800002 26355.64678787  2224.94380729
0.46900002 26424.57742838  2980.69247520
0.47000002 26491.33657323  2058.77431937
0.47100002 26556.23069442  2256.21746674
0.47200002 26618.86071171  2832.91238551
0.47300002 26678.98665116  2655.62645713
0.47400002 26736.08225931  2857.41892690
0.47500002 26791.26511136  2104.18606158
0.47600002 26844.57558776  3073.16715895
0.47700002 26894.23447702  3663.80173646
