# SAXS profile: number of points = 501, q_min = 0, q_max = 0.5, delta_q = 0.001
#    q    intensity    error
0.00000000 1664650.74656090 349.57665678
0.00100000 1664569.21274834 798.99324109
0.00200000 1664324.54268235 973.62988830
0.00300000 1663916.96942785 1198.02026067
0.00400000 1663346.36328132 1372.26080185
0.00500000 1662613.21097442 1795.62233893
0.00600000 1661717.46076359 1744.80340484
0.00700000 1660659.63196970 2192.07080530
0.00800000 1659439.57279862 3136.34092501
0.00900000 1658058.46439461 3979.34048465
0.01000000 1656515.80613829 3553.22655759
0.01100000 1654812.69201263 3872.26186791
0.01200000 1652949.19425063 3223.25107011
0.01300000 1650926.45523966 4853.72399248
0.01400000 1648744.45578486 3709.67518997
0.01500000 1646404.56034464 4741.64534493
0.01600000 1643906.25026663 5030.35335069
0.01700000 1641251.81848344 4874.51811956
0.01800000 1638441.12172263 6537.38036984
0.01900000 1635474.78596912 5887.70949516
0.02000000 1632354.18061156 7198.68226213
0.02100000 1629081.14125884 5375.96800989
0.02200000 1625654.22788098 8412.76101150
0.02300000 1622076.83457785 7007.37224434
0.02400000 1618348.23106412 6675.68675753
0.02500000 1614471.13734690 7555.72526786
0.02600000 1610445.58841061 7826.76591766
0.02700000 1606273.54305214 6746.34918981
0.02800000 1601954.93870076 6968.50430292
0.02900000 1597492.32424957 7907.58736811
0.03000000 1592887.12247810 11110.38818998
0.03100000 1588139.36147062 7623.06928582
0.03200000 1583250.89922706 7837.09231214
0.03300000 1578225.24957455 10463.63388706
0.03400000 1573060.70380155 11561.99670642
0.03500000 1567760.35746114 11005.67821760
0.03600000 1562325.56750361 13006.36095054
0.03700000 1556757.99569718 9760.87308444
0.03800000 1551059.23672484 12703.17573667
0.03900000 1545231.51934805 11125.66745454
0.04000000 1539274.42114718 11359.84575447
0.04100000 1533192.24208455 12556.84504489
0.04200000 1526985.53257693 10833.96285625
0.04300000 1520655.21590695 14050.85484719
0.04400000 1514204.86104477 11242.97161540
0.04500000 1507636.03673385 18724.84044628
0.04600000 1500948.46683107 11639.85590138
0.04700000 1494146.39655069 13985.21092214
0.04800000 1487230.57510327 13117.37428274
0.04900000 1480204.29538613 12211.68600536
0.05000000 1473067.41150036 11268.96622273
0.05100000 1465824.51980344 17150.14768062
0.05200000 1458473.88985940 12754.35476119
0.05300000 1451021.61815546 12928.60322047
0.05400000 1443467.37605748 11908.60640782
0.05500000 1435813.92803778 20503.42384885
0.05600000 1428062.36665806 12209.93380469
0.05700000 1420217.84318129 16062.66455616
0.05800000 1412278.99052894 14998.40357973
0.05900000 1404248.62174060 16429.70964173
0.06000000 1396130.81749357 14052.05733457
0.06100000 1387926.36744072 14198.48740243
0.06200000 1379637.70134485 13037.57688713
0.06300000 1371268.13017607 18429.84453126
0.06400000 1362816.10912048 14616.20345387
0.06500000 1354287.91996080 18770.43144870
0.06600000 1345684.61019123 18933.78335127
0.06700000 1337007.62821661 17728.72197984
0.06800000 1328260.06633894 21995.98772818
0.06900000 1319444.63016081 18010.42004492
0.07000000 1310562.07726092 22331.97884230
0.07100000 1301615.32619246 16868.93541756
0.07200000 1292607.01365647 16984.85695513
0.07300000 1283539.68144535 21370.93669741
0.07400000 1274415.68747947 15770.89487165
0.07500000 1265236.48548922 20193.17525491
0.07600000 1256003.52966267 17408.20973723
0.07700000 1246721.76227981 17503.97436314
0.07800000 1237391.86861180 20528.33206297
0.07900000 1228015.37449149 16209.80370359
0.08000000 1218596.81642652 16286.54721556
0.08100000 1209136.69698640 16359.62027779
0.08200000 1199637.14903385 14935.48320632
0.08300000 1190101.67661293 17994.33819490
0.08400000 1180531.58514085 16556.95625876
0.08500000 1170929.55145964 24167.98707670
0.08600000 1161297.39852297 15154.93176227
0.08700000 1151638.76803575 16721.79569710
0.08800000 1141953.53186611 22867.62054957
0.08900000 1132246.51073879 16813.86147421
0.09000000 1122518.10646508 18386.84744763
0.09100000 1112770.46327761 15356.23311468
0.09200000 1103005.94888478 23080.40056489
0.09300000 1093229.53267337 18497.44456207
0.09400000 1083437.92483379 16982.89026992
0.09500000 1073636.81093540 18552.44496498
0.09600000 1063827.46866054 18574.42847596
0.09700000 1054014.18060229 15494.00918327
0.09800000 1044196.54933263 17056.95143533
0.09900000 1034378.32160860 23273.51333057
0.10000000 1024558.69699414 23283.09748413
0.10100000 1014741.42664040 21735.76238091
0.10200000 1004929.09243522 18631.38625010
0.10300000 995122.52992454 17076.30341679
0.10400000 985325.16846684 20174.53377347
0.10500000 975539.47154755 17062.18616013
0.10600001 965762.73398481 18600.59113177
0.10700001 956002.47486653 15487.24082163
0.10800001 946257.34689790 20112.70085485
0.10900001 936530.86531307 16998.03600546
0.11000001 926823.41244718 23147.41581541
0.11100001 917137.37324565 20030.28117458
0.11200001 907474.62010701 15381.69553494
0.11300001 897836.66475467 16888.30845915
0.11400001 888225.62752389 19918.46063507
0.11500001 878643.74604254 21403.76266146
0.11600001 869091.31298414 22878.82989171
0.11700001 859571.52134662 16735.85830879
0.11800001 850083.41077528 21243.58543581
0.11900001 840630.24426087 16644.47962035
0.12000001 831212.29236514 24138.40610732
0.12100001 821834.91276349 18047.49553447
0.12200001 812495.69974585 19487.71027650
0.12300001 803198.09583225 16433.43381498
0.12400001 793941.77976757 16375.04997926
0.12500001 784728.32463693 16314.50263795
0.12600001 775562.04578648 16251.90343530
0.12700001 766440.99127681 20601.93481642
0.12800001 757367.24121504 16120.56248901
0.12900001 748343.06960237 20429.76676304
0.13000001 739369.23185620 17434.32730893
0.13100001 730445.61950130 15909.10634266
0.13200001 721575.19184598 15834.96833153
0.13300001 712758.59237761 15759.09322040
0.13400001 703995.88521437 15681.50908246
0.13500001 695289.98706271 15602.30804531
0.13600001 686640.37118448 14110.46029316
0.13700001 678049.16479826 15439.18021046
0.13800001 669515.06254377 16751.26765476
0.13900001 661042.43254662 20822.83760719
0.14000001 652629.22455429 16563.73050034
0.14100001 644278.81495110 21957.02304909
0.14200001 635989.99685780 16370.38329123
0.14300001 627765.46740080 20339.60210316
0.14400001 619601.88740515 18866.87836144
0.14500001 611505.81391144 20087.96693458
0.14600001 603474.24828886 21290.57248400
0.14700001 595509.92518294 14542.35305903
0.14800001 587609.94309500 17073.00770211
0.14900001 579778.53648957 15654.02122379
0.15000001 572014.59978709 18138.58381508
0.15100001 564319.08357644 15439.77085518
0.15200001 556693.61838891 15331.34297387
0.15300001 549137.34187325 17759.10247422
0.15400001 541649.24557543 13852.68010931
0.15500001 534233.13887356 16251.37285148
0.15600001 526885.97122814 12408.16520802
0.15700001 519612.74559755 13546.30491707
0.15800001 512407.71330286 15887.20190081
0.15900001 505276.69937150 15764.63376449
0.16000001 498214.98887919 13235.08180430
0.16100001 491228.21977017 14324.21556466
0.16200001 484313.04120785 17762.18162478
0.16300001 477470.10559686 11745.76515217
0.16400001 470700.46862054 16309.77200768
0.16500001 464002.89147621 12709.03979754
0.16600001 457379.00374842 18331.75133573
0.16700001 450827.28062002 13633.01760963
0.16800001 444348.83267056 14643.51647207
0.16900001 437944.87888263 12284.35443270
0.17000001 431612.28836897 13285.02686331
0.17100001 425353.65042253 13168.94963894
0.17200001 419167.69539261 13052.88265092
0.17300001 413054.76546328 11858.80287648
0.17400001 407015.52653556 13889.40549897
0.17500001 401047.88812209 11646.43122110
0.17600001 395151.82947391 14687.79419524
0.17700001 389330.94757121 13513.67782846
0.17800001 383580.20959040 11329.04202535
0.17900001 377901.51576451 11223.67554834
0.18000001 372295.89515841 10107.83403099
0.18100001 366761.84792030 11013.85881330
0.18200001 361297.33636645 10909.37358692
0.18300001 355904.24937101 12769.84507067
0.18400001 350581.83865752 14592.96972350
0.18500001 345330.11965525 10598.18187290
0.18600001 340148.46168013 11449.39776106
0.18700001 335035.61755674 11337.60583376
0.18800001 329990.62157816 11226.28147649
0.18900001 325017.94579241 12041.91546056
0.19000001 320109.28914664 11005.35788085
0.19100001 315271.28593676 15435.68288880
0.19200001 310499.20874677 11685.63827335
0.19300001 305796.01633449 12458.13029415
0.19400001 301157.29843726 10570.62167465
0.19500001 296585.39481351 9591.57212152
0.19600001 292077.94960121 11220.17496415
0.19700001 287637.18228925 8542.82471770
0.19800001 283259.52811984 10991.88650815
0.19900001 278946.20791948 9205.22529638
0.20000001 274694.82925551 9110.25444282
0.20100001 270507.78146074 8196.38616564
0.20200001 266381.47292816 9733.57948084
0.20300001 262317.42486431 9632.29629628
0.20400001 258314.65258054 9531.81113075
0.20500001 254371.44076313 9432.09346932
0.20600001 250487.62652320 10110.93352253
0.20700001 246663.37726966 10004.66705497
0.20800001 242896.81882030 10660.74188196
0.20900001 239190.79015137 7534.51024593
0.21000001 235538.78458999 7454.80288468
0.21100001 231944.85079131 11063.76990577
0.21200001 228405.76405035 8757.07740768
0.21300001 224921.81353817 9385.98772268
0.21400001 221492.81017859 10714.71519894
0.21500001 218118.68299298 7067.04566309
0.21600001 214796.10999657 7690.77508204
0.21700001 211526.60304199 8300.30429580
0.21800001 208309.34886547 13685.92486754
0.21900001 205142.36263860 8123.63794459
0.22000001 202025.19340325 8036.56257357
0.22100001 198959.60755932 6625.35524500
0.22200001 195942.34349287 6554.27169975
0.22300001 192973.18044661 9725.84875440
0.22400001 190051.29758363 10904.19371448
0.22500001 187178.46243037 8248.95522938
0.22600001 184350.06325074 6277.11995052
0.22700001 181568.33073619 7451.56464579
0.22800001 178831.13224421 6757.13465139
0.22900001 176137.61743301 7899.77251546
0.23000001 173488.48815218 7213.65167851
0.23100001 170883.33156917 8920.11032977
0.23200001 168318.64296491 7059.28421981
0.23300001 165796.88138207 7565.31205526
0.23400001 163315.06129181 5756.85618281
0.23500001 160873.38890774 7403.39370769
0.23600001 158471.77835519 7887.14078178
0.23700001 156109.30113845 5573.10231424
0.23800001 153784.71478374 6064.50051434
0.23900001 151498.05429651 7635.50229770
0.24000001 149247.79296483 7553.43115923
0.24100001 147035.27924565 6404.85706690
0.24200001 144858.35038979 5280.08712147
0.24300001 142715.95781654 6268.08516380
0.24400001 140608.23540821 7751.02934353
0.24500001 138534.08061283 5623.09859807
0.24600001 136493.48429700 7585.62574865
0.24700001 134486.17113043 6003.46296326
0.24800001 132510.58420875 4949.27055433
0.24900001 130565.68868138 6854.69898005
0.25000001 128652.93214810 6296.91806188
0.25100001 126769.62952061 6708.64911161
0.25200001 124918.10112415 5214.70637813
0.25300001 123094.25385146 4689.89129362
0.25400001 121300.37448154 4639.73954343
0.25500001 119532.86411453 5049.06841908
0.25600001 117794.63908481 4995.08190672
0.25700001 116082.54653418 5390.87371611
0.25800001 114397.31947568 4888.76967910
0.25900001 112739.05333794 6595.23493232
0.26000001 111105.64403912 4784.76478694
0.26100001 109496.97519737 5594.20072753
0.26200001 107914.38208557 7237.27837701
0.26300001 106354.50127474 5053.96613972
0.26400001 104819.35427158 5416.54038828
0.26500001 103307.39852168 5770.75155449
0.26600001 101817.96956323 5301.15283616
0.26700001 100351.15194852 4437.52814915
0.26800001 98906.79287985  5188.15606602
0.26900001 97483.15470089  4737.68154266
0.27000001 96081.25198183  4686.84369347
0.27100001 94699.86869867  4250.13030832
0.27200001 93339.53406390  5351.15574112
0.27300001 91999.04257317  4537.39299444
0.27400001 90676.79935062  4488.50178027
0.27500001 89375.95561606  4440.19768514
0.27600001 88091.73171128  4758.27511358
0.27700001 86827.96247321  5069.01668909
0.27800001 85581.24571451  3939.73283292
0.27900001 84353.07632414  4251.39524795
0.28000001 83141.91879368  4205.31845162
0.28100001 81948.27611471  4506.33591683
0.28200001 80772.03894277  4114.52785848
0.28300001 79612.15455435  5765.51250571
0.28400001 78468.13602730  3354.51297394
0.28500001 77340.82932638  5308.67477623
0.28600001 76228.99902969  3281.65856356
0.28700001 75133.51711732  5517.80575827
0.28800001 74051.65068187  3210.13920901
0.28900001 72986.62303553  3174.91825233
0.29000001 71935.54828811  4709.98024711
0.29100001 70899.69754098  3726.48827915
0.29200001 69877.72270390  3685.35126985
0.29300001 68870.15472032  4252.04355371
0.29400001 67875.89164395  3904.56085165
0.29500001 66896.66612626  3564.25453993
0.29600001 65929.52484990  3524.59256532
0.29700001 64976.47766375  2904.44868906
0.29800001 64036.57847927  4595.26508921
0.29900001 63110.02272374  2839.95115701
0.30000001 62195.37753855  3088.93357168
0.30100001 61294.38463917  3331.96290672
0.30200001 60404.91990975  4118.10560980
0.30300001 59528.54850422  3528.85252239
0.30400001 58664.10873230  4294.21296250
0.30500001 57812.25977324  3715.01598891
0.30600001 56971.06128481  2623.51749637
0.30700001 56142.59123729  3371.92418935
0.30800001 55325.44771883  3333.63501012
0.30900001 54520.11352760  3295.74101878
0.31000001 53726.06218561  2756.95301158
0.31100001 52942.96885212  2725.50416555
0.31200001 52171.87919802  2694.41682875
0.31300001 51411.17195265  2663.61294498
0.31400001 50662.78986711  3590.72540184
0.31500001 49923.89740801  2366.39284918
0.31600002 49197.12593702  3508.98517360
0.31700002 48480.18653620  3237.50701018
0.31800002 47773.87016906  3200.37171416
0.31900002 47078.82797550  2711.74061979
0.32000002 46394.39874374  2904.05752687
0.32100002 45719.92851560  2649.92718224
0.32200002 45056.82207728  2837.90407291
0.32300002 44402.33957065  2589.54456638
0.32400002 43759.39245192  2559.92457965
0.32500002 43126.24214981  2319.76067508
0.32600002 42503.43504668  2084.79358776
0.32700002 41890.77711122  2473.23159776
0.32800002 41289.00618678  3667.70259325
0.32900002 40695.26291955  2618.74029288
0.33000002 40112.95417126  1991.60826891
0.33100002 39539.40256660  2165.96857517
0.33200002 38977.23718968  2141.60439880
0.33300002 38424.02927230  2502.55714501
0.33400002 37881.18377033  2093.88253206
0.33500002 37347.69023783  1882.32367713
0.33600002 36823.46032647  2792.13901148
0.33700002 36308.93306885  2945.38079003
0.33800002 35804.88474908  2002.74632328
0.33900002 35309.48566750  2881.25416692
0.34000002 34823.70870483  2493.72589845
0.34100002 34347.60251556  1938.23530174
0.34200002 33881.70175787  2789.14182080
0.34300002 33424.37144979  1897.16741334
0.34400002 32977.12866579  2218.53643606
0.34500002 32538.83215526  2364.27165637
0.34600002 32110.41220448  1838.48173784
0.34700002 31690.07784924  1985.06657049
0.34800002 31280.03412465  2456.26479597
0.34900002 30878.50286525  2269.57006809
0.35000002 30486.64931515  1765.63437871
0.35100002 30104.48628711  1907.42034149
0.35200002 29729.79036888  1731.61172205
0.35300002 29365.54427052  1559.31047462
0.35400002 29009.58283062  2008.18846656
0.35500002 28663.05416172  2142.85003062
0.35600002 28324.83875498  1971.83374332
0.35700002 27995.50238521  2104.70196901
0.35800002 27675.26927985  2086.43864983
0.35900002 27364.33840961  1773.20921293
0.36000002 27061.83417840  1905.01790722
0.36100002 26767.34589893  1889.50703650
0.36200002 26482.92041618  1441.99508496
0.36300002 26205.67889669  1716.99616264
0.36400002 25937.54316134  1704.09666642
0.36500002 25677.09927647  1550.64009876
0.36600002 25425.92676719  1399.69733483
0.36700002 25182.44529515  1529.07815075
0.36800002 24948.14387693  1380.87982900
0.36900002 24721.81645098  2332.50349264
0.37000002 24502.95152657  1499.94824875
0.37100002 24292.24617303  1626.60888080
0.37200002 24090.21544938  1617.41714189
0.37300002 23895.70831103  1474.60422973
0.37400002 23709.01369027  2267.17454153
0.37500002 23530.31905079  1592.53206880
0.37600002 23359.49539791  1717.27338553
0.37700002 23196.01924533  1315.21435351
0.37800002 23040.15034633  1702.78239201
0.37900002 22892.60275837  1435.36626095
0.38000002 22751.63581822  1560.30725833
0.38100002 22617.39495685  1425.57447166
0.38200002 22491.56816717  1550.56878290
0.38300002 22372.18494751  1675.22928823
0.38400002 22260.13725887  1671.17988388
0.38500002 22154.56431027  1411.02426777
0.38600002 22056.84967015  1664.52023921
0.38700002 21964.97555603  1534.03396551
0.38800002 21879.87486676  1659.69798665
0.38900002 21801.41280507  1530.45925142
0.39000002 21729.99851289  1401.91092048
0.39100002 21664.15938122  1528.62315836
0.39200002 21605.20390310  1910.44024564
0.39300002 21551.90028813  1401.08910411
0.39400002 21505.84522395  1274.22138989
0.39500002 21464.51750224  1912.48860006
0.39600002 21429.35620573  1786.56551152
0.39700002 21399.29750944  1788.55337058
0.39800002 21376.06981732  1663.16519093
0.39900002 21357.33423746  1537.72813795
0.40000002 21344.45871026  1283.86925225
0.40100002 21336.48234690  2315.86190366
0.40200002 21334.21157906  1934.47972659
0.40300002 21336.65853555  2068.80250963
0.40400002 21344.06827447  1555.98265093
0.40500002 21355.89086048  1430.63119653
0.40600002 21373.44174912  1696.30328479
0.40700002 21394.86770502  1309.36596559
0.40800002 21420.58760479  1445.56842300
0.40900002 21450.37659119  1319.19822286
0.41000002 21485.17377672  1589.47323131
0.41100002 21523.66439891  1463.17877517
0.41200002 21565.29197471  1335.96990113
0.41300002 21612.11264560  1744.74593655
0.41400002 21661.82696357  1618.13855085
0.41500002 21715.13819667  2032.53703152
0.41600002 21771.00551096  1634.13175108
0.41700002 21831.62803168  2463.91765641
0.41800002 21895.75605118  1788.99283293
0.41900002 21961.08386218  1660.25801865
0.42000002 22030.07414176  2225.91879676
0.42100002 22102.55623293  1818.81943859
0.42200002 22177.39592705  2392.16492502
0.42300002 22254.31297481  1698.44924672
0.42400002 22333.75404917  1850.90995453
0.42500002 22415.93697073  1718.85412836
0.42600002 22499.08150222  1441.06623850
0.42700002 22585.49707648  2319.98236963
0.42800002 22673.15078305  1896.72251864
0.42900002 22763.46309573  1761.89212710
0.43000002 22855.14659905  1773.10235718
0.43100002 22947.02618967  1933.05757782
0.43200002 23041.63077210  1496.55398957
0.43300002 23136.81104608  1656.82711752
0.43400002 23233.70904683  2273.99938072
0.43500002 23330.98141160  1983.60013361
0.43600002 23430.07807959  2150.17836726
0.43700002 23529.18181654  2782.56117349
0.43800002 23628.65370631  2178.32568841
0.43900002 23729.75317134  1879.39654023
0.44000002 23830.59536551  1891.67274976
0.44100002 23932.12248163  2221.37971402
0.44200002 24033.72808544  1916.44956835
0.44300002 24135.66108364  1607.43510435
0.44400002 24237.32478579  1941.40980735
0.44500002 24338.51188123  1791.07117422
0.44600002 24439.45281766  2294.13154472
0.44700002 24541.10187496  2308.82697381
0.44800002 24641.16370591  2489.37368136
0.44900002 24741.37386178  1837.04709630
0.45000002 24841.34282047  2016.62030574
0.45100002 24939.56752266  2029.08330981
0.45200002 25037.53661134  2551.95104005
0.45300002 25134.22176905  1711.64058359
0.45400002 25230.09531610  1721.95408693
0.45500002 25325.21502997  1905.46926916
0.45600002 25418.65411687  1916.69370452
0.45700002 25511.25984971  2278.41072516
0.45800002 25602.03547594  2291.51029388
0.45900002 25691.39301687  2481.78868305
0.46000002 25779.67778773  1782.66480351
0.46100002 25865.59113148  2509.47977051
0.46200002 25950.49268823  1982.48798288
0.46300002 26033.53353459  2174.32082386
0.46400002 26114.14455602  3278.63100440
0.46500002 26194.02638170  2563.34754320
0.46600002 26270.84620895  2208.32743699
0.46700002 26345.72960252  2404.31139748
0.46800002 26419.20978069  2416.16894501
0.46900002 26489.83774865  2241.04037975
0.47000002 26558.33930296  2063.98143676
0.47100002 26624.91912078  2827.56654464
0.47200002 26689.16030236  2651.03441848
0.47300002 26750.92753447  2282.38924542
0.47400002 26809.68813456  2292.22844415
0.47500002 26866.48728539  2685.57419634
0.47600002 26921.35772848  2118.84556045
0.47700002 26972.58485928  2900.90163911
