# SAXS profile: number of points = 501, q_min = 0, q_max = 0.5, delta_q = 0.001
#    q    intensity    error
0.00000000 1646666.22097350 321.09991309
0.00100000 1646585.13655634 493.97555270
0.00200000 1646341.80687483 963.10998752
0.00300000 1645936.47231984 1481.34287786
0.00400000 1645369.00133389 1357.42947768
0.00500000 1644639.87603230 1628.19354172
0.00600000 1643749.03884726 1725.93656106
0.00700000 1642697.03255464 2168.36017309
0.00800000 1641483.67371277 3545.60488491
0.00900000 1640110.16504422 3444.23149383
0.01000000 1638575.99216766 4325.84080611
0.01100000 1636882.27046467 3535.66585814
0.01200000 1635029.03833656 3188.30676454
0.01300000 1633017.42615595 4458.13777003
0.01400000 1630847.46573050 6237.99183296
0.01500000 1628520.49524621 4299.29429889
0.01600000 1626036.00879090 6219.58801166
0.01700000 1623396.26426788 4383.17011015
0.01800000 1620601.12034163 5542.45608097
0.01900000 1617651.19457744 7279.43070407
0.02000000 1614547.91710166 7120.15663650
0.02100000 1611293.04385989 5317.26728581
0.02200000 1607885.17036486 6656.64490774
0.02300000 1604327.69733210 5775.57997329
0.02400000 1600619.87160133 6602.55727142
0.02500000 1596764.39358973 9341.07212911
0.02600000 1592761.35659422 7740.82054710
0.02700000 1588612.66494045 7339.39084818
0.02800000 1584318.28162476 6891.78484112
0.02900000 1579880.68638679 11375.14146427
0.03000000 1575301.38565849 11720.24284802
0.03100000 1570580.35206419 8292.66464047
0.03200000 1565719.40358223 10850.43596658
0.03300000 1560722.10946177 11143.55637528
0.03400000 1555586.91082183 10616.88115623
0.03500000 1550316.61217406 9208.88110156
0.03600000 1544912.65365406 10289.11874883
0.03700000 1539376.78593418 9651.89289418
0.03800000 1533710.58850545 9869.42809379
0.03900000 1527916.09236787 10084.24667663
0.04000000 1521993.14904403 12168.33579048
0.04100000 1515945.90124509 13370.64346893
0.04200000 1509774.91206129 13633.26808840
0.04300000 1503481.02276118 14884.46281624
0.04400000 1497067.90909490 13136.77151241
0.04500000 1490537.22920083 12341.64883124
0.04600000 1483888.51035915 10461.41448435
0.04700000 1477126.01853626 11698.83861090
0.04800000 1470250.56523532 14048.24480446
0.04900000 1463265.40975852 13169.38930083
0.05000000 1456170.40569733 11139.70412232
0.05100000 1448970.12923701 12432.16428799
0.05200000 1441662.95623812 14899.58734706
0.05300000 1434254.71842473 12779.21013690
0.05400000 1426745.38386894 17655.97494874
0.05500000 1419137.52173088 13112.83131250
0.05600000 1411432.12038579 14481.29423092
0.05700000 1403634.56969198 13432.78345897
0.05800000 1395743.57874258 18528.49687295
0.05900000 1387761.48404981 16236.81012174
0.06000000 1379692.78857725 12624.18960527
0.06100000 1371538.04674174 15306.36531693
0.06200000 1363299.82812481 12883.18397798
0.06300000 1354981.45227601 13007.82255003
0.06400000 1346581.36896421 14442.08585755
0.06500000 1338105.47665571 21195.59174171
0.06600000 1329555.39518909 21379.25175494
0.06700000 1320931.90756655 18862.90852281
0.06800000 1312238.77783040 17656.17358218
0.06900000 1303478.39468676 13686.52378500
0.07000000 1294651.52159823 13788.03935069
0.07100000 1285760.99411924 24995.19489640
0.07200000 1276809.66414790 15379.17312513
0.07300000 1267799.66402400 21108.86539507
0.07400000 1258733.82395318 18408.98303804
0.07500000 1249613.18538029 15670.15007917
0.07600000 1240439.58895776 17192.49350895
0.07700000 1231217.62029933 14405.24683294
0.07800000 1221948.09673176 17376.10275040
0.07900000 1212632.37937793 18917.06600558
0.08000000 1203275.43984848 17543.75673599
0.08100000 1193877.23363510 17621.62879523
0.08200000 1184440.23779794 19170.16614832
0.08300000 1174967.92261952 16285.05617180
0.08400000 1165461.27503521 17831.55834503
0.08500000 1155923.50335250 19384.83806125
0.08600000 1146355.94320698 17951.93491349
0.08700000 1136762.30656901 21007.36841185
0.08800000 1127142.67600274 24075.76869011
0.08900000 1117501.88735695 15086.27618792
0.09000000 1107839.76365403 22683.02022636
0.09100000 1098159.07746777 18185.51517724
0.09200000 1088461.96856994 21257.66324500
0.09300000 1078753.56560729 15210.42598983
0.09400000 1069030.15524321 18280.41651379
0.09500000 1059297.95103508 15253.89121188
0.09600000 1049557.66809980 21379.49070420
0.09700000 1039813.80587355 19870.84276443
0.09800000 1030066.20765974 24474.37424472
0.09900000 1020318.25434525 21426.68434879
0.10000000 1010569.47069533 24496.20512164
0.10100000 1000823.28328635 16843.85664991
0.10200000 991082.53201552 19905.89359183
0.10300000 981347.70219364 16839.92736181
0.10400000 971622.51382598 19893.97190650
0.10500000 961909.27242966 18353.22978147
0.10600001 952205.63244094 24452.64179167
0.10700001 942518.38373079 19849.43809544
0.10800001 932846.79550642 21352.86415404
0.10900001 923194.21925376 15232.70533462
0.11000001 913560.71886769 16731.86535362
0.11100001 903948.99131530 21260.88127656
0.11200001 894360.92038308 18191.30197699
0.11300001 884797.78281480 18156.05135816
0.11400001 875262.11357736 22647.40825515
0.11500001 865755.32984645 18076.97213840
0.11600001 856278.71831651 19535.99987837
0.11700001 846834.83656996 19485.67050715
0.11800001 837422.97186354 16442.80082697
0.11900001 828046.24295733 19376.28299786
0.12000001 818704.79110983 20803.28972204
0.12100001 809404.18567738 17774.51675480
0.12200001 800142.05129657 16238.88369610
0.12300001 790921.36751851 14711.13812895
0.12400001 781742.54911099 17589.20818376
0.12500001 772606.56864840 17522.71780262
0.12600001 763517.94393970 14545.01751746
0.12700001 754474.60511549 18831.68703115
0.12800001 745478.77717572 20195.02102547
0.12900001 736532.54273639 15798.62378632
0.13000001 727637.02560354 18587.48869516
0.13100001 718791.98288818 18501.70651167
0.13200001 709999.66103511 19830.29146752
0.13300001 701261.52733576 16914.42883674
0.13400001 692577.62232384 15427.16726459
0.13500001 683950.26285818 13952.58602015
0.13600001 675379.47508198 16654.85864081
0.13700001 666867.11284474 20706.22483020
0.13800001 658412.03606001 16473.46991904
0.13900001 650018.18271591 17745.49722499
0.14000001 641683.74519397 13571.61185090
0.14100001 633412.35836393 13491.68386946
0.14200001 625202.62482895 13410.59693510
0.14300001 617057.08286384 17326.96370409
0.14400001 608972.55895780 19867.73067316
0.14500001 600955.39127636 17109.20079672
0.14600001 593003.10991982 22228.72262397
0.14700001 585117.70636430 16886.49780232
0.14800001 577296.49726876 19353.86598402
0.14900001 569544.15476760 16659.16731295
0.15000001 561859.12704005 16543.94277629
0.15100001 554242.39018692 15164.07251103
0.15200001 546695.55071124 15055.99617703
0.15300001 539217.97140250 13701.52929990
0.15400001 531808.49425829 13601.00288250
0.15500001 524471.01613175 19636.19577066
0.15600001 517202.29365976 12180.11459053
0.15700001 510007.40850653 14504.61138250
0.15800001 502880.89674710 16791.19393491
0.15900001 495827.88579370 13089.85680280
0.16000001 488844.28825993 17708.38517809
0.16100001 481935.50516358 12882.13666111
0.16200001 475098.19978206 15100.99699293
0.16300001 468332.93145491 12673.08972344
0.16400001 461640.59231105 12568.16571901
0.16500001 455020.40840420 12463.00957459
0.16600001 448473.64679682 13481.11845920
0.16700001 441999.02848813 14479.88885694
0.16800001 435597.59988630 17667.83948560
0.16900001 429270.13850567 12041.02795364
0.17000001 423014.04671631 13020.37297275
0.17100001 416831.66400193 15055.96041471
0.17200001 410722.02887414 12789.88458312
0.17300001 404684.76822704 11618.50024448
0.17400001 398721.40056353 12559.72471090
0.17500001 392829.06049596 15556.03153031
0.17600001 387008.16032507 11302.57385610
0.17700001 381262.27087234 10179.70311309
0.17800001 375586.41490248 12101.39485973
0.17900001 369982.32710367 14984.28495546
0.18000001 364450.80402480 12863.29173565
0.18100001 358990.80358343 16660.76398130
0.18200001 353600.10636784 11647.58805396
0.18300001 348280.37897967 12496.30058811
0.18400001 343031.37467577 9519.12109694
0.18500001 337852.53093828 10368.69466433
0.18600001 332743.42124958 10266.79874769
0.18700001 327703.20262548 10165.35382570
0.18800001 322730.26055562 9149.40331903
0.18900001 317829.36931421 12681.39243480
0.19000001 312992.04070267 12554.11134575
0.19100001 308225.33580503 10652.26810874
0.19200001 303524.32664595 13180.54450740
0.19300001 298891.48140722 9567.51677194
0.19400001 294322.92627718 10330.73520050
0.19500001 289820.87463566 11076.95435202
0.19600001 285383.13730444 8433.07210586
0.19700001 281011.58916096 10015.25351099
0.19800001 276702.78629237 12389.36784175
0.19900001 272457.99102923 9808.48814060
0.20000001 268274.81663322 10515.03193489
0.20100001 264155.56927043 9604.69695261
0.20200001 260096.71372013 11879.91796065
0.20300001 256099.71581484 9403.98200920
0.20400001 252163.94494740 10080.25417572
0.20500001 248287.01959179 10740.89697523
0.20600001 244469.17242903 9867.99861154
0.20700001 240710.62177995 9012.20610544
0.20800001 237009.43303418 11145.36911528
0.20900001 233368.26480099 8821.32082647
0.21000001 229780.86043630 9454.33394958
0.21100001 226250.95585319 7194.78073625
0.21200001 222775.39972030 9252.97666481
0.21300001 219354.88927742 7745.42150655
0.21400001 215988.84237676 6965.64049596
0.21500001 212677.22290382 9647.03928701
0.21600001 209416.66128039 7498.16391165
0.21700001 206208.99743884 9440.24834908
0.21800001 203052.87462560 9338.40214556
0.21900001 199946.83764077 9897.36893118
0.22000001 196890.15885996 7179.59998230
0.22100001 193884.68242544 8393.26829906
0.22200001 190927.07265278 7663.81305866
0.22300001 188017.01495622 10107.79520200
0.22400001 185154.03422601 7498.73874074
0.22500001 182339.47631811 6799.43939343
0.22600001 179569.02625434 6114.32563310
0.22700001 176844.70803972 7257.70716116
0.22800001 174164.71694824 7777.32580311
0.22900001 171527.73921367 7101.24873927
0.23000001 168934.71673467 7609.66467519
0.23100001 166385.46220915 6948.25723046
0.23200001 163875.97144979 8591.19820956
0.23300001 161409.10664860 8498.18986697
0.23400001 158981.96515977 8406.17180540
0.23500001 156594.14324645 5543.43293311
0.23600001 154246.00025412 5483.44556838
0.23700001 151936.63771449 5966.55204525
0.23800001 149664.83379796 6438.58145452
0.23900001 147430.46710985 7961.24560050
0.24000001 145231.92106670 5250.13419489
0.24100001 143070.70973766 5712.81371005
0.24200001 140944.64129142 8219.89186893
0.24300001 138852.68402366 5590.20932322
0.24400001 136795.02134487 5027.21727223
0.24500001 134770.34240669 8951.44656609
0.24600001 132779.04403456 5411.41019562
0.24700001 130820.22033605 5839.81491206
0.24800001 128892.77882631 5295.56006859
0.24900001 126995.59585382 6667.26909774
0.25000001 125130.19561657 5182.26729662
0.25100001 123293.72267042 6058.65381865
0.25200001 121488.47448198 5993.63417213
0.25300001 119710.70526622 5017.07589507
0.25400001 117962.38663059 5865.67995272
0.25500001 116239.95130207 4909.97577530
0.25600001 114546.18125459 4857.33104591
0.25700001 112878.24766422 4805.22723042
0.25800001 111236.76374131 6050.16786615
0.25900001 109621.64979925 6412.86681668
0.26000001 108031.09673648 6767.06821976
0.26100001 106464.78507509 5020.87950171
0.26200001 104924.20124115 4967.11192178
0.26300001 103405.56309222 5323.31863987
0.26400001 101911.70968870 5671.38691254
0.26500001 100440.25772671 4809.07976751
0.26600001 98990.92314620  5550.42132345
0.26700001 97563.75128764  4706.47558483
0.26800001 96158.57711417  5043.99840121
0.26900001 94773.82672800  4222.17418053
0.27000001 93410.47476103  3797.13597872
0.27100001 92066.98952569  4507.60002049
0.27200001 90744.22416323  5945.56184854
0.27300001 89440.65946247  4778.81466123
0.27400001 88155.25330907  4000.04480820
0.27500001 86890.51933635  4316.72120492
0.27600001 85642.11677381  3914.27313239
0.27700001 84413.76266495  3872.05947669
0.27800001 83202.06177781  4874.80903027
0.27900001 82008.34623088  4133.22084565
0.28000001 80831.32457790  5110.56073831
0.28100001 79671.44685952  3707.11259783
0.28200001 78528.46206530  4666.94672143
0.28300001 77401.52254802  4616.22702325
0.28400001 76289.90501562  3587.53295316
0.28500001 75194.54590958  3225.84617220
0.28600001 74114.43348815  3509.68916395
0.28700001 73050.23567999  3471.34736382
0.28800001 71999.20583837  3745.39886499
0.28900001 70964.50992103  3395.65196045
0.29000001 69943.61347970  4274.25442206
0.29100001 68937.38759090  3623.34926329
0.29200001 67944.65046627  3284.78428228
0.29300001 66965.92580575  3543.83696139
0.29400001 66000.10345297  4380.75707406
0.29500001 65049.00172853  3754.62855750
0.29600001 64109.55737661  3141.68900796
0.29700001 63183.81953494  3106.74855360
0.29800001 62270.93808596  3909.99238751
0.29900001 61370.82605206  3037.85603339
0.30000001 60482.58867950  3276.94680978
0.30100001 59607.33292548  3240.25477122
0.30200001 58743.34066526  4004.82743945
0.30300001 57892.06005309  2639.87806340
0.30400001 57052.35591345  2610.14540661
0.30500001 56224.90094553  2580.72307558
0.30600001 55407.76892018  3061.83345548
0.30700001 54603.03791679  2774.92651831
0.30800001 53809.19456065  2992.86754316
0.30900001 53026.79589008  2465.74612563
0.31000001 52255.34132108  2681.48296685
0.31100001 51494.54233829  2891.93363464
0.31200001 50745.42286181  2858.99725940
0.31300001 50006.33458045  3061.88801133
0.31400001 49279.33011644  3259.82784154
0.31500001 48561.53310030  2992.36181132
0.31600002 47855.35402730  3185.73106843
0.31700002 47158.76268247  2474.42039511
0.31800002 46472.51619827  3113.19400753
0.31900002 45797.09946022  2857.73914163
0.32000002 45131.95577074  2607.72452791
0.32100002 44476.67356587  3437.15749592
0.32200002 43832.30775213  2548.41049338
0.32300002 43196.19866665  2519.20242553
0.32400002 42571.36463328  2697.96036139
0.32500002 41956.26867119  2256.82779869
0.32600002 41351.05243207  2433.92306140
0.32700002 40755.60220025  2205.69329552
0.32800002 40170.93037793  2775.40971124
0.32900002 39593.86399181  2155.88599644
0.33000002 39027.96629942  2325.28634223
0.33100002 38470.61308356  2107.42028451
0.33200002 37924.37314862  1894.32252848
0.33300002 37386.84155955  2060.38893592
0.33400002 36859.42390423  2222.62336668
0.33500002 36340.93991136  2014.74180410
0.33600002 35831.58053839  1992.41513019
0.33700002 35331.72040802  2507.84563333
0.33800002 34841.93368216  2126.05489397
0.33900002 34360.63210121  2102.87078418
0.34000002 33888.79285869  1906.75302049
0.34100002 33426.21501604  1886.24140268
0.34200002 32973.71053229  1866.14723595
0.34300002 32529.64539576  1846.38276011
0.34400002 32095.22707269  2491.39211951
0.34500002 31669.63725223  1808.01967636
0.34600002 31253.56877563  2440.12249772
0.34700002 30845.50493632  2254.18960751
0.34800002 30447.43106922  1593.92309196
0.34900002 30057.80122521  1893.64156687
0.35000002 29677.45492901  2187.52530642
0.35100002 29306.71741458  1856.87370333
0.35200002 28943.15327018  2145.55605354
0.35300002 28589.90875390  1669.93664941
0.35400002 28244.79881887  2556.86053418
0.35500002 27908.87774042  1937.43438450
0.35600002 27580.89509752  1476.95700243
0.35700002 27261.80113746  1463.95879042
0.35800002 26951.55415484  1451.34125998
0.35900002 26650.52520194  2158.69264360
0.36000002 26357.62642960  1855.44520040
0.36100002 26072.57420832  1557.31493123
0.36200002 25797.39771986  1685.60204686
0.36300002 25529.34987219  1533.29282595
0.36400002 25270.25088125  1798.61019167
0.36500002 25018.52184485  1785.57198865
0.36600002 24776.01232193  1773.09540581
0.36700002 24540.99194251  1490.12910133
0.36800002 24314.99313901  1480.41842739
0.36900002 24096.81131585  1604.84770966
0.37000002 23886.04101335  1462.18406990
0.37100002 23683.17849824  1453.67356508
0.37200002 23488.93790309  1708.46797931
0.37300002 23301.98287327  1830.13782156
0.37400002 23122.70503339  1820.91310764
0.37500002 22951.35752920  1553.34795116
0.37600002 22787.74963018  2963.88879605
0.37700002 22631.27704129  1411.51281593
0.37800002 22482.39908043  1533.74933792
0.37900002 22341.70126726  2037.56325210
0.38000002 22207.36290240  1903.72627499
0.38100002 22079.68195956  1391.68241984
0.38200002 21960.41241375  2144.76377999
0.38300002 21847.20616312  1384.23904807
0.38400002 21741.51391233  1381.12973671
0.38500002 21642.02957910  1378.38092919
0.38600002 21550.36743682  1751.39844456
0.38700002 21464.41231768  1748.92039850
0.38800002 21385.18640291  1871.73852859
0.38900002 21312.42752297  1496.13248299
0.39000002 21246.70048781  1495.34285118
0.39100002 21186.40237582  1744.06472620
0.39200002 21132.75369940  1868.66383440
0.39300002 21084.94721180  1993.79270281
0.39400002 21044.09169734  1496.23499057
0.39500002 21008.02602109  1747.02752668
0.39600002 20977.97616708  1624.01010192
0.39700002 20952.96591956  1375.98133713
0.39800002 20934.72378088  1754.12058871
0.39900002 20920.88772801  1380.77865547
0.40000002 20912.88245885  1761.07391530
0.40100002 20909.60863611  1639.10429864
0.40200002 20912.01593695  1516.95770794
0.40300002 20919.09954704  1267.69749261
0.40400002 20931.03015497  1653.02818481
0.40500002 20947.43058308  1403.26844125
0.40600002 20969.41731933  1280.18298800
0.40700002 20995.23641403  1284.90852942
0.40800002 21025.33852154  1418.89503736
0.40900002 21059.32442468  1424.66336483
0.41000002 21098.33705160  1430.78379495
0.41100002 21141.00535489  1306.51419284
0.41200002 21186.78375941  1968.78197413
0.41300002 21237.68848834  1582.63262114
0.41400002 21291.41456716  1590.46874353
0.41500002 21348.72979010  1465.37688223
0.41600002 21408.61821663  1606.93095948
0.41700002 21473.25299816  1884.92223749
0.41800002 21541.18131229  1624.63597155
0.41900002 21610.38185813  1361.45412157
0.42000002 21683.12555225  1917.00522091
0.42100002 21759.40562831  2479.26679477
0.42200002 21838.06946780  1662.75068807
0.42300002 21918.68557021  1812.23700882
0.42400002 22001.88624559  1823.40640901
0.42500002 22087.63581272  1693.67999438
0.42600002 22174.47719027  1562.30286447
0.42700002 22264.48931507  1858.19436629
0.42800002 22355.76273186  1726.31207996
0.42900002 22449.73705224  1448.00810849
0.43000002 22544.92892739  1749.03566907
0.43100002 22640.34058826  2347.35062343
0.43200002 22738.46528792  1919.92240757
0.43300002 22837.16194796  1486.69931326
0.43400002 22937.53893087  1945.67683201
0.43500002 23038.27234646  1506.70308286
0.43600002 23140.80964376  1820.25617284
0.43700002 23243.37490866  1985.21674503
0.43800002 23346.28201553  2152.29384101
0.43900002 23450.81020800  2012.07961120
0.44000002 23555.09889243  1558.16986558
0.44100002 23660.03433784  1725.52638603
0.44200002 23765.07562650  2210.86509031
0.44300002 23870.42310059  2066.70132999
0.44400002 23975.47436875  2240.50818594
0.44500002 24080.07900411  2094.24457024
0.44600002 24184.40424308  1621.56438135
0.44700002 24289.42608729  1632.24951042
0.44800002 24392.85692379  2135.71668918
0.44900002 24496.35534008  1818.85447020
0.45000002 24599.75303900  1997.00804635
0.45100002 24701.35844090  2009.70261800
0.45200002 24802.67076698  1685.34155849
0.45300002 24902.80566906  2374.23360501
0.45400002 25002.04186157  1706.38943792
0.45500002 25100.47874059  2231.93467539
0.45600002 25197.29354806  2936.36674279
0.45700002 25293.24459662  2780.23357783
0.45800002 25387.37084747  2097.50467883
0.45900002 25480.15820360  2109.75719925
0.46000002 25571.83584921  1945.12178606
0.46100002 25661.13499096  2311.81176090
0.46200002 25749.47256603  2145.96114536
0.46300002 25835.81057355  2517.44150160
0.46400002 25919.82161366  2350.27993621
0.46500002 26003.14098008  1999.38160472
0.46600002 26083.36242078  2375.28151143
0.46700002 26161.66955152  2020.20421852
0.46800002 26238.57411974  2030.47215449
0.46900002 26312.64373245  2226.04976527
0.47000002 26384.54594535  2050.47508533
0.47100002 26454.54492195  2434.87643002
0.47200002 26522.23242977  3010.80396813
0.47300002 26587.38437963  2457.47205469
0.47400002 26649.61146191  2278.54188799
0.47500002 26709.86017192  2097.79251733
0.47600002 26768.22261427  2106.79306071
0.47700002 26822.89368504  3077.12250940
