# SAXS profile: number of points = 501, q_min = 0, q_max = 0.5, delta_q = 0.001
#    q    intensity    error
0.00000000 1664650.74656091 249.69761198
0.00100000 1664569.02288594 499.37071873
0.00200000 1664323.78591928 898.73487285
0.00300000 1663915.27004001 1697.19363590
0.00400000 1663343.33982583 1871.26132841
0.00500000 1662608.48981338 1945.25201008
0.00600000 1661710.66492519 1919.27589613
0.00700000 1660650.38069517 2789.89275552
0.00800000 1659427.49992750 2912.29538533
0.00900000 1658043.20353080 3233.18438510
0.01000000 1656496.95950520 3279.86412144
0.01100000 1654789.92901305 3574.34640229
0.01200000 1652922.11809763 3545.51809877
0.01300000 1650894.68658667 5547.00639158
0.01400000 1648707.61493330 4822.46998746
0.01500000 1646362.37337572 5531.77782087
0.01600000 1643858.32249444 4611.02280073
0.01700000 1641197.74448333 6646.85116333
0.01800000 1638380.60082169 6537.13889143
0.01900000 1635407.43456100 7359.33378760
0.02000000 1632279.64318751 6684.18544122
0.02100000 1628999.12396706 7525.97629394
0.02200000 1625564.37745874 6729.83682843
0.02300000 1621978.73956863 5839.12372823
0.02400000 1618241.61568672 7888.92823619
0.02500000 1614355.66909070 6295.98739700
0.02600000 1610320.95457604 7173.98018076
0.02700000 1606139.39816485 6745.78578126
0.02800000 1601810.96268507 10451.81701084
0.02900000 1597338.24420996 10782.03364347
0.03000000 1592722.57521728 8887.39237822
0.03100000 1587964.07088163 10671.11904734
0.03200000 1583064.49465824 8619.78657043
0.03300000 1578027.54356541 8047.94084320
0.03400000 1572851.29160407 11560.45752669
0.03500000 1567539.06302297 12697.06699681
0.03600000 1562091.96933147 10403.53299653
0.03700000 1556512.04146154 10646.54285597
0.03800000 1550800.59376066 9979.40228269
0.03900000 1544959.77839552 12977.66273952
0.04000000 1538989.42710739 10411.26395683
0.04100000 1532893.64046654 10622.95342098
0.04200000 1526673.17093371 11816.45089123
0.04300000 1520328.85426152 15051.25635584
0.04400000 1513864.30315723 13284.15987715
0.04500000 1507280.99673875 12480.28723289
0.04600000 1500578.69411275 11636.98831381
0.04700000 1493761.74637125 13981.61059629
0.04800000 1486830.77264511 18577.95136860
0.04900000 1479789.14840307 12208.26104259
0.05000000 1472636.79758827 12392.23922876
0.05100000 1465378.24312989 13715.94099464
0.05200000 1458011.66181200 15068.55122704
0.05300000 1450543.41199449 18799.04349582
0.05400000 1442972.97717046 13094.98037849
0.05500000 1435303.19103534 13262.20210384
0.05600000 1427534.93563629 12205.42426925
0.05700000 1419673.83484880 14821.39552766
0.05800000 1411718.22409798 14992.44823995
0.05900000 1403670.91268106 17686.25432583
0.06000000 1395535.82098161 19153.73003781
0.06100000 1387314.29180112 14192.22586835
0.06200000 1379008.42567174 18244.28232444
0.06300000 1370621.43643177 17105.35632643
0.06400000 1362152.08096558 17265.27843368
0.06500000 1353606.16053359 16080.84193937
0.06600000 1344985.36605722 14868.81391745
0.06700000 1336290.54837431 16356.19707755
0.06800000 1327525.22465577 16487.86406201
0.06900000 1318691.95943194 16615.51946676
0.07000000 1309791.55390572 19528.99298325
0.07100000 1300826.91863568 18263.61079307
0.07200000 1291800.76822323 25461.39433446
0.07300000 1282715.31633651 17085.76881417
0.07400000 1273573.43437014 22924.32289299
0.07500000 1264376.30176084 23062.22482510
0.07600000 1255125.31982712 26094.05662251
0.07700000 1245825.76106529 20406.62692309
0.07800000 1236477.85670210 21978.39493358
0.07900000 1227083.36231749 20615.00145385
0.08000000 1217646.91391794 16273.85176794
0.08100000 1208169.02705920 14860.47973006
0.08200000 1198651.80435153 20892.50193023
0.08300000 1189098.51938220 19477.43466160
0.08400000 1179510.66163066 18046.51397003
0.08500000 1169891.02244590 18109.91387764
0.08600000 1160241.61677921 16655.26919086
0.08700000 1150565.53779289 16706.21239324
0.08800000 1140862.92183981 19799.67693840
0.08900000 1131138.83091767 24432.59989541
0.09000000 1121393.27455368 15307.01891671
0.09100000 1111628.65796716 21476.66668092
0.09200000 1101847.32719277 24593.23349850
0.09300000 1092054.24928545 29256.13471317
0.09400000 1082246.05056950 21590.80972358
0.09500000 1072428.47975719 16987.26791780
0.09600000 1062602.95024859 18553.04838348
0.09700000 1052773.45458151 17023.34756090
0.09800000 1042940.10330878 23231.49189349
0.09900000 1033106.01424245 23244.88641349
0.10000000 1023270.90123466 21703.57683585
0.10100000 1013438.30936122 20157.28892123
0.10200000 1003610.69415315 17056.36454940
0.10300000 993789.31767288 21704.35971896
0.10400000 983977.31935050 18597.17221063
0.10500000 974177.01931362 18587.29840302
0.10600001 964386.08962234 20121.91670678
0.10700001 954611.87827552 17011.18447138
0.10800001 944852.70531856 18538.01095078
0.10900001 935112.86717910 16972.29933811
0.11000001 925391.99530619 21570.88842592
0.11100001 915692.99494164 23075.46455877
0.11200001 906017.56529819 15356.99845477
0.11300001 896366.85619297 15327.87396255
0.11400001 886743.78377559 16825.96408938
0.11500001 877149.78265018 16788.64763047
0.11600001 867585.77584198 19793.97040796
0.11700001 858054.61106736 19743.83753049
0.11800001 848555.45258427 21205.40175882
0.11900001 839091.39704808 16614.01044410
0.12000001 829663.07620692 15058.38554248
0.12100001 820275.56322863 16512.14786565
0.12200001 810926.80449854 17953.92029743
0.12300001 801619.46998990 19383.15969758
0.12400001 792353.99745509 17827.96578275
0.12500001 783131.81286975 16281.31115675
0.12600001 773956.92813119 16218.26819325
0.12700001 764827.72706737 16153.16235690
0.12800001 755746.12060502 21935.53218437
0.12900001 746714.45056196 20385.30546114
0.13000001 737733.60916441 15946.11271371
0.13100001 728803.22491560 15873.33498689
0.13200001 719926.40255473 20107.54537123
0.13300001 711103.66080547 17151.82110722
0.13400001 702335.59680607 17066.75580701
0.13500001 693624.22382940 18394.91528324
0.13600001 684969.77974105 15483.74260112
0.13700001 676373.97630297 21001.41295449
0.13800001 667835.85399769 15316.81603371
0.13900001 659359.21563649 13846.54418134
0.14000001 650942.47422276 26158.12456027
0.14100001 642589.10561583 21899.43775223
0.14200001 634297.68387867 17687.39174919
0.14300001 626070.86542764 14875.44446420
0.14400001 617905.46300123 13439.44445421
0.14500001 609807.79696472 13354.79138350
0.14600001 601775.17543370 22557.54351527
0.14700001 593810.09160654 15819.10158669
0.14800001 585909.81761761 17023.61055403
0.14900001 578078.39357695 16908.79380990
0.15000001 570315.00534915 14209.39902871
0.15100001 562620.36712965 15393.29397100
0.15200001 554996.06223127 12737.16022924
0.15300001 547441.48130681 12645.89881493
0.15400001 539955.33612116 13809.35837298
0.15500001 532541.76003839 13707.62555029
0.15600001 525197.35005653 18552.59726634
0.15700001 517927.38319283 14729.85547321
0.15800001 510726.02437668 15835.06113319
0.15900001 503598.94519096 13295.01278057
0.16000001 496541.75495769 20385.52271203
0.16100001 489559.76843003 13085.93322785
0.16200001 482649.87969900 12980.86912728
0.16300001 475812.42900717 15216.48219799
0.16400001 469048.70636181 13930.74723661
0.16500001 462357.46038396 13815.24156851
0.16600001 455740.28553383 11416.29469162
0.16700001 449195.54050590 11319.72815521
0.16800001 442724.79893757 15712.30385617
0.16900001 436328.62460934 14464.29458878
0.17000001 430004.21393895 16544.41291252
0.17100001 423754.20933967 13119.43094067
0.17200001 417577.25631016 13003.35637555
0.17300001 411473.61417205 13961.30038817
0.17400001 405444.17515057 15964.36515049
0.17500001 399486.52016187 11601.08909339
0.17600001 393600.80568378 10450.10188445
0.17700001 387790.72815428 11389.41422382
0.17800001 382051.23828313 11283.88385565
0.17900001 376384.02126790 12194.84286509
0.18000001 370790.04816430 12080.34033981
0.18100001 365268.27087604 11966.18911914
0.18200001 359816.13247772 10864.64863339
0.18300001 354435.84822202 9782.42987304
0.18400001 349126.58354076 12594.74209622
0.18500001 343888.39693909 11513.38407344
0.18600001 338720.43921363 12351.44139945
0.18700001 333621.66916333 14112.19727234
0.18800001 328591.13195646 16768.00625596
0.18900001 323633.03512817 9223.54193694
0.19000001 318739.33648449 9131.88242175
0.19100001 313916.70993050 9944.88184049
0.19200001 309160.16929544 12530.26225362
0.19300001 304472.76980772 8860.15802007
0.19400001 299850.09758561 9647.67734571
0.19500001 295294.72152240 14758.83087912
0.19600001 290803.95551082 9452.58302057
0.19700001 286380.06726080 11907.68375943
0.19800001 282019.57951868 8418.28484647
0.19900001 277723.77060964 9164.88486325
0.20000001 273490.01649003 9070.29682556
0.20100001 269320.80522304 10608.54701912
0.20200001 265212.60010420 10498.44127132
0.20300001 261166.96933271 10389.22253110
0.20400001 257182.82884055 14235.07024916
0.20500001 253258.27951938 10955.95368986
0.20600001 249393.49710182 11615.50267656
0.20700001 245588.34539387 10727.29943387
0.20800001 241841.40035724 7581.72825959
0.20900001 238154.83332246 9002.25312514
0.21000001 234522.56388543 8164.90344765
0.21100001 230948.48603679 8812.99464378
0.21200001 227429.57461226 7993.01277761
0.21300001 223965.83151201 10065.02494398
0.21400001 220557.15932706 7112.96872457
0.21500001 217203.53147347 7741.13422770
0.21600001 213901.71002977 6962.50099065
0.21700001 210653.14089886 8266.02963969
0.21800001 207456.67292804 7496.44723069
0.21900001 204310.78220959 7416.48174487
0.22000001 201214.80925241 9338.37973895
0.22100001 198170.50857228 8578.80172173
0.22200001 195174.57431401 8487.16676536
0.22300001 192226.84295196 7104.70445145
0.22400001 189326.44351342 8306.69810194
0.22500001 186475.20298624 6953.66064818
0.22600001 183668.56594344 6879.30646272
0.22700001 180908.56900469 9280.61002881
0.22800001 178193.09095188 8569.30614912
0.22900001 175521.41570115 6661.03804087
0.23000001 172894.12212343 8986.17242234
0.23100001 170310.94637239 8890.23182108
0.23200001 167768.21634620 6449.84938247
0.23300001 165268.29982662 9281.46815723
0.23400001 162808.46183405 6312.89840619
0.23500001 160388.81968341 7948.87027946
0.23600001 158009.09267934 6178.94586147
0.23700001 155668.59687434 6113.10608839
0.23800001 153366.08447151 7147.62670487
0.23900001 151101.33238097 5983.61304531
0.24000001 148872.96130652 5381.75780579
0.24100001 146682.20575520 6389.47718493
0.24200001 144527.20845799 6321.62039698
0.24300001 142406.55693149 5733.28825326
0.24400001 140320.59493764 5672.46031868
0.24500001 138267.97094697 5612.29720622
0.24600001 136248.93169233 6057.62778960
0.24700001 134263.14315836 6492.96591029
0.24800001 132308.99478301 5930.08942671
0.24900001 130385.33660436 7334.17553096
0.25000001 128493.73092961 6772.90487771
0.25100001 126631.72621109 5744.01537268
0.25200001 124801.20979206 4736.20613568
0.25300001 122998.15372171 5623.47585421
0.25400001 121225.03594405 5100.54362866
0.25500001 119478.30314776 5505.56046953
0.25600001 117760.61995109 5901.57374807
0.25700001 116068.85064659 4491.86473255
0.25800001 114403.86924061 5333.50863635
0.25900001 112765.67384366 4837.64763679
0.26000001 111152.16629610 6092.25052295
0.26100001 109563.22973355 5597.58567194
0.26200001 108000.27853980 5964.85566599
0.26300001 106459.74736907 5058.96743436
0.26400001 104943.85005190 4171.51823695
0.26500001 103450.97325204 4953.23283369
0.26600001 101980.39516645 5309.60952559
0.26700001 100532.31604476 4041.39929624
0.26800001 99106.33577880  5598.51717307
0.26900001 97700.96774175  6331.02300926
0.27000001 96317.21235769  4306.82435438
0.27100001 94953.66621710  4648.93171799
0.27200001 93610.96572422  3833.36922782
0.27300001 92287.80603350  4172.33190823
0.27400001 90982.80056517  5254.25698130
0.27500001 89698.79703166  4084.88341014
0.27600001 88431.24684252  4409.18217624
0.27700001 87184.00976011  7634.70409602
0.27800001 85953.53253076  4316.58660799
0.27900001 84741.27393607  4626.87377589
0.28000001 83545.86262437  4577.89575917
0.28100001 82367.71595931  3832.57000498
0.28200001 81206.70614343  3791.94732284
0.28300001 80061.86290612  3410.63552123
0.28400001 78932.50224148  4049.23755664
0.28500001 77819.48055857  3672.30146137
0.28600001 76721.85327248  3302.87593971
0.28700001 75640.16548043  3921.18636411
0.28800001 74571.94235619  3232.69385415
0.28900001 73520.19564408  4797.19299285
0.29000001 72482.20544164  3480.23325901
0.29100001 71459.12009758  4694.86441264
0.29200001 70449.55743745  3715.50983513
0.29300001 69454.27481209  3675.52039704
0.29400001 68471.75001415  3635.85009786
0.29500001 67504.21262945  4495.78077394
0.29600001 66548.36556183  3854.14877396
0.29700001 65606.16462154  3812.37440663
0.29800001 64677.02558116  3190.84120810
0.29900001 63760.91702953  3730.01382280
0.30000001 62856.25715908  3689.34818860
0.30100001 61965.13406861  3649.12691805
0.30200001 61085.12146475  4164.47835301
0.30300001 60217.97729326  3020.53388403
0.30400001 59362.40867253  4073.74548801
0.30500001 58519.22179082  3491.84212957
0.30600001 57686.14211947  3719.02575851
0.30700001 56865.64025844  3152.63124518
0.30800001 56056.19822127  4676.76883902
0.30900001 55258.14771009  3083.40478820
0.31000001 54471.14844570  3049.29503436
0.31100001 53694.76844233  3266.78986670
0.31200001 52930.15491207  2982.08506893
0.31300001 52175.53475600  2948.96136403
0.31400001 51432.95809188  2430.20738490
0.31500001 50699.53062153  3124.10522482
0.31600002 49977.99616716  2851.74459632
0.31700002 49265.98396701  2584.98630114
0.31800002 48564.15790253  3253.31309193
0.31900002 47873.32168157  2757.50345942
0.32000002 47192.89240858  2499.57166477
0.32100002 46522.09140975  2696.42054578
0.32200002 45862.32277116  2888.63853652
0.32300002 45211.00408909  2636.70588333
0.32400002 44570.77555580  3041.95557572
0.32500002 43940.06293361  2793.26993296
0.32600002 43319.47608220  2549.78448294
0.32700002 42708.71711345  2941.77657408
0.32800002 42108.62902704  3740.50969360
0.32900002 41516.14161062  2260.55401774
0.33000002 40934.79486472  2235.65392740
0.33100002 40361.96837700  2211.02873239
0.33200002 39800.26942374  2783.23297260
0.33300002 39247.17713816  2556.16876806
0.33400002 38704.32375495  2722.84930510
0.33500002 38170.45916868  2308.54947985
0.33600002 37645.51364712  1902.98080498
0.33700002 37130.06892549  2823.74187551
0.33800002 36624.85404411  2607.32348288
0.33900002 36128.00918845  2395.28712263
0.34000002 35640.53205372  2005.31463097
0.34100002 35162.36310343  1984.21224390
0.34200002 34694.19597255  2499.02305425
0.34300002 34234.38084487  2473.09178936
0.34400002 33784.46052818  1923.18050665
0.34500002 33343.10889018  2768.81189337
0.34600002 32911.51428571  2226.95771961
0.34700002 32487.79490171  2204.62186644
0.34800002 32073.95414732  2518.60736870
0.34900002 31668.55351696  1662.59913838
0.35000002 31272.48294726  2305.09482722
0.35100002 30886.01752026  1793.85998254
0.35200002 30506.75140328  2422.99884497
0.35300002 30137.65909044  1760.34075085
0.35400002 29776.59431185  2536.96595553
0.35500002 29424.89836839  2199.80550621
0.35600002 29081.28899779  2335.95464939
0.35700002 28746.32075171  2315.51624622
0.35800002 28420.23022001  2295.64420476
0.35900002 28103.25677713  1972.84871920
0.36000002 27794.44367081  1806.08303528
0.36100002 27493.60655092  1642.19319707
0.36200002 27202.53584481  1777.41377629
0.36300002 26918.57342692  2204.63126809
0.36400002 26643.54087081  1604.60732495
0.36500002 26375.90886498  2027.25245139
0.36600002 26117.50871908  2156.65338463
0.36700002 25866.64503542  1713.40664831
0.36800002 25624.82790172  1560.16772070
0.36900002 25390.67828052  2395.61060924
0.37000002 25164.03865117  1680.45458073
0.37100002 24945.29153630  1670.33680039
0.37200002 24734.99402609  1660.70757758
0.37300002 24532.34458889  2064.39689495
0.37400002 24337.25671970  1642.76490640
0.37500002 24150.03000371  1634.47410808
0.37600002 23970.53674129  1762.19409201
0.37700002 23798.33679400  2158.98521623
0.37800002 23633.62834878  1477.92901880
0.37900002 23477.07811483  1605.83221913
0.38000002 23327.12883793  1599.77457149
0.38100002 23183.67907648  2258.32228582
0.38200002 23048.71959302  1986.22350502
0.38300002 22919.89146911  1320.18581116
0.38400002 22798.41054083  1579.92992533
0.38500002 22683.37826513  1444.70443015
0.38600002 22576.08115055  1572.64988745
0.38700002 22474.63904075  1569.62886497
0.38800002 22379.83679525  1697.62260053
0.38900002 22291.66148840  1564.87471062
0.39000002 22210.37736305  1432.90256346
0.39100002 22134.73683026  1691.97936346
0.39200002 22065.89025056  1560.94115028
0.39300002 22002.59394934  1820.49470962
0.39400002 21946.61397263  1300.33693948
0.39500002 21895.33710106  1560.69970251
0.39600002 21850.10180897  1821.64307412
0.39700002 21810.00673037  1302.05746349
0.39800002 21776.70170032  1433.66922437
0.39900002 21747.88633126  1565.84789004
0.40000002 21724.90537936  1829.45436867
0.40100002 21706.89336620  1439.81830520
0.40200002 21694.48430570  1836.00429378
0.40300002 21686.83711281  1839.91134783
0.40400002 21684.19231352  2239.43506728
0.40500002 21685.82286506  1320.66667506
0.40600002 21693.37621742  1324.38068082
0.40700002 21704.71437876  1859.66001609
0.40800002 21720.46046628  1465.80534402
0.40900002 21740.25264996  1738.13328172
0.41000002 21765.03420213  1475.99586435
0.41100002 21793.57819482  1750.89615513
0.41200002 21825.26692711  1622.49042024
0.41300002 21862.33350551  1629.18117003
0.41400002 21902.16078763  1772.43244572
0.41500002 21945.71872513  1780.23678734
0.41600002 21991.94642916  1925.83484005
0.41700002 22042.85904683  1520.29606050
0.41800002 22097.40726970  1944.35095779
0.41900002 22153.21523315  1535.21788840
0.42000002 22212.72609740  1543.00709147
0.42100002 22275.78618113  2115.08599812
0.42200002 22341.22888323  1984.57145574
0.42300002 22408.91498543  1710.24847273
0.42400002 22479.12242145  1576.34853450
0.42500002 22552.25639120  2017.52495236
0.42600002 22626.30776319  1594.13658900
0.42700002 22703.84086079  1749.10398280
0.42800002 22782.54727748  2052.47978149
0.42900002 22864.04213675  1622.20386647
0.43000002 22947.14428982  1483.53294864
0.43100002 23030.41668946  1940.08239386
0.43200002 23116.51606937  2252.12668478
0.43300002 23203.29953438  1963.69533265
0.43400002 23291.95307418  1671.78001112
0.43500002 23381.06252238  1682.03371757
0.43600002 23472.08870587  2615.61232889
0.43700002 23563.26038884  2322.15942136
0.43800002 23654.80687797  1869.20292808
0.43900002 23748.13967231  1880.85275118
0.44000002 23841.30001263  2050.23269175
0.44100002 23935.37798013  2221.68188940
0.44200002 24029.60198749  2554.82740438
0.44300002 24124.22994953  1928.00854894
0.44400002 24218.78403132  1939.92469284
0.44500002 24312.85462947  1951.83606215
0.44600002 24406.93145489  1800.13331477
0.44700002 24501.71192860  1975.81814356
0.44800002 24595.19990849  1822.13547157
0.44900002 24688.86816097  2333.09815178
0.45000002 24782.37394116  1844.18044423
0.45100002 24874.25639633  2192.41706268
0.45200002 24966.06465347  1696.44417360
0.45300002 25056.75146325  2047.63782662
0.45400002 25146.67122481  2231.13851016
0.45500002 25236.12984204  2416.61190820
0.45600002 25323.91525954  1909.54992065
0.45700002 25410.97361643  1920.30736720
0.45800002 25496.39659022  2282.05508496
0.45900002 25580.54558846  2294.57504803
0.46000002 25663.81833685  2129.58374652
0.46100002 25744.74207701  2497.75499469
0.46200002 25824.81229179  2331.59328827
0.46300002 25903.10661143  2523.99882784
0.46400002 25979.15827100  2174.45565034
0.46500002 26054.62759654  2003.34041085
0.46600002 26127.13366394  2928.32927985
0.46700002 26197.88688238  2574.72844483
0.46800002 26267.34186054  2032.69834622
0.46900002 26334.04095260  1856.54997515
0.47000002 26398.84604610  2238.09427387
0.47100002 26461.77068056  2248.19214358
0.47200002 26522.54797650  2069.95235494
0.47300002 26580.94559050  2078.89585317
0.47400002 26636.47828134  2087.63408425
0.47500002 26690.20328993  2286.81672627
0.47600002 26742.11802712  3061.43781685
0.47700002 26790.46533145  2305.05174637
