# SAXS profile: number of points = 501, q_min = 0, q_max = 0.5, delta_q = 0.001
#    q    intensity    error
0.00000000 1664650.74656090 249.69761198
0.00100000 1664569.01956844 549.30778950
0.00200000 1664323.77492861 748.94572243
0.00300000 1663915.24164459 1198.01901666
0.00400000 1663343.28812182 1497.00901619
0.00500000 1662608.42136309 1795.61716614
0.00600000 1661710.55523380 1919.27576943
0.00700000 1660650.22333008 1992.78035082
0.00800000 1659427.30945917 2688.27235482
0.00900000 1658042.95239701 3233.18389539
0.01000000 1656496.65228755 3279.86351315
0.01100000 1654789.57039626 3276.48349204
0.01200000 1652921.67904351 4512.47638163
0.01300000 1650894.16904065 3813.56569868
0.01400000 1648707.01338322 4080.55003902
0.01500000 1646361.68754189 5531.77551646
0.01600000 1643857.55580804 6706.93912752
0.01700000 1641196.85528044 7089.97073286
0.01800000 1638379.61018913 6070.19672889
0.01900000 1635406.34747463 5887.46311657
0.02000000 1632278.44440677 5141.67733247
0.02100000 1628997.80167777 5375.69298926
0.02200000 1625562.87117431 6729.83059241
0.02300000 1621977.19184808 7006.94178773
0.02400000 1618239.88420141 10923.11971643
0.02500000 1614353.82703291 8814.37229816
0.02600000 1610318.90143954 9130.50858878
0.02700000 1606137.24402238 8769.50975402
0.02800000 1601808.69258928 7664.65494554
0.02900000 1597335.77939570 9344.41473851
0.03000000 1592719.89094920 7406.14783334
0.03100000 1587961.23295610 11433.32140337
0.03200000 1583061.44780417 10970.61633857
0.03300000 1578024.39053044 11267.09466781
0.03400000 1572847.91514348 9908.94232261
0.03500000 1567535.54613734 11850.56927603
0.03600000 1562088.26287178 13004.38538939
0.03700000 1556508.10489911 9759.30626906
0.03800000 1550796.48202831 9979.37582369
0.03900000 1544955.48391140 9269.73333275
0.04000000 1538984.88500999 13250.66047396
0.04100000 1532888.89323524 13520.08066521
0.04200000 1526668.13946186 10831.71095200
0.04300000 1520323.63105234 11037.55007378
0.04400000 1513858.93000043 10218.54825207
0.04500000 1507275.32345488 12480.24025810
0.04600000 1500572.77544186 11636.94241452
0.04700000 1493755.66701865 12906.04956327
0.04800000 1486824.58545801 13113.79345390
0.04900000 1479782.58025060 12208.20685533
0.05000000 1472629.96663951 13518.74372327
0.05100000 1465371.15945912 18287.83292197
0.05200000 1458004.42945261 13909.36290517
0.05300000 1450535.83949593 12924.27493241
0.05400000 1442965.22336488 14285.35637749
0.05500000 1435295.24152280 14467.77670946
0.05600000 1427526.65688691 13425.88883453
0.05700000 1419665.29941070 16056.41528582
0.05800000 1411709.49129410 22488.53324636
0.05900000 1403661.87866886 18949.43624708
0.06000000 1395526.59585394 14045.97584348
0.06100000 1387304.86511092 15482.32301815
0.06200000 1378998.65876834 14334.69172795
0.06300000 1370611.42762480 15789.44438448
0.06400000 1362141.90453474 15937.06102838
0.06500000 1353595.70774636 14740.65794689
0.06600000 1344974.50749142 16220.39331927
0.06700000 1336279.52676938 17719.06735420
0.06800000 1327513.90394806 13739.76954901
0.06900000 1318680.51179200 13846.14602208
0.07000000 1309779.71896321 19528.81652425
0.07100000 1300814.95043752 22478.08339638
0.07200000 1291788.49532533 16974.10162376
0.07300000 1282702.83996330 19933.20306701
0.07400000 1273560.68416675 17193.07004199
0.07500000 1264363.35450602 18737.86579207
0.07600000 1255112.12811720 24644.12779091
0.07700000 1245812.30350098 20406.40648817
0.07800000 1236464.12145439 16117.31057900
0.07900000 1227069.38348655 19142.28328023
0.08000000 1217632.64990672 20711.93234653
0.08100000 1208154.60796662 19318.39308777
0.08200000 1198637.16857989 16415.33679399
0.08300000 1189083.52896541 17978.94380174
0.08400000 1179495.64895396 22557.85534508
0.08500000 1169875.76882151 18109.67775152
0.08600000 1160226.02923300 19683.23551010
0.08700000 1150549.73251236 16705.98290055
0.08800000 1140846.94595940 18276.36893260
0.08900000 1131122.58181539 24432.24891479
0.09000000 1121376.79288002 22960.19091278
0.09100000 1111612.12193402 18408.29760407
0.09200000 1101830.44311956 16907.58894410
0.09300000 1092037.25319731 21556.81639112
0.09400000 1082228.95214329 20048.29228067
0.09500000 1072411.16074042 16986.99358456
0.09600000 1062585.28085394 17006.67821951
0.09700000 1052755.78204720 20118.16394073
0.09800000 1042922.24944616 23231.09419869
0.09900000 1033087.88077841 18595.58272842
0.10000000 1023252.70196939 17052.50708025
0.10100000 1013420.04614702 17055.86017882
0.10200000 1003592.20011886 20157.15028751
0.10300000 993770.57460004 17053.10386233
0.10400000 983958.48257950 15497.34682970
0.10500000 974158.20974582 15489.11626371
0.10600001 964367.05383401 23217.13791350
0.10700001 954592.66325678 24743.04299597
0.10800001 944833.47559329 18537.63366355
0.10900001 935093.45545549 16971.94701531
0.11000001 925372.36081623 21570.43074594
0.11100001 915673.34685168 19998.30683663
0.11200001 905997.76390365 16892.32910323
0.11300001 896347.03894624 15327.53508761
0.11400001 886723.89394426 27532.77820333
0.11500001 877129.78664468 30524.11801255
0.11600001 867565.73212445 16748.35724737
0.11700001 858034.58379000 19743.37670282
0.11800001 848535.27340165 19690.26194666
0.11900001 839071.19496810 21144.59510914
0.12000001 829642.88414606 16563.82096221
0.12100001 820255.24278565 16511.73881511
0.12200001 810906.52307208 17953.47126663
0.12300001 801599.16919070 23855.59239906
0.12400001 792333.65875701 19313.13384219
0.12500001 783111.42950901 16280.88738666
0.12600001 773936.54425445 16217.84104909
0.12700001 764807.30169910 20558.02123850
0.12800001 755725.73074399 16085.62293699
0.12900001 746694.08153317 21840.80291425
0.13000001 737713.19046605 20294.49082630
0.13100001 728783.12589949 17315.88788760
0.13200001 719906.20037507 18670.76818687
0.13300001 711083.62544113 17151.33785421
0.13400001 702315.48519695 15644.07817031
0.13500001 693604.09037594 14149.52411079
0.13600001 684949.77576893 19706.00597803
0.13700001 676354.04058502 15400.58223031
0.13800001 667815.90687419 18101.15100940
0.13900001 659339.44406151 16615.35477390
0.14000001 650922.85803606 19273.82673541
0.14100001 642569.50395533 20530.09661963
0.14200001 634278.30642745 13605.27031457
0.14300001 626051.58424329 20284.07228623
0.14400001 617886.26490349 14782.92958513
0.14500001 609788.65119306 13354.37209108
0.14600001 601756.24459684 19903.08872896
0.14700001 593791.34209095 15818.60209957
0.14800001 585891.10590697 18332.53356873
0.14900001 578059.88223305 19509.52194584
0.15000001 570296.65430007 16792.38577818
0.15100001 562602.15085393 12827.32964473
0.15200001 554978.12986372 16557.77328580
0.15300001 547423.65881270 17703.68196142
0.15400001 539937.75829420 16319.61951458
0.15500001 532524.33675793 16199.39108867
0.15600001 525180.21405404 14841.59354961
0.15700001 517910.29168419 13501.92194145
0.15800001 510709.16692712 15834.53846795
0.15900001 503582.42550025 13294.57666072
0.16000001 496525.41912359 15588.41626920
0.16100001 489543.54327944 16654.27212852
0.16200001 482634.05816720 17700.60491886
0.16300001 475796.76605300 15215.98129669
0.16400001 469033.29657507 11608.57463827
0.16500001 462342.44676405 16117.25845511
0.16600001 455725.45563524 12557.51552291
0.16700001 449181.08073971 12451.30014599
0.16800001 442710.47453438 12344.98216528
0.16900001 436314.50922164 12238.62256155
0.17000001 429990.33637087 18749.72950281
0.17100001 423740.67820280 12025.76101527
0.17200001 417564.07237345 11919.36700877
0.17300001 411460.69639022 10739.12468293
0.17400001 405431.60745447 11706.83821812
0.17500001 399474.19830118 13709.95513318
0.17600001 393588.82525245 10449.78380399
0.17700001 387779.05444804 13459.81161561
0.17800001 382039.94917937 12309.32774395
0.17900001 376372.92715767 12194.48341590
0.18000001 370779.30560274 15099.98793392
0.18100001 365258.05971161 10968.70005126
0.18200001 359806.05179988 11852.01190615
0.18300001 354426.07643003 12716.80822304
0.18400001 349117.26810695 13563.20650669
0.18500001 343879.32796805 16310.19729605
0.18600001 338711.77738132 9500.86580440
0.18700001 333613.40557273 10348.68832979
0.18800001 328583.10031750 9315.33133411
0.18900001 323625.33049570 10145.65459040
0.19000001 318731.97126343 10044.83854897
0.19100001 313909.80933150 9944.66322951
0.19200001 309153.64375110 8949.99840949
0.19300001 304466.51123657 11517.96866433
0.19400001 299844.23776381 10524.53324283
0.19500001 295289.23959999 9549.65445993
0.19600001 290798.74555137 8593.10333712
0.19700001 286375.28672905 11056.95034313
0.19800001 282015.18427062 10101.78437797
0.19900001 277719.69690498 11664.22782126
0.20000001 273486.26578733 8245.61130319
0.20100001 269317.51452257 9792.38529085
0.20200001 265209.65173986 8075.63427716
0.20300001 261164.36992574 11188.28213643
0.20400001 257180.54438535 11862.45317046
0.20500001 253256.37006625 7825.62220494
0.20600001 249391.92394631 8517.98156501
0.20700001 245587.23421141 9961.01869046
0.20800001 241840.63299924 8339.87462321
0.20900001 238154.43046914 12753.17035448
0.21000001 234522.56385131 8907.16739614
0.21100001 230948.86504694 8813.00910681
0.21200001 227430.18729785 9446.31327599
0.21300001 223966.90978546 11502.94103039
0.21400001 220558.58240887 9246.91900465
0.21500001 217205.32138687 8444.94329478
0.21600001 213903.77603210 9051.33871073
0.21700001 210655.71410401 11021.50748301
0.21800001 207459.52063652 7496.55013264
0.21900001 204314.04632146 6742.36384740
0.22000001 201218.37485892 8004.46733036
0.22100001 198174.37736628 7919.04849400
0.22200001 195178.81355775 8487.35110888
0.22300001 192231.37548369 7750.76942600
0.22400001 189331.32232773 10223.89188915
0.22500001 186480.36150682 8218.18992022
0.22600001 183674.08084480 10631.97467247
0.22700001 180914.43910111 9899.63857576
0.22800001 178199.34860210 7957.49228814
0.22900001 175527.95122178 7872.42898459
0.23000001 172900.88138610 5991.01582335
0.23100001 170317.99867587 8297.89328792
0.23200001 167775.67142026 7036.51199215
0.23300001 165276.01349115 5801.18834790
0.23400001 162816.54968739 5739.28364792
0.23500001 160397.19339774 7949.28528076
0.23600001 158017.67486354 7302.78718922
0.23700001 155677.51450729 7224.99379001
0.23800001 153375.19580725 7148.05133869
0.23900001 151110.77696290 7071.98469637
0.24000001 148882.65142114 5920.31891379
0.24100001 146692.14752589 6922.40276918
0.24200001 144537.43135851 6848.90650889
0.24300001 142417.02072696 5212.46320517
0.24400001 140331.30142760 8251.48091427
0.24500001 138278.96661830 5612.74352054
0.24600001 136260.19907762 5048.44061464
0.24700001 134274.63359171 6993.02324827
0.24800001 132320.65315173 6919.04728062
0.24900001 130397.13061527 5378.88189234
0.25000001 128505.84965403 5805.89456204
0.25100001 126644.00650038 5744.57240663
0.25200001 124813.65770823 5210.34638753
0.25300001 123010.83644304 5624.05570825
0.25400001 121237.93036467 5564.82126702
0.25500001 119491.32911656 5047.31398068
0.25600001 117773.74563414 4540.17810900
0.25700001 116082.18977207 4492.38095673
0.25800001 114417.33287411 5334.13631097
0.25900001 112779.31294747 4838.23275437
0.26000001 111165.93563396 5222.57590319
0.26100001 109577.10629215 6890.20876967
0.26200001 108014.29581176 4261.16417140
0.26300001 106473.91422598 4638.00392314
0.26400001 104958.12689487 5423.71146393
0.26500001 103465.43140867 4953.92509026
0.26600001 101994.85958587 6127.34147956
0.26700001 100546.89097096 4041.98520830
0.26800001 99120.97213124  5199.39083918
0.26900001 97715.68092438  5144.73084412
0.27000001 96332.10502467  3915.90025456
0.27100001 94968.55072582  4262.18875827
0.27200001 93625.92909309  4217.38017558
0.27300001 92302.77183072  6449.19497301
0.27400001 90997.88339358  4504.39544115
0.27500001 89713.83235674  5199.81396948
0.27600001 88446.35574092  4777.43013144
0.27700001 87199.11606959  3999.82364341
0.27800001 85968.70641089  3597.79053357
0.27900001 84756.43621346  6407.58688099
0.28000001 83560.97529385  4930.93338546
0.28100001 82382.89431760  3484.79659457
0.28200001 81221.87135859  3792.65546259
0.28300001 80077.01003663  4093.53694682
0.28400001 78947.57702812  4050.01089323
0.28500001 77834.48165229  3673.00936302
0.28600001 76736.83588351  4624.92931761
0.28700001 75655.17903337  3921.96466673
0.28800001 74586.85836348  3880.00855572
0.28900001 73535.10889862  3198.77738850
0.29000001 72497.02231134  3797.39420841
0.29100001 71473.80270820  3443.60797748
0.29200001 70464.18590925  3406.59122904
0.29300001 69468.83511471  3369.93335093
0.29400001 68486.21445189  3939.66967283
0.29500001 67518.51517536  3597.38665883
0.29600001 66562.60962523  3261.90083909
0.29700001 65620.22059581  2933.22399949
0.29800001 64691.03717075  3481.67178535
0.29900001 63774.78120687  4304.79793525
0.30000001 62870.02174909  2838.58161635
0.30100001 61978.69414206  3369.16197306
0.30200001 61098.58809578  3332.31715250
0.30300001 60231.23871845  3295.85353870
0.30400001 59375.52332699  4346.28851330
0.30500001 58532.11284075  3761.27374921
0.30600001 57698.93289370  2657.03598555
0.30700001 56878.29027412  3153.33256209
0.30800001 56068.63159601  3378.41555676
0.30900001 55270.47091232  2827.08472101
0.31000001 54483.22195682  3304.13515200
0.31100001 53706.60438777  4775.59148826
0.31200001 52941.80390706  2485.61781112
0.31300001 52186.95982950  3195.40770165
0.31400001 51444.21566306  2430.73930517
0.31500001 50710.54355358  2403.67987825
0.31600002 49988.80260155  3803.14828200
0.31700002 49276.57093512  2820.59105388
0.31800002 48574.58906505  2789.15303618
0.31900002 47883.51137970  2298.40865505
0.32000002 47202.76791593  2727.37605932
0.32100002 46531.75759220  3371.22599718
0.32200002 45871.78547754  2444.73692278
0.32300002 45220.13920159  2857.00853004
0.32400002 44579.72559357  2390.58789815
0.32500002 43948.78342479  2364.00517236
0.32600002 43327.93737213  2337.75897161
0.32700002 42716.86180782  2522.00364056
0.32800002 42116.55276598  2286.29717516
0.32900002 41523.77573703  3288.68319410
0.33000002 40942.15616219  2032.77814971
0.33100002 40369.04014148  2814.52961194
0.33200002 39807.06188135  2783.70796919
0.33300002 39253.72746866  2359.93420717
0.33400002 38710.60466600  1945.20797658
0.33500002 38176.48211037  2308.91374738
0.33600002 37651.20275882  2664.57574543
0.33700002 37135.57151626  2824.16034755
0.33800002 36629.97733194  2048.89787909
0.33900002 36132.80579693  2579.88245608
0.34000002 35645.13857967  2370.22360210
0.34100002 35166.65793156  2345.26452852
0.34200002 34698.19382650  1963.74437261
0.34300002 34238.09255155  2296.69135713
0.34400002 33787.88457403  2622.78466427
0.34500002 33346.23206793  1903.73647892
0.34600002 32914.33849401  2055.82967970
0.34700002 32490.34050607  2204.79461116
0.34800002 32076.19181361  2350.86420936
0.34900002 31670.55286430  1662.70410412
0.35000002 31274.16719607  2140.56047512
0.35100002 30887.42952706  1793.94199190
0.35200002 30507.84184339  1776.92933233
0.35300002 30138.52047484  1920.42661561
0.35400002 29777.13882554  1902.75926107
0.35500002 29425.16217951  2042.69485525
0.35600002 29081.20184288  1557.29843245
0.35700002 28745.96082320  1852.38980319
0.35800002 28419.60299134  1683.43526293
0.35900002 28102.38674656  1669.28185181
0.36000002 27793.31137635  1806.00945878
0.36100002 27492.10159414  1940.66754345
0.36200002 27200.86022410  2369.73905497
0.36300002 26916.56539952  1469.64454043
0.36400002 26641.25356572  2042.05218254
0.36500002 26373.34484545  1882.26571078
0.36600002 26114.73216773  2012.66250350
0.36700002 25863.56449709  1427.66882787
0.36800002 25621.46601041  1559.96303194
0.36900002 25387.09384603  1690.78053024
0.37000002 25160.15512021  1680.19523852
0.37100002 24941.22027073  1391.72015703
0.37200002 24730.70209630  1798.78770218
0.37300002 24527.77479043  1926.41152329
0.37400002 24332.41755993  1916.17797362
0.37500002 24144.97650396  1634.13208720
0.37600002 23965.26531432  1626.28298127
0.37700002 23792.79479855  2023.57729348
0.37800002 23627.85782536  1880.54129341
0.37900002 23471.11501661  1605.42434319
0.38000002 23320.92196070  1332.79075319
0.38100002 23177.27997278  1726.47566696
0.38200002 23042.07854714  1456.14422277
0.38300002 22913.01721713  1847.70579592
0.38400002 22791.40315954  1316.20359482
0.38500002 22676.12114222  1444.24222397
0.38600002 22568.70008940  1310.11310226
0.38700002 22467.04404898  1569.09843072
0.38800002 22372.09049565  1697.03500495
0.38900002 22283.70183540  1694.67560487
0.39000002 22202.29040618  1562.59727282
0.39100002 22126.40867576  1561.23947013
0.39200002 22057.43547245  1820.40023579
0.39300002 21993.96247874  1819.78054171
0.39400002 21937.83882450  1429.79871313
0.39500002 21886.41197901  2080.08469303
0.39600002 21841.01582809  1300.63255418
0.39700002 21800.81957798  1431.65988952
0.39800002 21767.40773316  2084.44706328
0.39900002 21738.43956905  1304.30643594
0.40000002 21715.32749327  1567.41241273
0.40100002 21697.22838973  1570.01152067
0.40200002 21684.71194106  1441.92498884
0.40300002 21676.89949751  1707.70622332
0.40400002 21674.23571142  1448.38087004
0.40500002 21675.78855534  1584.06670268
0.40600002 21683.24301262  1853.26686810
0.40700002 21694.47987284  1460.47245424
0.40800002 21710.18140382  1731.49559990
0.40900002 21729.86669496  2138.21898410
0.41000002 21754.58687135  1341.17034417
0.41100002 21783.07536632  2019.29118214
0.41200002 21814.70591891  1486.56320528
0.41300002 21851.71974693  1899.78860482
0.41400002 21891.55502645  1771.57417446
0.41500002 21935.08734499  2463.74912733
0.41600002 21981.24870531  2337.37619183
0.41700002 22032.19248561  1381.41853430
0.41800002 22086.66901282  2082.22081985
0.41900002 22142.48224625  1673.97173714
0.42000002 22202.00037683  1402.05639023
0.42100002 22265.04759409  1691.25309539
0.42200002 22330.51347351  1700.24537644
0.42300002 22398.20253598  1994.33604831
0.42400002 22468.41370107  2005.30601784
0.42500002 22541.62554576  1872.53292282
0.42600002 22615.70549624  1738.24320681
0.42700002 22693.25654720  2039.66999511
0.42800002 22772.00851239  1611.91669893
0.42900002 22853.53624216  1621.45847322
0.43000002 22936.68268944  2075.99924860
0.43100002 23019.99778163  2237.54389041
0.43200002 23106.18109144  1650.82118631
0.43300002 23193.01465810  1660.85185837
0.43400002 23281.77726614  1519.13603860
0.43500002 23370.91657252  1986.99542116
0.43600002 23462.09334918  1999.32237950
0.43700002 23553.27601926  1547.45030780
0.43800002 23644.95297528  1712.72224993
0.43900002 23738.39553260  1566.73417940
0.44000002 23831.66691326  1891.75780922
0.44100002 23925.83338306  1903.53939417
0.44200002 24020.18096089  1596.14110049
0.44300002 24114.95216076  1927.26706802
0.44400002 24209.60801642  2100.78883518
0.44500002 24303.83477600  1788.51928593
0.44600002 24397.99506054  1963.06277560
0.44700002 24492.96017592  1975.11240219
0.44800002 24586.55447209  1821.49497439
0.44900002 24680.34668920  2665.47756876
0.45000002 24774.00131660  2011.15352219
0.45100002 24866.07684514  2023.10410800
0.45200002 24958.01815402  2035.07689673
0.45300002 25048.84962804  2217.57476267
0.45400002 25138.97386876  1715.73504786
0.45500002 25228.54781104  2415.88585288
0.45600002 25316.52460267  2256.08219689
0.45700002 25403.76031673  1919.76225812
0.45800002 25489.34597832  1754.94155378
0.45900002 25573.69357397  1941.04343426
0.46000002 25657.08640466  1774.18760897
0.46100002 25738.19204081  1962.02247226
0.46200002 25818.48721969  2510.33163135
0.46300002 25896.97068410  2162.91509405
0.46400002 25973.25934730  2536.28889547
0.46500002 26048.85975069  2002.89692116
0.46600002 26121.59190739  2378.76287979
0.46700002 26192.52677547  2941.94474686
0.46800002 26262.19512118  1847.54551434
0.46900002 26329.12943734  2041.82408464
0.47000002 26394.12892903  2051.21982694
0.47100002 26457.21468797  2435.12215530
0.47200002 26518.24135347  2445.91010717
0.47300002 26576.81198456  1889.61142166
0.47400002 26632.54251277  2846.35311596
0.47500002 26686.50780084  2286.50009675
0.47600002 26738.63593394  2678.40928845
0.47700002 26787.15746235  2112.70320919
