# SAXS profile: number of points = 501, q_min = 0, q_max = 0.5, delta_q = 0.001
#    q    intensity    error
0.00000000 1682732.95097188 302.89193117
0.00100000 1682650.71286060 908.63140652
0.00200000 1682403.93970817 832.78997653
0.00300000 1681992.85128608 1110.11532139
0.00400000 1681417.32311993 1387.16934428
0.00500000 1680677.85327904 1512.61012782
0.00600000 1679774.38957492 2292.89213512
0.00700000 1678707.44136825 2215.89391470
0.00800000 1677476.85444405 3623.35015858
0.00900000 1676083.84849513 3519.77623230
0.01000000 1674527.87918072 3868.15956793
0.01100000 1672810.08790994 3312.16411827
0.01200000 1670930.53773291 4235.80909887
0.01300000 1668890.29203457 5957.93860534
0.01400000 1666689.43815391 4875.06682272
0.01500000 1664329.38788602 5592.14699231
0.01600000 1661809.50532602 5508.89875642
0.01700000 1659132.11935825 6719.48538483
0.01800000 1656297.17419489 5664.53659064
0.01900000 1653305.19247087 6943.88212170
0.02000000 1650157.56130693 6237.59586390
0.02100000 1646856.25461373 5434.62588662
0.02200000 1643399.75103835 7937.62115814
0.02300000 1639791.31126940 7674.22368606
0.02400000 1636030.43452384 7362.13729105
0.02500000 1632119.81036056 8274.84781645
0.02600000 1628059.38695599 7912.36898250
0.02700000 1623851.09001639 10230.26233566
0.02800000 1619495.01211214 8453.76435091
0.02900000 1614993.76316896 8720.96672153
0.03000000 1610348.53868117 8236.93315397
0.03100000 1605559.51156931 8477.35461116
0.03200000 1600628.58249562 9507.73421793
0.03300000 1595559.27381468 8137.35267159
0.03400000 1590349.62622817 12524.00388441
0.03500000 1585003.23040329 10270.82140730
0.03600000 1579520.97928090 9642.97602415
0.03700000 1573904.97159824 11662.63637891
0.03800000 1568156.56860251 10091.08798597
0.03900000 1562277.80347944 12185.76743146
0.04000000 1556268.73181160 13399.47440182
0.04100000 1550133.29714678 10742.42424732
0.04200000 1543872.32686508 10953.77466728
0.04300000 1537486.61541438 10147.41213276
0.04400000 1530979.75444615 10334.11382245
0.04500000 1524353.28935572 10518.03818527
0.04600000 1517606.94664500 10699.12947122
0.04700000 1510745.21109268 10877.36602575
0.04800000 1503768.60602141 12157.96974537
0.04900000 1496680.53481355 16837.65680040
0.05000000 1489480.83127227 17091.79333475
0.05100000 1482174.08241531 13873.15005767
0.05200000 1474758.57964681 14069.19750547
0.05300000 1467240.62166833 14261.57950746
0.05400000 1459619.64419436 19266.98020186
0.05500000 1451898.44504306 15854.73175948
0.05600000 1444078.20113218 19754.99071334
0.05700000 1436164.26388918 13744.09264697
0.05800000 1428154.90050780 13903.08860561
0.05900000 1420053.26256955 14058.52795605
0.06000000 1411863.13868950 20669.67731608
0.06100000 1403585.87530299 16969.35402541
0.06200000 1395223.43017280 14503.34823458
0.06300000 1386779.01424661 15975.69499107
0.06400000 1378251.85723473 16125.54748379
0.06500000 1369647.37028443 20339.26440015
0.06600000 1360967.06819324 16413.26361036
0.06700000 1352212.43626676 13792.56749540
0.06800000 1343386.41468487 16684.86005139
0.06900000 1334491.84465730 16814.59802992
0.07000000 1325529.47269526 16940.26745433
0.07100000 1316502.24489464 14218.22491081
0.07200000 1307412.94133217 20042.64132956
0.07300000 1298263.57341825 15851.79897418
0.07400000 1289057.39741253 18852.46532066
0.07500000 1279795.21392833 18966.56595943
0.07600000 1270478.59961339 24945.84847289
0.07700000 1261112.83647252 17706.02505428
0.07800000 1251698.29515318 14832.62549316
0.07900000 1242236.43916864 17888.20556305
0.08000000 1232732.25047292 16475.46730045
0.08100000 1223185.95102081 19558.74427448
0.08200000 1213599.98790793 16620.25261431
0.08300000 1203977.12476790 19721.14622925
0.08400000 1194319.58824572 18273.09055787
0.08500000 1184629.50836683 19866.23778794
0.08600000 1174909.32359646 18399.08087139
0.08700000 1165161.95379688 16918.15236357
0.08800000 1155387.76719813 27763.96934967
0.08900000 1145591.33333628 17012.03209909
0.09000000 1135773.27306918 17053.63649624
0.09100000 1125935.57399489 23306.86747668
0.09200000 1116080.83746807 24910.92546277
0.09300000 1106213.85433468 17157.37768699
0.09400000 1096331.34483800 17184.99463799
0.09500000 1086439.20830295 20338.14293538
0.09600000 1076538.70823884 25061.82230590
0.09700000 1066634.02188733 18815.42503066
0.09800000 1056724.91185784 15692.36567891
0.09900000 1046814.89670202 18842.66902667
0.10000000 1036903.50635508 15709.08886003
0.10100000 1026994.27931054 21998.21849745
0.10200000 1017089.75820293 15714.03750337
0.10300000 1007191.08059721 17283.39975607
0.10400000 997301.62234879 18849.00154915
0.10500000 987423.59049106 17270.03941023
0.10600001 977554.56595847 20396.67697846
0.10700001 967702.23498399 23515.16541668
0.10800001 957864.57159593 18793.30377916
0.10900001 948045.79811331 21899.85896715
0.11000001 938246.23770512 15621.80059310
0.11100001 928468.22924834 17158.09368420
0.11200001 918713.47846635 18686.63303172
0.11300001 908983.37913348 21761.06312098
0.11400001 899280.53897056 18615.10803317
0.11500001 889606.84709201 17027.07585511
0.11600001 879962.89532903 20076.35440236
0.11700001 870351.78740858 18486.27283517
0.11800001 860772.32793326 18437.74413272
0.11900001 851227.87027418 18386.52286396
0.12000001 841719.23599035 15277.20485286
0.12100001 832251.31253500 21322.27963160
0.12200001 822821.94405180 19735.38525784
0.12300001 813434.11231749 16642.86272213
0.12400001 804087.77785220 19599.64050863
0.12500001 794784.84649569 18025.72116790
0.12600001 785529.26139580 22446.49970214
0.12700001 776319.21154937 17886.39547702
0.12800001 767156.67529323 17813.37883984
0.12900001 758044.27365764 16260.05043633
0.13000001 748982.56760105 19132.76059119
0.13100001 739971.19217519 17581.71635484
0.13200001 731013.71483416 20417.21401779
0.13300001 722110.33303103 21771.62756727
0.13400001 713261.31241800 21665.31338612
0.13500001 704469.24238115 22993.87715544
0.13600001 695734.21713312 15727.07271984
0.13700001 687057.82595809 15644.30743475
0.13800001 678438.93587293 22632.72396798
0.13900001 669882.31965930 18287.78818912
0.14000001 661385.17708010 15387.12687043
0.14100001 652951.54955136 16689.44239366
0.14200001 644579.99114599 15208.86560842
0.14300001 636273.44519540 16492.20847736
0.14400001 628027.94896096 21855.37365476
0.14500001 619850.87545585 23077.04918181
0.14600001 611738.51832204 13488.83496533
0.14700001 603694.11042510 18762.81383718
0.14800001 595714.79100794 14645.64882789
0.14900001 587804.29430994 22483.51531815
0.15000001 579961.96849217 18390.59488861
0.15100001 572188.77733836 18264.26663444
0.15200001 564486.06797401 15545.94704557
0.15300001 556853.41392149 15435.97736231
0.15400001 549289.17629372 14048.07134665
0.15500001 541797.81730254 17749.29733247
0.15600001 534375.78919015 13843.00547229
0.15700001 527028.46401056 18735.86277985
0.15800001 519750.02818767 14875.24650882
0.15900001 512546.09648587 18451.66034442
0.16000001 505412.47805228 17087.99668954
0.16100001 498354.00721812 14532.00353645
0.16200001 491368.07905773 14416.74012011
0.16300001 484454.91719290 15492.86898321
0.16400001 477615.66540045 14185.18593207
0.16500001 470849.32078360 16413.80809743
0.16600001 464157.62341530 15115.29372016
0.16700001 457538.11257451 11529.96098126
0.16800001 450992.93892997 14862.47300419
0.16900001 444522.97938382 12468.87016047
0.17000001 438125.01803988 19104.44231373
0.17100001 431801.84145840 15596.68324997
0.17200001 425551.75061567 15460.29582995
0.17300001 419375.78078227 12040.27923485
0.17400001 413273.96034605 14102.97456284
0.17500001 407244.41986266 12901.50383056
0.17600001 401287.24374766 13850.42987209
0.17700001 395406.02681325 11613.07555600
0.17800001 389595.78433424 13598.84149449
0.17900001 383857.98035078 16582.66553441
0.18000001 378194.16495349 15401.95809524
0.18100001 372602.74781978 14240.87769436
0.18200001 367081.27321143 11084.01956820
0.18300001 361632.23468314 10979.15516363
0.18400001 356254.42117948 11863.27278571
0.18500001 350948.07463786 10770.59691946
0.18600001 345712.49655190 12606.40678234
0.18700001 340546.38267834 14405.11266786
0.18800001 335448.88671300 12362.96930391
0.18900001 330424.32718973 11300.51252381
0.19000001 325464.73378011 13054.39108872
0.19100001 320576.48850552 12925.64462728
0.19200001 315754.73497754 11883.43001239
0.19300001 311002.73889357 12670.25218123
0.19400001 306315.69300839 9855.70788827
0.19500001 301696.54732839 9756.86680166
0.19600001 297142.15773317 12292.77164633
0.19700001 292655.33021456 11299.42283357
0.19800001 288232.32331593 8603.73525758
0.19900001 283874.21301986 10219.47215169
0.20000001 279578.85882189 9272.23329104
0.20100001 275348.42205979 9177.36334100
0.20200001 271179.55964097 9083.15977948
0.20300001 267073.59462410 8172.45238177
0.20400001 263029.44891748 8896.97153016
0.20500001 259045.48179110 8004.50576569
0.20600001 255121.77244688 7921.53140891
0.20700001 251258.10777437 8623.17866643
0.20800001 247453.14893353 9309.18790293
0.20900001 243708.90344137 11515.24623194
0.21000001 240019.55134849 9115.94299115
0.21100001 236388.81472400 9772.31406266
0.21200001 232813.59680387 11901.43163125
0.21300001 229294.20578687 8832.41322447
0.21400001 225830.18980088 12381.14074117
0.21500001 222421.85046883 9368.40878466
0.21600001 219065.71335380 7843.64823747
0.21700001 215763.18868982 10583.18490560
0.21800001 212513.34911317 7679.17023328
0.21900001 209314.45509641 11742.54148611
0.22000001 206165.97951691 8201.28305296
0.22100001 203069.54551463 10819.54589661
0.22200001 200022.19635413 10036.11417662
0.22300001 197023.31574919 10591.97395552
0.22400001 194072.23946655 7859.92607006
0.22500001 191170.89873253 8424.90190553
0.22600001 188314.57571584 7053.32276698
0.22700001 185505.28979792 8247.56557444
0.22800001 182741.06248151 7532.58695170
0.22900001 180021.03553484 8073.94382556
0.23000001 177345.98295955 6759.54246017
0.23100001 174715.30118329 7904.12059934
0.23200001 172125.67851448 7820.53057317
0.23300001 169579.37964316 7142.68380838
0.23400001 167073.32384990 6478.26843867
0.23500001 164608.19762991 6409.84351887
0.23600001 162183.41102703 9224.99285553
0.23700001 159798.08058314 6845.75009597
0.23800001 157451.35760198 5644.63143701
0.23900001 155142.84244451 5585.14259218
0.24000001 152871.07964373 6631.54774862
0.24100001 150637.56971522 7655.40165504
0.24200001 148440.04254765 7033.83174883
0.24300001 146277.41303795 6959.87964157
0.24400001 144149.75013714 6357.00428176
0.24500001 142055.98653709 6814.42599654
0.24600001 139996.17982178 6742.91632009
0.24700001 137970.19699342 6672.23904224
0.24800001 135976.20474903 6602.32493392
0.24900001 134012.86092811 5025.48252255
0.25000001 132082.42000950 5967.48401834
0.25100001 130181.78379073 5905.04599211
0.25200001 128313.13227530 5356.43196024
0.25300001 126472.16524518 6264.16664095
0.25400001 124661.76686015 5245.14408879
0.25500001 122877.88277265 4718.51092171
0.25600001 121123.73801531 4669.32032141
0.25700001 119395.85231340 5082.68167346
0.25800001 117695.02256941 7773.16813338
0.25900001 116021.60395867 5429.81132218
0.26000001 114372.96469132 4925.47195748
0.26100001 112749.65461812 7089.69861784
0.26200001 111152.35577353 4384.96064275
0.26300001 109578.11362285 5207.15220575
0.26400001 108028.69025681 4723.55470499
0.26500001 106502.80548836 5524.30078209
0.26600001 104999.43301046 5046.27298927
0.26700001 103519.16211475 4577.61756533
0.26800001 102061.26677107 4529.98954000
0.26900001 100624.22658493 4482.80950649
0.27000001 99209.26288077  4032.85672695
0.27100001 97814.84994253  4389.93067316
0.27200001 96441.53463845  4739.13723641
0.27300001 95088.30888726  5080.56858428
0.27400001 93753.40744062  5027.52671193
0.27500001 92439.80072077  4975.11031024
0.27600001 91143.26918015  5680.50452049
0.27700001 89867.23376528  3747.46382537
0.27800001 88608.28686252  4079.08267877
0.27900001 87367.79464734  3669.44754886
0.28000001 86144.51307587  3630.99139800
0.28100001 84938.87415480  4670.78891084
0.28200001 83750.64928162  4266.25827633
0.28300001 82578.96366910  6332.15523385
0.28400001 81422.98830308  3828.91620618
0.28500001 80283.70696090  4133.00542997
0.28600001 79160.08126556  3748.62582576
0.28700001 78052.82003662  4046.25838222
0.28800001 76959.07968341  5004.26439328
0.28900001 75882.35938777  3630.97106857
0.29000001 74819.44245203  4572.21634467
0.29100001 73771.81982495  3554.32644741
0.29200001 72737.93424271  3196.83236129
0.29300001 71718.76440947  3795.35719221
0.29400001 70712.57594909  4380.64428741
0.29500001 69721.41651160  4024.32035155
0.29600001 68742.51545752  3674.97505032
0.29700001 67777.28634647  3332.60932742
0.29800001 66825.50511825  3296.83645108
0.29900001 65887.03240657  3261.40825852
0.30000001 64960.14919382  3226.24596244
0.30100001 64047.09292888  2901.33344703
0.30200001 63145.39175724  3443.94982948
0.30300001 62256.85084001  3406.69503924
0.30400001 61379.98274865  4212.20151554
0.30500001 60515.79268636  3333.21001897
0.30600001 59662.00415304  4121.15313198
0.30700001 58820.91774052  3532.78448675
0.30800001 57991.11801897  3225.46613692
0.30900001 57173.06220152  3721.96652553
0.31000001 56366.18336293  3418.32735188
0.31100001 55570.04339545  3380.88160025
0.31200001 54785.93338047  2829.41966340
0.31300001 54011.94731326  3307.15169057
0.31400001 53250.31934495  3270.90102063
0.31500001 52497.92997267  2488.40199852
0.31600002 51757.69591161  2461.07855712
0.31700002 51027.15158891  3407.59334445
0.31800002 50306.99944585  3610.78505619
0.31900002 49597.99292136  2618.77415024
0.32000002 48899.58400460  3531.77262196
0.32100002 48210.91096942  3492.88066512
0.32200002 47533.55524585  2993.90111892
0.32300002 46864.78705261  3188.68026205
0.32400002 46207.35450423  2252.60863875
0.32500002 45559.34720845  2673.42262078
0.32600002 44921.78468918  3966.14455801
0.32700002 44294.19558480  3486.83924155
0.32800002 43677.43087928  2802.12571075
0.32900002 43068.47646118  2984.64556009
0.33000002 42470.62855245  4006.46693422
0.33100002 41881.56618942  2085.70209500
0.33200002 41303.73274707  3094.68232262
0.33300002 40734.69383204  2653.05073492
0.33400002 40175.94295634  2220.72535208
0.33500002 39626.39770180  2596.32170037
0.33600002 39085.87688825  2963.68675540
0.33700002 38555.00466060  2150.21271175
0.33800002 38034.40946542  2127.45479420
0.33900002 37522.32922342  1913.63888102
0.34000002 37019.79008200  1893.56235237
0.34100002 36526.73883035  2061.20396981
0.34200002 36043.64585929  2410.77936747
0.34300002 35568.99436339  2385.96825489
0.34400002 35104.40082340  1998.31811151
0.34500002 34648.57305168  1978.08712920
0.34600002 34202.57748258  1780.24424228
0.34700002 33764.45539466  2115.00558609
0.34800002 33336.43323647  2443.22730762
0.34900002 32916.87992307  2419.39078893
0.35000002 32506.80417415  2224.92831708
0.35100002 32106.32760049  1695.21417760
0.35200002 31713.26705769  1679.21757024
0.35300002 31330.38884149  1996.37247153
0.35400002 30955.58124102  1813.22325707
0.35500002 30590.23112051  1796.87026113
0.35600002 30233.11697846  2266.57688723
0.35700002 29884.76504962  3049.14272243
0.35800002 29545.28149359  1750.11483217
0.35900002 29215.08355108  1893.13750378
0.36000002 28893.09274405  2033.92936006
0.36100002 28579.10702179  2017.39926023
0.36200002 28275.03802800  1693.53348290
0.36300002 27978.08700893  1680.36398535
0.36400002 27690.13354356  1970.84534832
0.36500002 27409.66950805  1956.22820545
0.36600002 27138.51101351  2240.96265309
0.36700002 26874.93539010  1780.19580457
0.36800002 26620.50359069  1620.78943789
0.36900002 26373.76213069  1756.49264111
0.37000002 26134.54968445  1599.82653472
0.37100002 25903.38881007  1589.95008048
0.37200002 25680.76530819  1580.52277576
0.37300002 25465.78382301  2142.94581022
0.37400002 25258.37488209  1420.78365442
0.37500002 25058.92121934  1695.98786847
0.37600002 24867.30623937  1828.12010479
0.37700002 24683.00523592  1679.43175581
0.37800002 24506.15579589  1671.81002759
0.37900002 24337.68167045  1803.42229721
0.38000002 24175.72970819  1657.97162193
0.38100002 24020.38647367  2064.55231522
0.38200002 23873.59933449  1508.69218142
0.38300002 23733.02165903  1503.72432355
0.38400002 23599.82624189  1771.75703904
0.38500002 23473.03943354  1494.99795235
0.38600002 23354.12843601  1897.99010791
0.38700002 23241.08961898  1758.42092388
0.38800002 23134.73966538  1754.88576046
0.38900002 23035.05830721  2021.32646222
0.39000002 22942.31676893  1749.23702492
0.39100002 22855.19017405  2418.99344262
0.39200002 22775.09431771  1342.59187364
0.39300002 22700.47605647  1475.75801835
0.39400002 22633.24908767  1877.42810077
0.39500002 22570.70656261  1876.98004667
0.39600002 22514.23468698  1474.79501304
0.39700002 22463.04631984  1743.35710748
0.39800002 22418.71979658  2012.64066509
0.39900002 22378.81624951  1745.54775016
0.40000002 22344.85405846  2016.06455294
0.40100002 22315.82237666  1749.33739899
0.40200002 22292.47235855  2021.37002688
0.40300002 22274.01119919  1619.76617115
0.40400002 22260.49285006  1622.79000566
0.40500002 22251.43363041  2168.17979568
0.40600002 22248.22408049  1494.07955892
0.40700002 22248.84380233  1361.62930522
0.40800002 22253.92685237  1365.27847708
0.40900002 22263.16362256  1506.10309043
0.41000002 22277.41932857  1510.74326335
0.41100002 22295.49279057  1929.00612764
0.41200002 22316.70085057  2073.77952480
0.41300002 22343.34803675  1665.02637459
0.41400002 22372.85149003  1531.98107837
0.41500002 22406.02458130  1817.57680016
0.41600002 22441.91833776  1824.86467610
0.41700002 22482.57079045  2255.45160857
0.41800002 22527.03434807  1557.40659345
0.41900002 22572.66383535  1564.28567791
0.42000002 22622.07227148  2000.01750429
0.42100002 22675.17806368  1578.87272339
0.42200002 22730.56057542  1730.70496422
0.42300002 22788.34148559  2608.80945689
0.42400002 22848.62102060  1602.25962499
0.42500002 22911.95618079  1610.48147626
0.42600002 22976.27987804  2060.28311429
0.42700002 23043.99369018  1479.42446501
0.42800002 23113.02056100  1784.78753230
0.42900002 23184.89047992  1944.05315886
0.43000002 23258.46600668  1954.75786816
0.43100002 23332.15254351  2267.88533470
0.43200002 23408.79975461  2432.64258578
0.43300002 23486.16619061  2140.52928805
0.43400002 23565.45024658  2460.23312233
0.43500002 23645.24405587  2319.59855180
0.43600002 23727.09302683  2021.90432810
0.43700002 23808.99063641  1720.67583483
0.43800002 23891.48515251  1573.25437185
0.43900002 23975.73717394  2215.35821986
0.44000002 24059.88212041  1750.71740546
0.44100002 24144.99783831  2561.30149207
0.44200002 24230.32972844  1771.11603543
0.44300002 24316.11783609  2105.28958202
0.44400002 24401.88279730  2117.47348008
0.44500002 24487.28097528  2784.93859730
0.44600002 24572.65942790  1647.59689272
0.44700002 24658.91931739  1657.07945666
0.44800002 24743.78030917  1666.49368280
0.44900002 24829.07324310  2346.34753267
0.45000002 24914.19029420  2022.53406394
0.45100002 24997.79297824  1694.85044425
0.45200002 25081.38663009  1704.28030229
0.45300002 25163.83225623  1713.65705786
0.45400002 25245.66500967  2584.52507785
0.45500002 25327.08379375  1905.60987495
0.45600002 25406.90710398  2089.97227742
0.45700002 25486.05605953  2451.24898798
0.45800002 25563.68496460  2464.08371052
0.45900002 25639.98566400  2299.90682306
0.46000002 25715.60241643  1956.05739051
0.46100002 25788.84499892  3216.90067763
0.46200002 25861.39891965  2155.28908811
0.46300002 25932.25809614  1985.37377394
0.46400002 26000.90441987  2720.34475386
0.46500002 26069.08541865  2004.45207284
0.46600002 26134.37656501  2379.92711469
0.46700002 26197.88806736  2206.91019539
0.46800002 26260.32864435  2032.15562846
0.46900002 26319.98115262  1855.55875921
0.47000002 26377.82869599  2049.95305427
0.47100002 26433.93455360  2994.43624816
0.47200002 26487.96344055  1879.32109518
0.47300002 26539.64612481  2075.66582180
0.47400002 26588.58816366  3788.87399290
0.47500002 26635.74906903  3233.04737524
0.47600002 26681.24313235  2672.66025125
0.47700002 26723.23038685  2299.26685147
