# SAXS profile: number of points = 501, q_min = 0, q_max = 0.5, delta_q = 0.001
#    q    intensity    error
0.00000000 1682732.95097188 252.40994265
0.00100000 1682650.76388000 656.23381350
0.00200000 1682404.14200226 832.79007666
0.00300000 1681993.30822578 1211.03522506
0.00400000 1681418.13100391 1765.48910464
0.00500000 1680679.12086075 1966.39464924
0.00600000 1679776.20614531 2116.51810591
0.00700000 1678709.91210772 2014.45197825
0.00800000 1677480.08086541 2264.59820478
0.00900000 1676087.93597610 3519.78481601
0.01000000 1674532.90731766 4144.46912457
0.01100000 1672816.19526898 4215.49699562
0.01200000 1670937.75942749 3258.32877374
0.01300000 1668898.77248619 3855.15633447
0.01400000 1666699.27469830 4875.09559461
0.01500000 1664340.66427624 5592.18488098
0.01600000 1661822.30519244 4661.41177445
0.01700000 1659146.59284790 4927.66560181
0.01800000 1656313.33910445 8496.88781195
0.01900000 1653323.18175132 6447.96069978
0.02000000 1650177.54621206 6757.47735742
0.02100000 1646878.19667395 6521.63795451
0.02200000 1643423.71650256 6803.77449543
0.02300000 1639817.54195189 7084.01210368
0.02400000 1636058.92787857 6135.22125930
0.02500000 1632150.68588838 6365.38796568
0.02600000 1628092.70160504 7912.53089171
0.02700000 1623886.98762006 8866.42335850
0.02800000 1619533.56626332 7044.97133633
0.02900000 1615035.01653542 7994.42369891
0.03000000 1610392.58367644 7488.32585830
0.03100000 1605606.41509012 7706.91114705
0.03200000 1600678.42823516 13469.70959399
0.03300000 1595612.20356846 8951.38487468
0.03400000 1590405.66350628 8349.63011866
0.03500000 1585062.47085813 11127.13905925
0.03600000 1579583.50531158 12273.36440347
0.03700000 1573970.78417935 11663.12405016
0.03800000 1568225.82420251 10091.53364577
0.03900000 1562350.58732764 11248.92474970
0.04000000 1556345.04123088 10528.67469181
0.04100000 1550213.23625321 9766.34384123
0.04200000 1543955.90780714 10954.36767410
0.04300000 1537574.07929779 11162.78833386
0.04400000 1531070.98298134 13435.14849962
0.04500000 1524448.42457164 13674.30300378
0.04600000 1517706.03370097 16049.74205249
0.04700000 1510848.27737601 10878.10810303
0.04800000 1503875.78226433 12158.83626533
0.04900000 1496791.75992418 14593.72033856
0.05000000 1489596.22834009 14814.03518067
0.05100000 1482293.75636647 11561.89183826
0.05200000 1474882.51537219 11725.31654362
0.05300000 1467368.80130793 14262.82541362
0.05400000 1459752.26287075 12042.95673029
0.05500000 1452035.42059514 17075.93734278
0.05600000 1444219.66960125 12348.07875130
0.05700000 1436310.25297927 13745.48976263
0.05800000 1428305.37202921 20224.80501228
0.05900000 1420208.35068917 23007.37635574
0.06000000 1412022.91454416 15504.01232602
0.06100000 1403750.21249171 16971.34086212
0.06200000 1395392.34297601 21098.33321201
0.06300000 1386952.73793664 15977.69628807
0.06400000 1378430.20708714 13439.69514763
0.06500000 1369830.58142704 17629.72040765
0.06600000 1361154.84812114 17783.48892277
0.06700000 1352405.14435104 15173.98642975
0.06800000 1343583.80208184 15296.70230273
0.06900000 1334694.14616501 19620.00486721
0.07000000 1325736.47955275 15531.00358525
0.07100000 1316714.22857612 21330.77150202
0.07200000 1307629.69133404 18614.10952815
0.07300000 1298485.30691144 17295.82509847
0.07400000 1289283.87015961 21756.66632855
0.07500000 1280026.69574011 14592.30501541
0.07600000 1270714.96204161 20547.46189949
0.07700000 1261354.02522668 17709.41134455
0.07800000 1251944.29777418 17802.64874923
0.07900000 1242487.28401612 25346.74178279
0.08000000 1232987.88676555 23969.28564315
0.08100000 1223446.57906563 16553.23299141
0.08200000 1213865.43847933 16623.88796005
0.08300000 1204247.37736454 21242.92473368
0.08400000 1194594.65358460 19800.40731257
0.08500000 1184909.32967184 18342.39728441
0.08600000 1175193.81531456 24538.04801587
0.08700000 1165451.37955450 18460.75071902
0.08800000 1155681.78655091 20056.85834754
0.08900000 1145889.94448566 24751.22396345
0.09000000 1136076.60257287 18608.93562431
0.09100000 1126243.65127169 17096.37942951
0.09200000 1116393.34358127 18688.42544966
0.09300000 1106530.94354225 20282.71314826
0.09400000 1096652.97345701 17190.03616683
0.09500000 1086765.34582825 17214.36388704
0.09600000 1076869.26370104 17235.29337573
0.09700000 1066968.90116979 20389.77665993
0.09800000 1057064.27109508 17267.14568020
0.09900000 1047158.49358736 18848.85377089
0.10000000 1037251.42773728 22000.10381691
0.10100000 1027346.30511999 15718.39920760
0.10200000 1017445.85110477 17291.49305285
0.10300000 1007551.30267024 17289.58116714
0.10400000 997665.96198572 20427.21153266
0.10500000 987791.92151677 18847.07074928
0.10600001 977926.85276002 21974.01741547
0.10700001 968078.29872571 17251.15609509
0.10800001 958244.48974295 17234.02795909
0.10900001 948429.43244720 17213.99500910
0.11000001 938633.49282146 18753.89806931
0.11100001 928859.01771547 17165.31545541
0.11200001 919107.67417266 15578.87581064
0.11300001 909381.23435937 23325.62975951
0.11400001 899681.60405569 20175.36092089
0.11500001 890011.28407368 17034.81677931
0.11600001 880370.55962798 21630.70566868
0.11700001 870762.62036083 16953.74901686
0.11800001 861186.08853958 15372.17240443
0.11900001 851644.84580198 16862.56874113
0.12000001 842138.83573649 19870.26676519
0.12100001 832673.78791051 16761.72414025
0.12200001 823246.85435391 18226.68621408
0.12300001 813861.87256196 15137.83154286
0.12400001 804518.02413632 15084.71366331
0.12500001 795217.45740518 16532.57171848
0.12600001 785964.22302058 19464.40490033
0.12700001 776756.45015008 16405.09700028
0.12800001 767596.22986416 14852.98774788
0.12900001 758485.71379258 14790.47211606
0.13000001 749425.85527619 19144.08437538
0.13100001 740416.58158826 17592.29880780
0.13200001 731460.73338923 14592.64231902
0.13300001 722559.14107391 14523.43942026
0.13400001 713711.52465248 23124.25448895
0.13500001 704921.02595015 21570.58441109
0.13600001 696187.28478303 14306.64937686
0.13700001 687512.08743020 17077.80105704
0.13800001 678894.37558564 15570.44323829
0.13900001 670338.76925303 16892.53778180
0.14000001 661842.62741935 20996.95834511
0.14100001 653409.76715741 13917.62869685
0.14200001 645038.92020223 17986.91113820
0.14300001 636732.94412039 15128.77546589
0.14400001 628487.97694605 15036.57555771
0.14500001 620311.25728204 17660.26232789
0.14600001 612199.20043661 14848.89230708
0.14700001 604154.97010799 17435.91325988
0.14800001 596175.63538279 17321.88390327
0.14900001 588265.05353458 22501.13935932
0.15000001 580422.47318814 17090.54052941
0.15100001 572649.11222892 16973.32048735
0.15200001 564946.01281154 12965.51160583
0.15300001 557312.71385533 15448.70915708
0.15400001 549747.82117725 17894.29242377
0.15500001 542255.73235574 17764.29863032
0.15600001 534832.86119807 12595.31447565
0.15700001 527484.58066775 16251.80069741
0.15800001 520204.98540803 14888.26738509
0.15900001 512999.95100183 17236.79916725
0.16000001 505864.90467464 17103.29323437
0.16100001 498805.06233189 14545.15630419
0.16200001 491817.54080895 13227.43338447
0.16300001 484902.74947921 14314.32984037
0.16400001 478061.75478890 14198.43478753
0.16500001 471293.39661387 21123.37103350
0.16600001 464599.78025360 17457.33756724
0.16700001 457978.20836694 17311.57709363
0.16800001 451430.75792826 11443.77025381
0.16900001 444958.41047986 13615.72800359
0.17000001 438558.02301854 12373.91520376
0.17100001 432232.31359033 12266.75363895
0.17200001 425979.45248975 14370.41750835
0.17300001 419800.71561042 15339.51887281
0.17400001 413696.09960218 11945.47544015
0.17500001 407663.53002335 13991.01301116
0.17600001 401703.21987561 11731.74309055
0.17700001 395818.79766963 10568.36239693
0.17800001 390005.16833386 13613.13104367
0.17900001 384263.96608026 12450.15308907
0.18000001 378596.59457068 16446.23684499
0.18100001 373001.65944999 11201.24036239
0.18200001 367476.29354378 13113.39215456
0.18300001 362023.54883862 9991.85041995
0.18400001 356641.80539272 9896.81056718
0.18500001 351331.43112910 12742.79160905
0.18600001 346091.80846007 10678.66325453
0.18700001 340921.41944166 11536.78137896
0.18800001 335819.50147941 11424.57998010
0.18900001 330790.48343408 12255.78799029
0.19000001 325826.38990169 12135.40446527
0.19100001 320933.60978629 12940.04375800
0.19200001 316107.17697135 14642.08512917
0.19300001 311350.32946837 10872.35401878
0.19400001 306658.40819022 9866.73474976
0.19500001 302034.32880979 9767.79065529
0.19600001 297474.94176437 10548.46193345
0.19700001 292982.98293684 8701.59500444
0.19800001 288554.66802095 12920.03587122
0.19900001 284191.38304658 8525.74189432
0.20000001 279890.67174536 10126.44498233
0.20100001 275654.83094341 10858.04430404
0.20200001 271480.34848401 11573.20780286
0.20300001 267368.77401911 9817.78184602
0.20400001 263318.93129862 9716.46902418
0.20500001 259329.28353798 10417.25781211
0.20600001 255399.78329176 8723.18001066
0.20700001 251530.28171773 11771.61774082
0.20800001 247719.31230605 8542.60088868
0.20900001 243969.12218319 9222.03325446
0.21000001 240273.68479778 10646.52747668
0.21100001 236636.90634921 7525.05397764
0.21200001 233055.49518103 12658.40981918
0.21300001 229529.80208839 8841.48839443
0.21400001 226059.55843826 8748.50532516
0.21500001 222644.76950443 9377.79813489
0.21600001 219282.25273023 9992.69272936
0.21700001 215973.42362961 7768.56441525
0.21800001 212717.07946537 7686.53202990
0.21900001 209511.61202742 7605.27187618
0.22000001 206356.56125800 12313.29659247
0.22100001 203253.54364160 8122.01198796
0.22200001 200199.57661647 8036.01138536
0.22300001 197194.05404679 8613.43668805
0.22400001 194236.23603833 7211.02060391
0.22500001 191328.09674190 9080.43190076
0.22600001 188464.96922972 8984.12550802
0.22700001 185648.92902337 7619.03240742
0.22800001 182877.85973319 6910.04025679
0.22900001 180151.03944318 9322.81673207
0.23000001 177469.04032223 6149.30253798
0.23100001 174831.46286042 6692.54871481
0.23200001 172235.01939562 6019.61421257
0.23300001 169681.76679647 5955.83029623
0.23400001 167168.80350203 6481.97066236
0.23500001 164696.79172812 6996.32004351
0.23600001 162264.98304217 6345.37246198
0.23700001 159872.64767091 7419.68992934
0.23800001 157518.95687387 9599.99328075
0.23900001 155203.57831031 6146.06199179
0.24000001 152924.80869296 6633.87851489
0.24100001 150684.28864520 6016.82393021
0.24200001 148479.80931414 7576.92502770
0.24300001 146310.31656731 6961.44519157
0.24400001 144175.68479665 5298.45666691
0.24500001 142075.06802996 6291.08430996
0.24600001 140008.36551903 7262.23426301
0.24700001 137975.47793147 6672.49442841
0.24800001 135974.57580635 6094.38077595
0.24900001 134004.34512568 5527.67949793
0.25000001 132067.05763665 6961.25493735
0.25100001 130159.62565359 5412.03749071
0.25200001 128284.18967346 6328.90079696
0.25300001 126436.49457089 6262.39987237
0.25400001 124619.33367878 5720.02768648
0.25500001 122828.79706243 5188.28863339
0.25600001 121067.99879659 6534.04020419
0.25700001 119333.56746822 6003.67206338
0.25800001 117626.11288222 7311.63952270
0.25900001 115946.14835305 5426.27999967
0.26000001 114290.97734352 5369.39036965
0.26100001 112661.21219072 4870.34443345
0.26200001 111057.50421324 4381.21874852
0.26300001 109476.97249859 4335.28831608
0.26400001 107921.18238518 5147.84064336
0.26500001 106389.05513063 5093.90820069
0.26600001 104879.53962375 5460.55348890
0.26700001 103393.05842579 5403.32148902
0.26800001 101929.04718271 5757.97214782
0.26900001 100486.03047177 4883.62131203
0.27000001 99065.12871393  4832.39720735
0.27100001 97664.79327627  5180.14088051
0.27200001 96285.76719859  4731.48282405
0.27300001 94926.66558781  4291.63475432
0.27400001 93586.10745956  3860.42711540
0.27500001 92266.86004397  4201.83300526
0.27600001 90964.74430741  5669.37795727
0.27700001 89683.24928396  5235.70834099
0.27800001 88418.88657540  4440.39669397
0.27900001 87173.03853786  3661.26779187
0.28000001 85944.50317147  3984.81707814
0.28100001 84733.70056878  3942.65927407
0.28200001 83540.32459753  4255.54433641
0.28300001 82363.65896710  4210.43044568
0.28400001 81202.71398204  5207.12428056
0.28500001 80058.58793665  4464.86766056
0.28600001 78930.24792719  3737.74206751
0.28700001 77818.28584427  4706.45015063
0.28800001 76719.99722100  3990.97444434
0.28900001 75638.84910571  4606.40612858
0.29000001 74571.48320526  4557.06355438
0.29100001 73519.52991439  3542.17111894
0.29200001 72481.48634679  4459.78606602
0.29300001 71458.15297020  4411.82657322
0.29400001 70447.89977869  4052.51562660
0.29500001 69452.93961927  3392.08173158
0.29600001 68470.18603708  3965.45101205
0.29700001 67501.11582384  4525.95003024
0.29800001 66545.75166929  3581.49252438
0.29900001 65603.74640176  3247.38560062
0.30000001 64673.42923343  4672.00874899
0.30100001 63756.99524881  3754.64962795
0.30200001 62852.14349987  3427.95606876
0.30300001 61960.36310785  3390.47122977
0.30400001 61080.48121178  3353.31857728
0.30500001 60213.43684580  3592.93594669
0.30600001 59356.77447378  3826.73143149
0.30700001 58513.04697946  2973.63318828
0.30800001 57680.68969590  2940.85010338
0.30900001 56860.15224788  3172.79664565
0.31000001 56050.85265893  3399.20412044
0.31100001 55252.43913448  3878.72141088
0.31200001 54466.06996683  3835.77315902
0.31300001 53690.11488311  2781.68498380
0.31400001 52926.53547894  3251.01259572
0.31500001 52172.26110996  3214.85488181
0.31600002 51430.31051521  3668.26707118
0.31700002 50698.13790715  2660.13142194
0.31800002 49976.49507803  2869.65048325
0.31900002 49266.03969490  3547.15502599
0.32000002 48566.36225294  2806.16454385
0.32100002 47876.48928590  4393.62562981
0.32200002 47198.06198823  3658.79393857
0.32300002 46528.28214670  2487.40208134
0.32400002 45870.04255414  2236.16468040
0.32500002 45221.30505441  2432.45411406
0.32600002 44583.01682243  2624.15649443
0.32700002 43954.96183892  2378.84264737
0.32800002 43337.77963214  2352.59147873
0.32900002 42728.47066095  3384.09503660
0.33000002 42130.44420352  2719.30964989
0.33100002 41541.25715350  3103.13205631
0.33200002 40963.42285507  2864.57229591
0.33300002 40394.50626679  2630.89431774
0.33400002 39835.90338680  2802.45593597
0.33500002 39286.82581107  2178.06172611
0.33600002 38746.68085779  2546.23825315
0.33700002 38216.35812813  2131.32639374
0.33800002 37696.29769841  2875.28524311
0.33900002 37184.96037556  2275.71968276
0.34000002 36683.30004063  2439.25615172
0.34100002 36191.16685872  2042.26764256
0.34200002 35709.12430970  2755.85179912
0.34300002 35235.62256939  1999.97403176
0.34400002 34772.28107173  1979.41219375
0.34500002 34317.74066664  1959.19990745
0.34600002 33873.20727933  1763.10052239
0.34700002 33436.65351930  1745.39339637
0.34800002 33010.26710864  1728.08756498
0.34900002 32592.41205000  2053.32205640
0.35000002 32184.10715047  2033.39198607
0.35100002 31785.59754162  2181.76351859
0.35200002 31394.46412874  2659.73912696
0.35300002 31013.71818521  2470.24277045
0.35400002 30641.08206933  1631.63769747
0.35500002 30278.01633278  1778.53076363
0.35600002 29923.26835509  1762.63020594
0.35700002 29577.32371083  2064.79306605
0.35800002 29240.41266309  1889.51555579
0.35900002 28912.78482176  2029.67759062
0.36000002 28593.49177332  1548.33765286
0.36100002 28282.29995594  1842.87475242
0.36200002 27981.09048492  1675.92749398
0.36300002 27686.98547278  1814.05137410
0.36400002 27402.01162726  2400.41633225
0.36500002 27124.64696969  1638.05750809
0.36600002 26856.65193195  1774.15051066
0.36700002 26596.29633459  1761.73875265
0.36800002 26345.14049383  1458.20359541
0.36900002 26101.76364021  1883.24233585
0.37000002 25865.98793317  1583.38652633
0.37100002 25638.34640127  1859.80573605
0.37200002 25419.23463121  1991.08874298
0.37300002 25207.90630823  1696.99633306
0.37400002 25004.15168088  1547.13195854
0.37500002 24808.48569192  1958.87812303
0.37600002 24620.57526618  1392.29359726
0.37700002 24440.16379519  1801.48455868
0.37800002 24267.27395465  1517.55404864
0.37900002 24102.71499385  1511.24030171
0.38000002 23944.82005584  1778.98049032
0.38100002 23793.56155321  2454.06805486
0.38200002 23650.84221982  1630.48913988
0.38300002 23514.43203498  1896.20388913
0.38400002 23385.43170047  1350.50874468
0.38500002 23262.86082221  1616.30364650
0.38600002 23148.25783252  1612.50771701
0.38700002 23039.51724044  1609.07996030
0.38800002 22937.52946847  2141.44785263
0.38900002 22842.26536514  1469.89984588
0.39000002 22753.91941869  1467.96918084
0.39100002 22671.22345606  1466.37480261
0.39200002 22595.70700965  1731.62208872
0.39300002 22525.56753319  1730.63943557
0.39400002 22462.88286008  1597.11104702
0.39500002 22404.94220343  1463.93899293
0.39600002 22353.03679472  1331.12340419
0.39700002 22306.50603215  2130.71755714
0.39800002 22266.79041110  1999.00120387
0.39900002 22231.56980273  1467.28367650
0.40000002 22202.23136023  1335.46427959
0.40100002 22177.84666421  1872.25390410
0.40200002 22159.23978901  1607.43133045
0.40300002 22145.47759473  1476.21760641
0.40400002 22136.74754300  1479.28822465
0.40500002 22132.38738786  1482.64870136
0.40600002 22133.88099209  1621.52819831
0.40700002 22139.16736637  1490.40881772
0.40800002 22149.06405055  1766.49868705
0.40900002 22163.03547719  1499.32942107
0.41000002 22181.98334746  1777.77513962
0.41100002 22204.85078227  1921.16378071
0.41200002 22230.71115555  1514.91188348
0.41300002 22262.16969808  2211.96928601
0.41400002 22296.30021940  1804.32818075
0.41500002 22334.22645902  1811.75253620
0.41600002 22374.83093955  1959.36403822
0.41700002 22420.15877810  1405.74402200
0.41800002 22469.25739130  2259.50863033
0.41900002 22519.55252710  1986.22462701
0.42000002 22573.57190969  1853.17747374
0.42100002 22631.32501575  1862.33182379
0.42200002 22691.29108756  1583.73873650
0.42300002 22753.61600154  2460.12107866
0.42400002 22818.44130903  1745.61084286
0.42500002 22886.30444290  1901.16540016
0.42600002 22955.12339671  2058.38601252
0.42700002 23027.29894760  2365.36425998
0.42800002 23100.75039240  1783.84002983
0.42900002 23176.99253080  1793.89930689
0.43000002 23254.91056755  1653.77304338
0.43100002 23332.98127937  2116.76816197
0.43200002 23413.89738549  2433.17233160
0.43300002 23495.51935453  1529.55838246
0.43400002 23579.07705755  2461.65576146
0.43500002 23663.03162461  2011.83104406
0.43600002 23749.04126592  1556.74972875
0.43700002 23835.00051100  2192.34345089
0.43800002 23921.52563570  2205.32555286
0.43900002 24009.82023532  1743.11303169
0.44000002 24097.88692477  1753.48282518
0.44100002 24186.92513918  1763.95253399
0.44200002 24276.16895946  1935.78180456
0.44300002 24365.75505298  1947.31123612
0.44400002 24455.32372820  1795.63222984
0.44500002 24544.38178193  2134.62498474
0.44600002 24633.44935852  2642.67657242
0.44700002 24723.34577870  2492.11337260
0.44800002 24811.76814799  2339.50172955
0.44900002 24900.49628707  2185.01865274
0.45000002 24989.07931083  1859.56242504
0.45100002 25076.05669656  2040.18806952
0.45200002 25162.95446179  1709.82283671
0.45300002 25248.62878091  2923.03389250
0.45400002 25333.71858887  1901.92901320
0.45500002 25418.32761136  1912.47506012
0.45600002 25501.18535816  2796.97014264
0.45700002 25583.35556885  2812.12257740
0.45800002 25663.89771659  1943.65538568
0.45900002 25743.13821992  2309.15960777
0.46000002 25821.55032538  1964.11631859
0.46100002 25897.57846254  1974.17249976
0.46200002 25972.80584237  2164.57374149
0.46300002 26046.30612950  2900.51678805
0.46400002 26117.52543968  1821.69748576
0.46500002 26188.17998470  2013.60925446
0.46600002 26255.91439591  2574.91764685
0.46700002 26321.82377776  2032.57132845
0.46800002 26386.54396860  2227.55214741
0.46900002 26448.45032639  2424.00058730
0.47000002 26508.41356591  3183.79316223
0.47100002 26566.58082476  2633.27961616
0.47200002 26622.62826881  2644.42579128
0.47300002 26676.24947959  2655.35399905
0.47400002 26727.02251389  1904.30044437
0.47500002 26776.00536670  2676.52962332
0.47600002 26823.22012255  2686.88208703
0.47700002 26866.83775671  2504.25806600
