# SAXS profile: number of points = 501, q_min = 0, q_max = 0.5, delta_q = 0.001
#    q    intensity    error
0.00000000 1682732.95097188 302.89193117
0.00100000 1682650.75011119 605.75428443
0.00200000 1682404.08276569 757.08186122
0.00300000 1681993.18156378 1110.11553938
0.00400000 1681417.90093680 2269.91425252
0.00500000 1680678.77509645 1512.61095746
0.00600000 1679775.69362215 2822.02328018
0.00700000 1678709.20844588 2417.34136063
0.00800000 1677479.16361805 2491.05666315
0.00900000 1676086.77431109 2765.54329583
0.01000000 1674531.47685912 2762.97705612
0.01100000 1672814.45752412 3011.06615464
0.01200000 1670935.70258829 3584.15723919
0.01300000 1668896.38700092 3504.68256728
0.01400000 1666696.50383787 4125.07402987
0.01500000 1664337.45504028 5592.17409795
0.01600000 1661818.68794973 4237.63784371
0.01700000 1659142.46499578 4479.68485644
0.01800000 1656308.70973744 8024.81605978
0.01900000 1653318.08748030 6447.94083212
0.02000000 1650171.83759245 5717.84567591
0.02100000 1646871.93535109 5978.14539636
0.02200000 1643416.88984242 6236.76738030
0.02300000 1639810.04528779 8264.64300444
0.02400000 1636050.76306476 6748.70970537
0.02500000 1632141.86244692 7001.88890968
0.02600000 1628083.12034407 9231.23171457
0.02700000 1623876.73350239 6820.28259309
0.02800000 1619522.54788561 7749.41574702
0.02900000 1615023.11712436 8721.12523290
0.03000000 1610379.84309614 8237.09327606
0.03100000 1605592.99750178 10018.90076541
0.03200000 1600664.08928990 8715.61636761
0.03300000 1595596.87098389 11392.56218403
0.03400000 1590389.52752281 10019.45448570
0.03500000 1585045.24379854 10271.09365411
0.03600000 1579565.48727496 9643.24774546
0.03700000 1573951.72844987 9868.67779378
0.03800000 1568205.71824242 10091.40426392
0.03900000 1562329.56775900 9373.97784066
0.04000000 1556322.88977920 12442.80208037
0.04100000 1550190.02641425 9766.19761923
0.04200000 1543931.58720752 12945.86695933
0.04300000 1537548.53403985 11162.60287527
0.04400000 1531044.38602567 11368.00509419
0.04500000 1524420.58309082 10518.50251207
0.04600000 1517677.04624350 14979.47314277
0.04700000 1510818.16600549 15229.04782161
0.04800000 1503844.24239230 15474.55797422
0.04900000 1496759.00468124 12348.26236340
0.05000000 1489562.26029936 13674.18218630
0.05100000 1482258.57117977 16186.26435130
0.05200000 1474845.94363272 12897.52837811
0.05300000 1467330.82872836 16639.53237348
0.05400000 1459712.91735031 12042.63212973
0.05500000 1451994.87269973 17075.46049951
0.05600000 1444177.76485812 14817.26455888
0.05700000 1436266.70161605 17493.72924226
0.05800000 1428260.53834574 15168.12762547
0.05900000 1420162.07862761 16615.89709600
0.06000000 1411975.15585178 12919.57327963
0.06100000 1403700.98111978 13054.41973446
0.06200000 1395341.65618778 13185.97926733
0.06300000 1386900.49440453 13314.24536880
0.06400000 1378376.29405642 16127.00339467
0.06500000 1369775.15804406 14916.85216888
0.06600000 1361098.10806976 15046.94028874
0.06700000 1352346.58775570 17932.11659284
0.06800000 1343523.86503142 25029.85077716
0.06900000 1334632.50287503 19619.09871081
0.07000000 1325673.39147664 15530.26450841
0.07100000 1316649.45719964 18485.75924491
0.07200000 1307563.11214513 15749.59842361
0.07300000 1298417.40804495 24501.13763782
0.07400000 1289214.15458534 15954.02591067
0.07500000 1279955.25456891 21887.23587904
0.07600000 1270641.79450432 20546.27878036
0.07700000 1261279.31112913 19184.05922179
0.07800000 1251867.75620497 19285.02368873
0.07900000 1242409.28939255 20872.47704079
0.08000000 1232908.04782427 14979.83348378
0.08100000 1223365.08150537 19561.60857107
0.08200000 1213782.19314303 18133.90681649
0.08300000 1204162.47541213 15172.44790227
0.08400000 1194508.02625665 16752.97585461
0.08500000 1184821.03873732 19869.44975240
0.08600000 1175103.68740421 18402.12460876
0.08700000 1165359.43091267 16921.01973142
0.08800000 1155587.98936625 21597.94053558
0.08900000 1145794.55205771 23202.34076898
0.09000000 1135979.26282999 15506.11766604
0.09100000 1126144.74334566 18648.95782595
0.09200000 1116292.76018140 18686.74168347
0.09300000 1106428.59436436 17160.70830501
0.09400000 1096548.89596967 23438.73375291
0.09500000 1086659.47362419 20342.26630239
0.09600000 1076761.66919170 17233.57132553
0.09700000 1066859.75508109 21955.97479178
0.09800000 1056953.32745884 21974.06071104
0.09900000 1047045.55241590 18846.82082971
0.10000000 1037136.80423167 20426.41031994
0.10100000 1027230.02407878 25146.59217214
0.10200000 1017327.86320486 20433.03109356
0.10300000 1007431.56886654 17287.52653497
0.10400000 997544.36206556 17282.45688584
0.10500000 987668.63032312 20415.11154930
0.10600001 977801.77387482 20401.83497188
0.10700001 967951.58064127 15680.81634429
0.10800001 958116.11450059 21931.27889304
0.10900001 948299.54785370 20341.02625883
0.11000001 938501.62383750 18751.26332689
0.11100001 928725.58235842 17162.84956990
0.11200001 918972.50534680 17134.24316882
0.11300001 909244.35681092 17102.88715683
0.11400001 899543.26359727 18620.54643320
0.11500001 889871.33402924 15483.76194121
0.11600001 880228.81904325 15448.01650168
0.11700001 870619.23625139 16950.95732812
0.11800001 861041.36972672 18443.50700820
0.11900001 851498.22533198 19925.05941127
0.12000001 841990.88317412 16810.34877442
0.12100001 832524.21149388 19805.75192445
0.12200001 823095.68515320 21260.56254912
0.12300001 813709.19368514 22702.48757343
0.12400001 804363.92101948 16590.00665271
0.12500001 795061.98064859 18032.00657079
0.12600001 785807.05838795 19460.51271802
0.12700001 776597.87813847 19383.88395183
0.12800001 767436.29887650 17819.87169975
0.12900001 758324.34410944 17744.79048851
0.13000001 749263.09211780 19139.92659031
0.13100001 740252.40136681 21985.49735694
0.13200001 731295.30766732 18966.14469842
0.13300001 722392.17518434 15972.09174630
0.13400001 713543.19064409 18784.02537929
0.13500001 704751.47964812 18690.01012147
0.13600001 696016.42032940 17163.76573461
0.13700001 687340.01949761 21341.90861174
0.13800001 678721.25796038 15566.47278537
0.13900001 670164.12613067 18295.48150615
0.14000001 661667.00816773 15393.68367100
0.14100001 653232.91443898 16696.63408052
0.14200001 644861.12705355 13832.27182770
0.14300001 636553.77996304 17874.43098446
0.14400001 628307.90977013 16398.83721853
0.14500001 620129.94939469 16297.01583886
0.14600001 612016.86851484 17543.46436358
0.14700001 603971.79155503 18771.44416710
0.14800001 595991.39570560 14652.44915471
0.14900001 588079.97808224 19847.70019671
0.15000001 580236.38001793 21027.76740400
0.15100001 572462.19220897 14357.35245805
0.15200001 564758.18206307 18145.68124593
0.15300001 557124.06830901 14156.52324376
0.15400001 549558.42038818 15332.68065239
0.15500001 542065.52277944 17758.06736431
0.15600001 534641.91101031 13849.89935837
0.15700001 527292.89944142 13746.52653723
0.15800001 520012.52668110 13642.52928139
0.15900001 512806.85006875 13538.10148082
0.16000001 505671.17966577 17096.74339151
0.16100001 498610.82508683 16962.74107017
0.16200001 491622.73806501 12020.17651311
0.16300001 484707.37944041 14308.56251656
0.16400001 477866.06379077 14192.62276461
0.16500001 471097.16126689 16422.44781709
0.16600001 464402.90674284 12796.62269947
0.16700001 457780.95084163 12689.68855647
0.16800001 451233.25645949 14870.39266875
0.16900001 444760.55448383 12475.53414234
0.17000001 438360.03742304 13492.72258900
0.17100001 432033.86254677 12261.12159806
0.17200001 425780.95226819 12153.91785644
0.17300001 419601.92798156 14237.09408875
0.17400001 413497.12778978 15196.02016392
0.17500001 407464.43465828 13984.18005791
0.17600001 401504.11345609 12791.92165886
0.17700001 395619.56873756 11619.34728261
0.17800001 389806.00799573 10466.29180903
0.17900001 384064.70666476 12443.69708370
0.18000001 378397.42745384 13355.53783283
0.18100001 372802.51466316 10177.50913105
0.18200001 367277.22554071 10081.76031733
0.18300001 361824.65563703 14979.54145100
0.18400001 356442.99139104 9891.29347837
0.18500001 351132.88210617 11755.92944829
0.18600001 345893.47858527 9702.31253269
0.18700001 340723.44103846 10569.24164035
0.18800001 335621.84753906 14272.31974091
0.18900001 330593.31214274 12248.48279360
0.19000001 325629.49214912 9329.28539087
0.19100001 320737.15881634 12932.12285452
0.19200001 315911.09252850 10974.75187301
0.19300001 311154.69192233 9960.06215907
0.19400001 306463.42593824 8964.05563228
0.19500001 301839.76677320 11536.31643122
0.19600001 297280.87427223 9663.11527486
0.19700001 292789.56195806 9565.43544121
0.19800001 288361.97693801 8607.60541838
0.19900001 283999.49950227 11927.97954281
0.20000001 279699.38872528 12649.40545293
0.20100001 275464.24498101 8346.56701740
0.20200001 271290.48649640 9912.95484510
0.20300001 267179.79115720 10628.41259458
0.20400001 263130.61556727 9709.52017336
0.20500001 259141.91258470 8808.23402509
0.20600001 255213.44104523 10301.69103473
0.20700001 251344.75976362 11762.93531296
0.20800001 247534.76716747 8536.23684928
0.20900001 243785.58138125 9215.09541182
0.21000001 240091.09235538 12158.21349162
0.21100001 236455.33090285 10526.99182944
0.21200001 232875.08684321 8928.43125166
0.21300001 229350.52798719 9570.79798537
0.21400001 225881.38522126 10927.01252667
0.21500001 222467.78877923 7928.75236694
0.21600001 219106.36387925 9271.48622589
0.21700001 215798.83603789 7762.28449928
0.21800001 212543.71507913 7680.26750751
0.21900001 209339.43952750 8980.66238035
0.22000001 206185.74826795 8202.06945391
0.22100001 203084.07561032 8115.24004511
0.22200001 200031.37119805 10036.57452444
0.22300001 197027.33783483 7282.13075071
0.22400001 194070.78983465 8514.85630663
0.22500001 191164.05556470 7776.55414810
0.22600001 188302.35057863 7694.03440848
0.22700001 185487.92610503 7612.42484734
0.22800001 182718.15172331 8786.91633191
0.22900001 179992.91756510 8693.65832953
0.23000001 177312.38418187 6758.26184270
0.23100001 174676.32789327 6078.73649817
0.23200001 172081.50128832 9622.79800714
0.23300001 169529.70346727 8330.69002238
0.23400001 167018.47260981 7064.88172553
0.23500001 164547.96543963 6407.49807727
0.23600001 162117.83433447 6915.94713981
0.23700001 159727.24316245 6272.48913566
0.23800001 157375.12288446 7334.46794894
0.23900001 155061.37301602 6698.65163114
0.24000001 152784.34035312 6075.46958151
0.24100001 150545.51291228 8743.68380353
0.24200001 148342.69200944 8651.34620722
0.24300001 146174.94887689 6955.00439655
0.24400001 144042.14185862 8469.67834193
0.24500001 141943.23176671 6809.01714995
0.24600001 139878.25711518 5700.73863840
0.24700001 137847.13192411 6666.28761520
0.24800001 135848.09891594 5581.31940800
0.24900001 133879.73575527 6024.58839400
0.25000001 131944.10429565 8445.08279496
0.25100001 130038.53644674 7373.18536535
0.25200001 128164.87811076 5350.24308985
0.25300001 126319.11016811 5294.03415761
0.25400001 124503.67485540 5238.49236738
0.25500001 122715.03392767 5654.70903092
0.25600001 120955.99912661 5129.13938564
0.25700001 119223.45694899 6459.52720312
0.25800001 117517.87558663 5478.68361907
0.25900001 115839.66942517 4517.74732134
0.26000001 114186.50549109 6705.60285224
0.26100001 112558.52054799 4865.90507353
0.26200001 110956.72390404 4377.24296513
0.26300001 109378.02989173 4764.50720753
0.26400001 107824.06184185 4286.00666102
0.26500001 106293.85617723 4665.23756837
0.26600001 104786.17288112 5455.69234922
0.26700001 103301.54099897 6229.08321700
0.26800001 101839.37349890 7807.51593875
0.26900001 100398.19827510 4879.35266707
0.27000001 98979.12856719  5230.55229665
0.27100001 97580.67774802  6370.06694484
0.27200001 96203.46873543  5515.34512361
0.27300001 94846.22007046  5457.45176112
0.27400001 93507.51528198  3857.18518792
0.27500001 92190.21967763  4580.01033034
0.27600001 90889.67332315  4531.75932636
0.27700001 89610.02960957  4484.08609388
0.27800001 88347.48004891  5176.27910104
0.27900001 87103.54913717  4024.18416059
0.28000001 85876.72296746  4343.64485327
0.28100001 84667.65005143  4297.73012002
0.28200001 83476.08931519  4252.27219097
0.28300001 82301.13097080  3856.63117983
0.28400001 81141.93791514  4856.34521408
0.28500001 79999.59909476  4118.37955633
0.28600001 78872.95046623  5432.76908526
0.28700001 77762.64343310  4031.21562638
0.28800001 76666.04480400  3988.16783948
0.28900001 75586.57248541  3288.01605875
0.29000001 74520.97360918  3903.40878241
0.29100001 73470.60775590  4827.01915805
0.29200001 72434.24354789  4138.53070101
0.29300001 71412.50086792  5353.79544349
0.29400001 70403.83828927  4361.51798848
0.29500001 69410.44020845  3390.00606025
0.29600001 68429.24862456  3658.22780464
0.29700001 67461.78550224  3015.54195470
0.29800001 66507.95260202  3877.74636003
0.29900001 65567.45123176  3540.64253413
0.30000001 64638.66822931  4377.65401307
0.30100001 63723.75617522  4330.02943709
0.30200001 62820.34730476  3140.70341218
0.30300001 61930.02504300  3388.81113078
0.30400001 61051.64571638  3631.04680088
0.30500001 60185.89430578  3591.29248325
0.30600001 59330.67052599  3825.04850990
0.30700001 58488.29848244  3242.59142138
0.30800001 57657.32735707  2672.41724952
0.30900001 56838.02340280  3964.45232004
0.31000001 56030.06998608  4443.46491062
0.31100001 55233.00891532  3101.88592754
0.31200001 54447.93158509  3834.49576343
0.31300001 53673.23708897  3792.01437987
0.31400001 52910.85774613  2750.04196156
0.31500001 52157.70387330  3461.18539291
0.31600002 51417.00279274  3178.34217812
0.31700002 50685.98580692  2659.49380121
0.31800002 49965.57940666  2869.02370537
0.31900002 49256.30954732  2600.73326724
0.32000002 48557.74515364  3740.88886377
0.32100002 47868.90312263  3468.10219545
0.32200002 47191.52688329  2743.71550291
0.32300002 46522.76853280  2487.10732353
0.32400002 45865.52941606  2459.53913140
0.32500002 45217.91198575  2432.27160089
0.32600002 44580.53395715  2405.34282356
0.32700002 43953.40547580  2378.75841699
0.32800002 43337.10908197  2352.55507792
0.32900002 42728.77339987  2961.10413683
0.33000002 42131.66467490  3556.12332528
0.33100002 41543.40947614  2275.74807887
0.33200002 40966.37717907  2864.77889179
0.33300002 40398.29680511  2428.74571894
0.33400002 39840.46561023  3603.57028509
0.33500002 39292.20072286  1980.32701021
0.33600002 38752.85035409  1958.95667817
0.33700002 38223.24379394  2131.71040734
0.33800002 37704.09064971  2875.87965050
0.33900002 37193.37076656  2655.60679850
0.34000002 36692.46227958  2064.50148793
0.34100002 36200.95751320  2042.82012922
0.34200002 35719.60796767  2389.10609206
0.34300002 35246.69731502  2364.34856787
0.34400002 34784.07163996  1980.08337188
0.34500002 34330.08635647  1781.73156628
0.34600002 33886.15344070  1940.15180713
0.34700002 33450.21013856  2095.32126232
0.34800002 33024.27871125  2074.58528690
0.34900002 32607.02108626  1883.05555692
0.35000002 32199.26498704  2034.34965823
0.35100002 31801.20996657  1679.10396576
0.35200002 31410.62944179  2328.47007080
0.35300002 31030.36751169  1977.25511149
0.35400002 30658.14937788  2122.31049120
0.35500002 30295.51541217  2264.89283949
0.35600002 29941.22106990  2244.69344993
0.35700002 29595.59100076  1748.21164322
0.35800002 29259.19619101  1575.60778951
0.35900002 28931.91715254  2187.25304033
0.36000002 28612.96519084  1549.39213847
0.36100002 28302.12465453  1690.48598569
0.36200002 28001.35680925  2134.54353068
0.36300002 27707.56659309  1512.83320764
0.36400002 27422.94701652  1801.68770433
0.36500002 27145.87790643  2086.43227472
0.36600002 26878.21079395  1627.61013172
0.36700002 26618.09477447  2203.97835172
0.36800002 26367.24511806  1605.36979506
0.36900002 26124.18340549  2029.84914676
0.37000002 25888.66696914  2016.98613911
0.37100002 25661.23856367  2004.65605155
0.37200002 25442.42339298  1708.20438752
0.37300002 25231.27633553  1557.02213642
0.37400002 25027.88491078  2815.63718584
0.37500002 24832.36094502  1400.54522364
0.37600002 24644.67706729  1811.75352043
0.37700002 24464.52838311  1387.13882503
0.37800002 24291.82627095  1657.18846671
0.37900002 24127.49061334  1512.79373312
0.38000002 23969.82094364  1643.85039819
0.38100002 23818.75019404  2047.22167616
0.38200002 23676.20960042  1632.23796718
0.38300002 23540.09850148  1898.27363309
0.38400002 23411.24915849  1487.19967325
0.38500002 23288.92187946  1348.42864070
0.38600002 23174.56924686  2017.92571277
0.38700002 23065.90387830  1342.43566932
0.38800002 22964.16904782  1875.94305839
0.38900002 22869.05270352  1739.19154050
0.39000002 22780.96936616  2004.15587494
0.39100002 22698.51473843  1468.14000284
0.39200002 22623.15062474  1600.36175101
0.39300002 22553.18887495  1999.34028849
0.39400002 22490.80123163  1599.09604333
0.39500002 22433.00929579  1599.02497836
0.39600002 22381.34224085  1599.37079231
0.39700002 22335.00079847  1600.07953301
0.39800002 22295.49789484  1601.26273467
0.39900002 22260.52846467  1335.63177116
0.40000002 22231.38851547  2139.54893210
0.40100002 22207.37835504  1606.92597391
0.40200002 22188.98141632  1609.58878820
0.40300002 22175.43906715  1343.83167114
0.40400002 22166.98022205  2423.95940213
0.40500002 22162.83967110  1754.63209990
0.40600002 22164.63913275  1759.09666812
0.40700002 22170.24646055  1628.18297721
0.40800002 22180.42579235  1768.99994289
0.40900002 22194.66327335  1364.97185599
0.41000002 22213.93696344  1780.33606229
0.41100002 22237.07709307  1649.10171536
0.41200002 22263.30212886  2068.81744835
0.41300002 22295.02103174  1661.42504601
0.41400002 22329.56471106  1668.01856295
0.41500002 22367.83858380  1535.32851314
0.41600002 22408.77197417  2242.67000544
0.41700002 22454.52183245  1830.26816129
0.41800002 22504.00194257  1555.81424802
0.41900002 22554.73344475  1563.04310178
0.42000002 22609.20103288  1713.32533546
0.42100002 22667.27328681  1721.80616045
0.42200002 22727.73653567  1442.07495152
0.42300002 22790.50879940  2319.16228532
0.42400002 22855.75791462  1602.76009971
0.42500002 22924.13645495  1464.85238888
0.42600002 22993.37429072  1619.99826242
0.42700002 23066.12858508  1925.09918293
0.42800002 23140.11785672  2680.31997836
0.42900002 23216.83486936  1497.48592003
0.43000002 23295.35205079  1656.64903960
0.43100002 23373.96546466  1969.02294405
0.43200002 23455.42070384  2589.83039974
0.43300002 23537.61757669  2298.44846528
0.43400002 23621.82115089  1695.45629345
0.43500002 23706.34105781  1860.47373438
0.43600002 23792.93772639  1871.55257025
0.43700002 23879.62128271  1568.89119262
0.43800002 23966.71340236  1736.02896757
0.43900002 24055.66856953  1905.20904099
0.44000002 24144.45699239  2395.73385860
0.44100002 24234.19697919  2088.74553662
0.44200002 24324.09952059  2262.87108564
0.44300002 24414.39552747  1951.19858302
0.44400002 24504.68563035  1799.25662768
0.44500002 24594.50713932  1974.44712672
0.44600002 24684.31474186  1655.08338188
0.44700002 24774.97721780  2830.29353149
0.44800002 24864.25169207  2009.52891699
0.44900002 24953.75175409  2358.12965252
0.45000002 25043.07991335  1863.58088007
0.45100002 25130.92414059  1874.26441123
0.45200002 25218.63937381  1884.96728933
0.45300002 25305.15835064  2240.26577496
0.45400002 25391.12185657  2079.53297861
0.45500002 25476.55811477  2439.63532069
0.45600002 25560.28546357  1927.37341673
0.45700002 25643.35136891  1761.69832254
0.45800002 25724.81979983  2302.50010531
0.45900002 25804.97297506  1780.54321967
0.46000002 25884.27460647  3042.82604558
0.46100002 25961.23925363  1979.02536210
0.46200002 26037.40033156  1808.29753873
0.46300002 26111.85167821  2544.33894811
0.46400002 26184.05071181  2008.97138608
0.46500002 26255.65397585  2752.90544984
0.46600002 26324.36601238  2581.63069719
0.46700002 26391.24495486  2408.46512873
0.46800002 26456.90390997  2605.74058959
0.46900002 26519.77123909  2617.50154536
0.47000002 26580.80766749  2065.72756579
0.47100002 26639.93141099  1886.10723329
0.47200002 26697.01804963  2462.39957652
0.47300002 26751.72371611  2282.45717564
0.47400002 26803.45235254  3055.59371302
0.47500002 26853.51880987  1917.34133390
0.47600002 26901.74240266  2117.30173616
0.47700002 26946.36470881  3091.28710592
