# SAXS profile: number of points = 501, q_min = 0, q_max = 0.5, delta_q = 0.001
#    q    intensity    error
0.00000000 1664650.74656090 274.66737318
0.00100000 1664568.99361553 499.37070994
0.00200000 1664323.66331174 1048.52394109
0.00300000 1663914.99207971 1098.18393389
0.00400000 1663342.83898696 1372.25789431
0.00500000 1662607.72587461 1645.98171377
0.00600000 1661709.54582005 1744.79509415
0.00700000 1660648.85815879 2789.89019766
0.00800000 1659425.51375893 4032.40416868
0.00900000 1658040.68539497 2984.47336129
0.01000000 1656493.85941894 2733.21498606
0.01100000 1654786.21259471 3276.47684359
0.01200000 1652917.68184610 4190.14650719
0.01300000 1650889.45762136 3813.55481530
0.01400000 1648701.58472760 4080.53660309
0.01500000 1646355.40928595 5531.75442152
0.01600000 1643850.44720743 5449.36447610
0.01700000 1641188.85852407 5317.45214015
0.01800000 1638370.62493906 4669.35649119
0.01900000 1635396.36867684 5887.42719289
0.02000000 1632267.40914327 5141.64257139
0.02100000 1628985.62199524 7525.91391483
0.02200000 1625549.50806383 7851.40448066
0.02300000 1621962.62088024 7006.87884114
0.02400000 1618224.02781424 7282.00845721
0.02500000 1614336.69138950 6925.50472235
0.02600000 1610300.37604069 7826.06018551
0.02700000 1606117.29613774 6745.69295274
0.02800000 1601787.29755686 9058.10758309
0.02900000 1597312.79195526 7906.69868321
0.03000000 1592695.33298941 8887.24036659
0.03100000 1587935.19379448 9908.71606521
0.03200000 1583033.68810515 10186.82225214
0.03300000 1577994.85524655 9657.32895932
0.03400000 1572816.72824175 10734.47466554
0.03500000 1567502.45350317 9310.96500377
0.03600000 1562053.45129568 10403.27646640
0.03700000 1556471.31081017 8871.88688192
0.03800000 1550757.77383019 10886.32007610
0.03900000 1544914.82557734 13904.23407410
0.04000000 1538942.25111134 10410.94481120
0.04100000 1532844.18021823 13519.68629639
0.04200000 1526621.34509344 11816.04975920
0.04300000 1520274.71829613 13043.95768845
0.04400000 1513807.82802857 11240.02364512
0.04500000 1507222.00195775 17679.71490445
0.04600000 1500517.25440900 14810.10598949
0.04700000 1493697.91830085 15056.47571672
0.04800000 1486764.37445382 16391.57799102
0.04900000 1479720.09930238 14427.27163975
0.05000000 1472565.12765855 12391.63612628
0.05100000 1465304.00136646 20572.86913755
0.05200000 1457934.79069886 17385.87318929
0.05300000 1450463.59846202 11748.75569524
0.05400000 1442890.57705645 13094.23259742
0.05500000 1435218.07168844 15672.58207395
0.05600000 1427447.03114649 15866.07449157
0.05700000 1419582.92463352 13585.40922289
0.05800000 1411624.57819439 14991.45372041
0.05900000 1403574.33659236 13895.38658126
0.06000000 1395436.49961128 19152.36685194
0.06100000 1387212.00050006 15481.28664904
0.06200000 1378903.04201230 14333.69779173
0.06300000 1370513.02887480 19735.38853853
0.06400000 1362040.70477392 14607.88724186
0.06500000 1353491.85078697 20099.35492439
0.06600000 1344867.90439047 14867.51537867
0.06700000 1336169.94711858 16354.72091812
0.06800000 1327401.64780243 16486.32923742
0.06900000 1318565.37878152 15229.43083795
0.07000000 1309661.74186828 15342.68802446
0.07100000 1300694.14061091 15452.24711421
0.07200000 1291664.72214514 19801.22111811
0.07300000 1282576.40460393 21354.89813725
0.07400000 1273431.23685886 20056.54292046
0.07500000 1264230.95633164 17294.68029326
0.07600000 1254976.89035199 18843.47889203
0.07700000 1245674.17957737 32063.65488574
0.07800000 1236323.02058697 23440.68556961
0.07900000 1226925.40065467 19140.03714795
0.08000000 1217485.66371820 16271.69665892
0.08100000 1208004.76164320 26745.22667762
0.08200000 1198484.38834670 16413.24446860
0.08300000 1188927.86093375 16478.54092591
0.08400000 1179337.03650423 15036.54792122
0.08500000 1169714.33695856 21125.04191719
0.08600000 1160061.55944475 19680.44528001
0.08700000 1150382.37685800 19740.56251385
0.08800000 1140676.55645347 22842.04911573
0.08900000 1130949.30974964 16794.59803862
0.09000000 1121200.59023924 19895.70540841
0.09100000 1111433.14575909 15337.77813206
0.09200000 1101648.56020611 15367.99813697
0.09300000 1091852.55093910 18474.14603003
0.09400000 1082041.28246714 16960.99789980
0.09500000 1072220.75737728 16983.97759515
0.09600000 1062392.13058746 23186.70934003
0.09700000 1052559.79377465 17019.89266549
0.09800000 1042723.44945478 17032.88834769
0.09900000 1032886.20111928 18591.95249439
0.10000000 1023048.39909141 18599.02077014
0.10100000 1013212.91052062 20152.80573808
0.10200000 1003382.45177948 18602.71153099
0.10300000 993558.06115592 20149.35842808
0.10400000 983743.25859089 18592.74846207
0.10500000 973940.30964167 18582.78198227
0.10600001 964146.56357978 15474.55307359
0.10700001 954369.53585553 18552.94465009
0.10800001 944607.92514871 20077.64239392
0.10900001 934865.46027827 20052.86506677
0.11000001 925141.69217171 15403.60989970
0.11100001 915440.16809104 16917.33510268
0.11200001 905762.09398713 16887.93503743
0.11300001 896109.09717130 22985.19942461
0.11400001 886483.55296374 15291.84200863
0.11500001 876887.07994497 24412.53745521
0.11600001 867320.74385663 22832.21965723
0.11700001 857787.24686144 24292.53597517
0.11800001 848285.84741795 21198.66432540
0.11900001 838819.49219491 15098.75157068
0.12000001 829389.07394796 16558.75364137
0.12100001 819999.39231706 21008.38542083
0.12200001 810648.33394745 14956.46246595
0.12300001 801339.06531356 16395.39804877
0.12400001 792071.54103495 16336.47630358
0.12500001 782847.43494588 19234.56238296
0.12600001 773670.55372751 16212.26721734
0.12700001 764539.47349248 14679.15858283
0.12800001 755456.24581057 16079.88694991
0.12900001 746422.76198540 14555.24454473
0.13000001 737440.06058791 24634.18638507
0.13100001 728508.38275260 17309.35999012
0.13200001 719629.83394826 20099.26220966
0.13300001 710805.65269945 20002.07200992
0.13400001 702035.77693808 21324.33772984
0.13500001 693323.06004543 15558.17020096
0.13600001 684667.28478453 14069.91336573
0.13700001 676070.19268410 19592.51510784
0.13800001 667530.85642740 22268.83042052
0.13900001 659052.97886004 19376.15849223
0.14000001 650635.35359116 19265.31372840
0.14100001 642280.74984650 20520.87092542
0.14200001 633988.48448550 14958.95899698
0.14300001 625760.53311898 17571.35659878
0.14400001 617594.34230529 16119.21309451
0.14500001 609495.80064897 20021.93799580
0.14600001 601462.46923287 17240.92249389
0.14700001 593496.87003125 15810.75736353
0.14800001 585595.80028252 14396.87342917
0.14900001 577763.96704624 14299.65885906
0.15000001 569999.99149308 14201.55045812
0.15100001 562304.87160072 14102.60684518
0.15200001 554680.36135390 12729.91489376
0.15300001 547125.38277466 15166.31632620
0.15400001 539639.11113397 17565.25389633
0.15500001 532225.36782810 17435.70387289
0.15600001 524880.90817118 21013.60815037
0.15700001 517610.83679466 14720.85289322
0.15800001 510409.42396460 19477.22453779
0.15900001 503282.58747375 13286.66093645
0.16000001 496225.55243380 15579.00195403
0.16100001 489243.75654900 11888.62384533
0.16200001 482334.18224182 14151.68557502
0.16300001 475497.16145436 12866.95379638
0.16400001 468733.98597347 17401.75005079
0.16500001 462043.21074848 13805.85178896
0.16600001 455426.55511772 11408.43574433
0.16700001 448882.63543222 21492.50159926
0.16800001 442412.47482681 12336.67244304
0.16900001 436017.01724152 12230.27791111
0.17000001 429693.54807498 15430.29603999
0.17100001 423444.38096766 18572.27142625
0.17200001 417268.54739097 17324.99090581
0.17300001 411165.86192468 13950.85835393
0.17400001 405137.67386605 12761.83732947
0.17500001 399181.07340077 12646.05700258
0.17600001 393296.72524586 12530.43425813
0.17700001 387487.87988583 11380.51956976
0.17800001 381749.83760975 10249.98362395
0.17900001 376083.90494440 10154.26591312
0.18000001 370491.48713266 11064.72878586
0.18100001 364971.40150485 14945.57959760
0.18200001 359520.72255150 10855.72873024
0.18300001 354142.22837170 12706.62375423
0.18400001 348834.78820205 10648.18241290
0.18500001 343598.25650476 9586.39180936
0.18600001 338432.31858990 9493.02698493
0.18700001 333335.49600660 12220.07986094
0.18800001 328306.82022958 12099.74843123
0.18900001 323350.72638229 10137.04575103
0.19000001 318459.24056663 11861.01497532
0.19100001 313638.86565103 14452.47961208
0.19200001 308884.56044355 9836.42929211
0.19300001 304199.34310012 8852.20130250
0.19400001 299579.17736296 9638.96048713
0.19500001 295026.03583884 9541.14244990
0.19600001 290537.63567554 11161.00380190
0.19700001 286116.25863251 15295.77590933
0.19800001 281758.39395515 14297.83037695
0.19900001 277465.22826359 9156.35296543
0.20000001 273234.08166294 9061.80874662
0.20100001 269067.60559940 9783.29860198
0.20200001 264962.18244042 8068.09883664
0.20300001 260919.29865915 9580.95709960
0.20400001 256937.90802929 9481.00925441
0.20500001 253016.31298184 9381.84532882
0.20600001 249154.50319985 8509.87245904
0.20700001 245352.38527437 7654.99478241
0.20800001 241608.45229403 9089.31040495
0.20900001 237924.96283842 7494.63668369
0.21000001 234295.79167066 8157.00837261
0.21100001 230724.88661058 8804.46208928
0.21200001 227209.12269079 7985.26499447
0.21300001 223748.65711656 7900.56545629
0.21400001 220343.27859477 7816.67817770
0.21500001 216992.97779714 9842.80193822
0.21600001 213694.40113921 8346.90370313
0.21700001 210449.31875198 8946.20096312
0.21800001 207256.19084347 8850.87604844
0.21900001 204113.76982538 8756.48113953
0.22000001 201021.27971308 7330.24131133
0.22100001 197980.41805617 7252.02305630
0.22200001 194988.06437999 7174.58616811
0.22300001 192043.92498516 8388.47904000
0.22400001 189147.06030077 7022.08494571
0.22500001 186299.42360756 7578.66091073
0.22600001 183496.33716149 6872.85563339
0.22700001 180740.06735309 8035.70377452
0.22800001 178028.27536290 7338.32585749
0.22900001 175360.31184109 6654.92414909
0.23000001 172736.71963783 5985.32761851
0.23100001 170157.19398004 7697.91181971
0.23200001 167618.28771410 6444.08537593
0.23300001 165122.05502708 5795.78440556
0.23400001 162666.15230345 6880.77856786
0.23500001 160250.25333710 7942.00293101
0.23600001 157874.30664512 6173.67505335
0.23700001 155537.63789929 6107.96332920
0.23800001 153238.83405166 6042.97370665
0.23900001 150977.92946443 7065.76743314
0.24000001 148753.45667579 5915.18148450
0.24100001 146566.52306611 7980.54755844
0.24200001 144415.34643101 6316.72755169
0.24300001 142298.52466247 5208.12624901
0.24400001 140216.42840412 6183.54478513
0.24500001 138167.73030809 5608.22843850
0.24600001 136152.51853444 5548.89615536
0.24700001 134170.55609282 4991.14492276
0.24800001 132220.30159254 6913.79989734
0.24900001 130300.43785521 6352.14664595
0.25000001 128412.74681011 6285.16218996
0.25100001 126554.48039013 5740.51150207
0.25200001 124727.74356714 8520.15256616
0.25300001 122928.57032735 5151.93662616
0.25400001 121159.15948915 6488.07329760
0.25500001 119416.24021666 5044.14222540
0.25600001 117702.26241587 5444.90691697
0.25700001 116014.34706443 5387.70653258
0.25800001 114353.05554860 5331.13970191
0.25900001 112718.64138162 6594.04083282
0.26000001 111108.84409807 6089.87603316
0.26100001 109523.54130368 6456.41306534
0.26200001 107964.33909320 6814.70940601
0.26300001 106427.44762035 4214.52712519
0.26400001 104915.14521909 4587.41494177
0.26500001 103425.94727162 5777.37368797
0.26600001 101958.92298408 5716.83708224
0.26700001 100514.34346602 4848.81215825
0.26800001 99091.90312907  4398.19432851
0.26900001 97690.04785840  5143.38126314
0.27000001 96309.85471977  5872.49366944
0.27100001 94949.68246870  4261.34195085
0.27200001 93610.50743511  4216.68550696
0.27300001 92290.68146181  4172.46190635
0.27400001 90989.07624970  4128.62953022
0.27500001 89708.41698100  4085.32150265
0.27600001 88444.06251899  4777.30626305
0.27700001 87200.07359066  4727.11621307
0.27800001 85972.93404156  5396.95118988
0.27900001 84763.81041329  3916.08822643
0.28000001 83571.53740730  4227.04856212
0.28100001 82396.47444430  4879.51944753
0.28200001 81238.61008723  4138.29499371
0.28300001 80096.72557027  4094.54480495
0.28400001 78970.36554082  4388.77827266
0.28500001 77860.30416006  3674.22792722
0.28600001 76765.63989432  3635.23704926
0.28700001 75686.84478628  3923.60621944
0.28800001 74621.44477585  3881.80774098
0.28900001 73572.55407679  5120.65000612
0.29000001 72537.26138231  4432.75225289
0.29100001 71516.80280019  4072.16694420
0.29200001 70509.97874004  3408.80508354
0.29300001 69517.25968913  3372.28242715
0.29400001 68537.30311416  4549.16370954
0.29500001 67572.25795931  3600.25007450
0.29600001 66618.90989941  3561.44709181
0.29700001 65679.06669705  3816.61074644
0.29800001 64752.37712085  4937.04522729
0.29900001 63838.56394479  4883.65037296
0.30000001 62936.15578258  3125.72432491
0.30100001 62047.22533237  3935.03521686
0.30200001 61169.44203090  3336.18152630
0.30300001 60304.32860960  3024.86526626
0.30400001 59450.85156286  2991.86424654
0.30500001 58609.63585156  2959.20065424
0.30600001 57778.57305552  2660.70341517
0.30700001 56960.02669116  2631.55335772
0.30800001 56152.45266787  2862.93293481
0.30900001 55356.23290336  3346.28443744
0.31000001 54570.95567903  3054.88224354
0.31100001 53796.30928604  3776.50109068
0.31200001 53033.26314395  4481.84128049
0.31300001 52280.29481955  3693.60300388
0.31400001 51539.28364216  2678.75439413
0.31500001 50807.32802158  3130.74770092
0.31600002 50087.22045904  2619.81219015
0.31700002 49376.63999015  2355.26583905
0.31800002 48676.21764882  2562.07283726
0.31900002 47986.66394039  2533.69597602
0.32000002 47307.43646804  2277.85317379
0.32100002 46637.80717120  2252.60619303
0.32200002 45979.16934325  2673.22903220
0.32300002 45328.82877335  2423.27930097
0.32400002 44689.73087263  3050.07427648
0.32500002 44060.01759550  2585.44195493
0.32600002 43440.28581963  2130.74612035
0.32700002 42830.35998519  2317.97919216
0.32800002 42231.06571555  2709.33414928
0.32900002 41639.38260089  3297.83925815
0.33000002 41058.80860930  3057.85491598
0.33100002 40486.61987688  2621.10389495
0.33200002 39925.49320475  2193.70632802
0.33300002 39372.98954322  2367.10424343
0.33400002 38830.57383401  2146.36007032
0.33500002 38297.28996475  2895.27525844
0.33600002 37772.68872328  2291.29140646
0.33700002 37257.64041048  2077.85870409
0.33800002 36752.72805426  2429.53920308
0.33900002 36256.08931050  1849.06064240
0.34000002 35768.93377970  2744.37157422
0.34100002 35290.92764848  1991.46714152
0.34200002 34822.88093166  2329.12850142
0.34300002 34363.17861453  2659.71015073
0.34400002 33913.27466944  2632.51807089
0.34500002 33471.89598350  2432.06807734
0.34600002 33040.23381852  2235.66752721
0.34700002 32616.47185180  2043.09589356
0.34800002 32202.47125905  2697.27912041
0.34900002 31796.93436964  2337.07478686
0.35000002 31400.59158640  1983.88947039
0.35100002 31013.85770505  1801.28494082
0.35200002 30634.27363426  1784.29335234
0.35300002 30264.86078285  1928.47702042
0.35400002 29903.43916832  2388.53731670
0.35500002 29551.28601426  2209.25424706
0.35600002 29207.20946026  2346.06921102
0.35700002 28871.69113464  1550.40988736
0.35800002 28545.13089329  1998.30198283
0.35900002 28227.61546018  1524.29130705
0.36000002 27918.17921492  1814.12337131
0.36100002 27616.67070875  1499.58529051
0.36200002 27325.02194737  1934.20177016
0.36300002 27040.29190175  1624.04000855
0.36400002 26764.45635318  1904.96027117
0.36500002 26496.13050425  1891.02892366
0.36600002 26236.93190156  1588.77748656
0.36700002 25985.23513865  1864.70056188
0.36800002 25742.52601186  1567.33377047
0.36900002 25507.54628866  1840.36955190
0.37000002 25279.95412086  1688.19541616
0.37100002 25060.29908378  1817.87418165
0.37200002 24849.11304568  1807.40032299
0.37300002 24645.42204335  1797.39071476
0.37400002 24449.30707677  1375.27358822
0.37500002 24261.08275395  2052.48769821
0.37600002 24080.49374536  1361.75198581
0.37700002 23907.22170440  1355.53953485
0.37800002 23741.42716081  2159.52031685
0.37900002 23583.76309468  1747.55692810
0.38000002 23432.68989423  1607.01394907
0.38100002 23288.10025323  1601.28984927
0.38200002 23151.91889487  1729.10114458
0.38300002 23021.95239381  1458.67097277
0.38400002 22899.32380497  1983.65401858
0.38500002 22783.01945822  1451.05057804
0.38600002 22674.55211754  1842.76093789
0.38700002 22571.82496465  1576.41633021
0.38800002 22475.81318567  2229.48839458
0.38900002 22386.35195756  1440.56181672
0.39000002 22303.81925203  1438.93096722
0.39100002 22226.88269598  2221.79929955
0.39200002 22156.77727502  1436.75629047
0.39300002 22092.15561964  1436.21110488
0.39400002 22034.91185127  1827.79602466
0.39500002 21982.31770496  1305.74973354
0.39600002 21935.76612466  1436.90242807
0.39700002 21894.39379748  1568.51444596
0.39800002 21859.78382098  1569.96974841
0.39900002 21829.63854261  1571.73404953
0.40000002 21805.29192046  2229.70023097
0.40100002 21785.98466223  1445.06443111
0.40200002 21772.24805702  1447.74570314
0.40300002 21763.28891583  1582.62644494
0.40400002 21759.35984555  1718.44552522
0.40500002 21759.69591876  1590.19865309
0.40600002 21765.89316323  2258.97332898
0.40700002 21775.89644251  1465.95341797
0.40800002 21790.36603330  2138.94243117
0.40900002 21808.80816053  1341.24176542
0.41000002 21832.31648711  1480.55861272
0.41100002 21859.58918212  1486.01494301
0.41200002 21889.95845458  1898.51618672
0.41300002 21925.74852320  2450.86028605
0.41400002 21964.35065125  2050.92133924
0.41500002 22006.66498402  1510.53755608
0.41600002 22051.60374832  1931.05903174
0.41700002 22101.32083228  1524.32817003
0.41800002 22154.58196965  1810.14020560
0.41900002 22209.24064698  1679.01867247
0.42000002 22267.53413116  1828.05330112
0.42100002 22329.41150552  1978.83254139
0.42200002 22393.69857125  1705.05629001
0.42300002 22460.19861980  2142.70304986
0.42400002 22529.24311186  1723.48717973
0.42500002 22601.29329021  1588.64498065
0.42600002 22674.20101538  1887.96743701
0.42700002 22750.63844103  2336.94569140
0.42800002 22828.31433553  1469.00209710
0.42900002 22908.70467957  2511.93958715
0.43000002 22990.70187008  1634.98384097
0.43100002 23072.96114642  1943.66633908
0.43200002 23158.06448797  1504.11635977
0.43300002 23243.80340770  1513.17167355
0.43400002 23331.54193924  1674.62150205
0.43500002 23419.62845031  1531.64377323
0.43600002 23509.74999444  1541.06418516
0.43700002 23599.97288846  1860.62195070
0.43800002 23690.57882300  1872.02962731
0.43900002 23783.09417961  2040.58957731
0.44000002 23875.38624932  2053.16393781
0.44100002 23968.61912299  2065.85538011
0.44200002 24062.03994931  1918.70715649
0.44300002 24155.86741940  1608.78084637
0.44400002 24249.59933517  1780.52691557
0.44500002 24342.96881292  1954.25362892
0.44600002 24436.25520804  2457.67648402
0.44700002 24530.38381550  2142.97443168
0.44800002 24623.15143908  2321.71705922
0.44900002 24716.13240278  2168.84072113
0.45000002 24809.00005466  2181.82761321
0.45100002 24900.27287653  2025.88629725
0.45200002 24991.46055922  1867.98680803
0.45300002 25081.53573538  2391.27373034
0.45400002 25170.93173169  2233.29102374
0.45500002 25259.83414134  2418.88183201
0.45600002 25347.09766522  1737.54362730
0.45700002 25433.66857439  1747.29311387
0.45800002 25518.62167794  1932.65290437
0.45900002 25602.32364340  2649.84062268
0.46000002 25685.09711537  2308.96191462
0.46100002 25765.64403683  2499.78290293
0.46200002 25845.32667912  2512.94123211
0.46300002 25923.29615013  2706.39224634
0.46400002 25999.03350578  1994.77594027
0.46500002 26074.14760200  2369.35790489
0.46600002 26146.38584936  2747.33162333
0.46700002 26216.85733625  2208.50816668
0.46800002 26286.03668515  2034.14504529
0.46900002 26352.52976758  2043.63878034
0.47000002 26417.14065945  2612.91950647
0.47100002 26479.82313891  2624.68019393
0.47200002 26540.45867138  1883.04563199
0.47300002 26598.69314374  2458.51732380
0.47400002 26654.04641559  2089.01098684
0.47500002 26707.70044897  2479.00887317
0.47600002 26759.53917711  2297.57414265
0.47700002 26807.76148265  2306.53990729
