# SAXS profile: number of points = 501, q_min = 0, q_max = 0.5, delta_q = 0.001
#    q    intensity    error
0.00000000 1700912.83420644 331.67800267
0.00100000 1700830.11193825 510.24904570
0.00200000 1700581.88764158 994.84043577
0.00300000 1700168.37914555 1428.14148936
0.00400000 1699589.45105951 1529.63056408
0.00500000 1698845.64654490 1681.85725665
0.00600000 1697936.84582325 1961.11713677
0.00700000 1696863.61263591 2239.86006177
0.00800000 1695625.76334491 2975.82334031
0.00900000 1694224.54039382 2795.47061115
0.01000000 1692659.38353053 3072.17691376
0.01100000 1690931.49557597 3652.41218947
0.01200000 1689040.81732211 4940.44460728
0.01300000 1686988.50026797 3896.94360749
0.01400000 1684774.66198753 5307.04042053
0.01500000 1682400.59974677 6056.64242878
0.01600000 1679865.79606160 4283.65797145
0.01700000 1677172.56674315 5886.87597335
0.01800000 1674320.78593530 5248.99590010
0.01900000 1671311.08586976 6016.72018062
0.02000000 1668144.73767804 7356.51862594
0.02100000 1664823.77342740 6592.70244168
0.02200000 1661346.66058151 5731.64623941
0.02300000 1657716.69979402 6564.55842999
0.02400000 1653933.38797275 8062.92563402
0.02500000 1649999.45194859 8365.49760344
0.02600000 1645914.66581425 6665.95470144
0.02700000 1641681.18374885 11032.09806007
0.02800000 1637299.03168122 9971.15156021
0.02900000 1632770.69492825 15429.68377551
0.03000000 1628097.46038863 7570.65353879
0.03100000 1623279.67572220 13245.96276338
0.03200000 1618318.97930723 9612.81517983
0.03300000 1613219.05244662 8227.41754677
0.03400000 1607977.80374379 10130.26063100
0.03500000 1602598.94098489 9519.43814904
0.03600000 1597083.49209665 14182.10206523
0.03700000 1591433.23631838 10885.40383984
0.03800000 1585649.82408381 11131.26228022
0.03900000 1579735.16911912 17061.14061659
0.04000000 1573689.28394602 10646.00849922
0.04100000 1567516.23224570 10862.88799314
0.04200000 1561216.78217871 12083.81845467
0.04300000 1554791.76187308 13340.11393609
0.04400000 1548244.78554267 11495.71806654
0.04500000 1541577.24286077 11700.57181698
0.04600000 1534789.14019644 15148.36951794
0.04700000 1527884.86606227 13200.92585673
0.04800000 1520864.66553556 12296.19139297
0.04900000 1513732.35192884 15894.19043509
0.05000000 1506487.70082436 14982.02088235
0.05100000 1499135.14981837 19878.53301261
0.05200000 1491673.07884575 13044.68168240
0.05300000 1484107.48190249 13223.39828020
0.05400000 1476438.43987569 18270.92654551
0.05500000 1468668.34372968 18505.22199425
0.05600000 1460798.46518977 16236.77569826
0.05700000 1452833.99599974 15167.58762624
0.05800000 1444773.37208696 19179.36740999
0.05900000 1436619.93463010 12929.58001556
0.06000000 1428377.22192137 15683.58262941
0.06100000 1420046.46774412 17168.36259733
0.06200000 1411629.96766897 17341.87496343
0.06300000 1403130.61564735 25593.10362602
0.06400000 1394547.95326432 14956.52749823
0.06500000 1385887.45534958 15092.31509474
0.06600000 1377150.15210428 17992.46757908
0.06700000 1368338.04165223 19539.86814924
0.06800000 1359453.76593785 15477.38184968
0.06900000 1350500.38464845 18434.33111353
0.07000000 1341478.38262377 18572.76907716
0.07100000 1332391.17880606 18706.77302662
0.07200000 1323240.92469194 23183.18208666
0.07300000 1314030.45339126 17502.88645928
0.07400000 1304762.05598066 17614.28858122
0.07500000 1295437.29068302 17721.58296720
0.07600000 1286057.40698826 20795.54924591
0.07700000 1276627.97212983 20911.16716398
0.07800000 1267148.93394397 16517.28712856
0.07900000 1257622.19381159 18109.76044030
0.08000000 1248052.30476383 19712.98707850
0.08100000 1238440.24162212 15232.81568665
0.08200000 1228787.71435838 16828.24853781
0.08300000 1219097.67697498 19968.82088603
0.08400000 1209372.56131067 16961.45096853
0.08500000 1199614.29354974 18570.03013592
0.08600000 1189825.39423125 18632.66654849
0.08700000 1180008.98616189 17133.73128363
0.08800000 1170165.00149187 17183.87385393
0.08900000 1160298.39269720 18796.83484458
0.09000000 1150409.63467284 21984.32915132
0.09100000 1140501.14230576 18886.69980390
0.09200000 1130574.97688910 17348.67383552
0.09300000 1120636.02908474 18961.16250314
0.09400000 1110681.01441160 17409.92571912
0.09500000 1100716.29979027 20605.41010058
0.09600000 1090742.63260833 19044.36726057
0.09700000 1080764.47892418 22242.13402192
0.09800000 1070781.52612715 20671.43833381
0.09900000 1060796.91440248 25459.12714281
0.10000000 1050811.07536216 20695.72510252
0.10100000 1040826.68158651 17517.11387496
0.10200000 1030846.72500832 22297.21571071
0.10300000 1020872.28187928 17518.16918112
0.10400000 1010906.83472017 22290.49675424
0.10500000 1000952.44839765 17506.65914615
0.10600001 991006.63441994 17496.22295394
0.10700001 981077.49391162 17482.80176420
0.10800001 971162.62552526 17466.36064207
0.10900001 961266.31981613 19033.07402816
0.11000001 951388.87562067 17424.68807716
0.11100001 941532.77881578 17399.52657157
0.11200001 931699.61793259 20530.00204764
0.11300001 921891.27434342 18917.20984016
0.11400001 912109.59533905 28321.00426876
0.11500001 902356.95478951 29831.92233007
0.11600001 892633.75448543 17232.29544184
0.11700001 882943.39011325 23442.14811151
0.11800001 873284.29551345 17146.93795000
0.11900001 863660.09034430 18655.05883012
0.12000001 854071.50997014 23252.09795422
0.12100001 844523.67956872 21636.69768981
0.12200001 835013.70431317 16946.60392741
0.12300001 825545.98756358 15355.15609213
0.12400001 816118.93833514 24483.56930366
0.12500001 806735.58683334 21346.22463345
0.12600001 797399.19761513 30380.91086079
0.12700001 788108.33092826 18158.01680031
0.12800001 778865.12102376 16578.14488231
0.12900001 769671.62580703 21012.03637487
0.13000001 760528.68774173 20922.14518594
0.13100001 751436.31065810 31244.72326997
0.13200001 742397.85256592 20735.17299963
0.13300001 733413.19900694 25060.73019150
0.13400001 724482.76042346 20539.08722633
0.13500001 715609.55768879 18977.96636468
0.13600001 706793.38558648 15977.06523451
0.13700001 698035.72058982 15894.27410730
0.13800001 689335.52227304 15809.91094886
0.13900001 680697.70793447 20012.51355703
0.14000001 672119.44479370 15636.85962057
0.14100001 663604.63459047 16961.73526010
0.14200001 655151.95010757 21079.51498893
0.14300001 646764.36831954 23749.18872489
0.14400001 638437.80297286 15274.62515663
0.14500001 630179.81914044 20701.40803529
0.14600001 621986.61485133 21943.68880713
0.14700001 613861.59040173 19078.81912976
0.14800001 605801.62133352 17601.56693826
0.14900001 597810.54633049 13450.73792705
0.15000001 589887.46066212 14697.04677585
0.15100001 582034.21518876 21232.60917195
0.15200001 574251.26167828 13179.06707740
0.15300001 566538.58835241 13087.04200851
0.15400001 558894.34119234 15593.15285512
0.15500001 551323.23262461 16771.25352793
0.15600001 543821.68948332 16649.10180928
0.15700001 536394.93654843 13983.81665581
0.15800001 529037.15767167 17664.55152840
0.15900001 521754.27417859 16278.73412274
0.16000001 514541.71698335 18639.27457754
0.16100001 507404.50157401 19727.88795244
0.16200001 500339.99580611 14679.97616994
0.16300001 493348.60233513 15777.28904749
0.16400001 486431.49706713 15650.93415701
0.16500001 479587.33126377 17912.58766838
0.16600001 472818.18703014 13028.50575873
0.16700001 466121.33159522 19968.63878835
0.16800001 459498.97057121 16307.61923556
0.16900001 452952.31029588 15015.36979530
0.17000001 446478.02385622 12597.37803795
0.17100001 440078.52956315 15895.63723843
0.17200001 433752.39676122 14632.63779574
0.17300001 427500.88269101 11157.77356516
0.17400001 421323.58185946 16589.61681918
0.17500001 415218.93726201 13154.13655370
0.17600001 409187.00435474 16295.87321807
0.17700001 403231.29650706 12919.53135028
0.17800001 397346.85126001 18136.89788241
0.17900001 391534.98739850 11628.58967500
0.18000001 385798.00808205 11521.85805561
0.18100001 380133.47440822 16604.23094648
0.18200001 374538.87213690 14393.52953614
0.18300001 369017.54638247 12221.86171354
0.18400001 363567.52282599 11097.89915854
0.18500001 358189.33119409 12991.52765616
0.18600001 352882.49216186 13857.69612188
0.18700001 347645.20539710 11764.31430644
0.18800001 342476.87554652 11651.06385656
0.18900001 337381.99794188 12500.00361434
0.19000001 332352.54846848 11426.28115622
0.19100001 327394.82315941 14143.45702877
0.19200001 322503.78327312 11203.78196030
0.19300001 317682.95297636 11093.48924213
0.19400001 312927.64207859 10068.44735965
0.19500001 308240.44294678 12687.17723122
0.19600001 303618.45191007 8971.92567792
0.19700001 299064.48533458 12435.10188786
0.19800001 294574.81317559 9672.36444772
0.19900001 290150.43195558 13056.77005506
0.20000001 285789.11344108 8616.54217748
0.20100001 281493.32433044 11088.02256942
0.20200001 277259.22442091 10975.30691743
0.20300001 273088.68661915 9192.16562606
0.20400001 268980.13738070 11579.59546156
0.20500001 264932.46090756 9005.05477189
0.20600001 260945.54424321 10533.06739125
0.20700001 257018.88580235 10424.68650091
0.20800001 253151.54530119 8729.93145238
0.20900001 249345.36619816 12567.00705045
0.21000001 245594.46064224 10104.98456081
0.21100001 241902.78653812 8461.75987312
0.21200001 238266.77680586 7612.62387883
0.21300001 234687.21313906 7533.45989791
0.21400001 231163.60870073 8200.52940635
0.21500001 227695.88515902 11066.02054190
0.21600001 224280.90619529 8760.41261017
0.21700001 220920.29639465 9391.32224375
0.21800001 217612.50758810 7148.57121226
0.21900001 214356.00806365 7073.74860056
0.22000001 211150.65331444 9099.53783484
0.22100001 207997.76719317 9696.85636505
0.22200001 204894.64307857 8909.84397557
0.22300001 201840.20683705 8138.19752449
0.22400001 198833.97050876 7381.71150419
0.22500001 195878.09986046 9296.37505898
0.22600001 192967.50509828 7884.65263117
0.22700001 190104.81026529 6501.58481853
0.22800001 187287.24417160 6433.31714153
0.22900001 184514.74315319 7002.33483381
0.23000001 181787.44717988 6298.93534267
0.23100001 179105.07784498 11219.14260679
0.23200001 176464.35623042 7400.91545032
0.23300001 173867.22919018 10374.65805644
0.23400001 171310.87978675 9661.93407694
0.23500001 168795.98694782 7767.99168674
0.23600001 166321.97063790 7686.57023658
0.23700001 163887.60956331 8191.10311340
0.23800001 161492.44329272 7526.35567564
0.23900001 159136.15980328 6301.79222628
0.24000001 156817.06035586 6802.72440001
0.24100001 154536.45390484 6170.64089630
0.24200001 152292.48652498 6106.16753605
0.24300001 150083.90771984 6591.68553886
0.24400001 147910.67839167 6522.86122563
0.24500001 145771.85440540 5378.98168201
0.24600001 143667.42395022 7452.02963282
0.24700001 141597.40194716 6320.90832194
0.24800001 139559.82539693 8340.09556026
0.24900001 137553.17129133 5674.06858419
0.25000001 135579.96955483 6125.50331427
0.25100001 133637.04245794 6061.77653267
0.25200001 131726.61789869 8498.34315579
0.25300001 129844.37426158 5441.77798276
0.25400001 127993.01060010 5385.30617578
0.25500001 126168.66586369 6782.82779774
0.25600001 124374.57865037 5274.10425720
0.25700001 122607.27039413 6168.37206538
0.25800001 120867.27134418 5165.26308528
0.25900001 119155.28827511 4647.05646260
0.26000001 117468.43203986 5058.77826516
0.26100001 115807.47312156 6826.85086354
0.26200001 114172.76141275 7206.58504137
0.26300001 112561.69197287 5348.93185565
0.26400001 110975.82172310 6616.93368334
0.26500001 109413.96422625 4802.17911712
0.26600001 107875.03901163 5184.47462023
0.26700001 106359.55936927 5558.35083566
0.26800001 104866.96629259 5500.79697718
0.26900001 103395.73108103 4187.52730694
0.27000001 101946.82527524 4558.55250790
0.27100001 100519.02610013 4511.29410486
0.27200001 99112.80054856  4464.53631199
0.27300001 97726.92109488  4819.89197650
0.27400001 96359.71921262  5167.29018732
0.27500001 95014.41659774  3933.59703331
0.27600001 93686.57738235  4281.94522191
0.27700001 92379.53745648  3852.22689425
0.27800001 91090.03270644  4193.32985410
0.27900001 89819.29320001  6035.85678870
0.28000001 88566.18289995  3733.06478591
0.28100001 87331.01276528  4063.51221629
0.28200001 86113.75320610  4752.18769560
0.28300001 84913.43640139  3617.31256191
0.28400001 83729.12421634  3937.36225263
0.28500001 82562.02345286  4604.48426590
0.28600001 81410.87889159  4205.68620260
0.28700001 80276.42907988  3814.73609044
0.28800001 79155.88084161  3774.54835659
0.28900001 78052.78777314  4413.88535750
0.29000001 76963.73278369  5375.14735204
0.29100001 75890.35197241  3988.79708848
0.29200001 74831.12453903  4275.47650292
0.29300001 73786.90776906  4881.00417997
0.29400001 72755.96141579  4507.23202306
0.29500001 71740.50219375  3503.80629300
0.29600001 70737.55462499  3781.62984926
0.29700001 69748.59510343  3429.53858358
0.29800001 68773.52966148  4626.73942700
0.29900001 67812.00470911  3967.00246328
0.30000001 66862.36426054  4528.25383391
0.30100001 65926.87073822  3882.43360157
0.30200001 65003.05678039  3840.70579169
0.30300001 64092.62272786  3214.88610823
0.30400001 63194.37091325  4047.59964861
0.30500001 62308.99415737  3431.97956067
0.30600001 61434.27560064  4243.57278802
0.30700001 60572.62044454  4477.52831524
0.30800001 59722.58961023  4152.21323923
0.30900001 58884.46026087  3285.75303812
0.31000001 58057.97632018  5145.96897477
0.31100001 57242.34457400  4018.41277935
0.31200001 56438.93377728  3179.76967956
0.31300001 55646.03270941  3931.39239706
0.31400001 54865.80669058  2851.65043776
0.31500001 54094.85310415  3333.32500610
0.31600002 53336.54528787  3043.38341822
0.31700002 52588.20478741  3010.14898456
0.31800002 51850.44738063  3225.35723203
0.31900002 51124.07309616  3926.32899969
0.32000002 50408.61656407  2669.89250273
0.32100002 49703.02916586  4081.11591805
0.32200002 49009.00686634  3324.28109315
0.32300002 48323.85241072  2583.39327220
0.32400002 47650.36522302  2555.25095608
0.32500002 46986.38397780  2527.39771384
0.32600002 46332.92850597  2272.63025083
0.32700002 45689.87588965  2247.94200022
0.32800002 45057.80629300  3335.40426878
0.32900002 44433.78809166  2859.31439910
0.33000002 43821.05928729  2828.43040564
0.33100002 43217.23037851  2582.66180972
0.33200002 42625.00804156  2342.03117775
0.33300002 42041.66607735  2527.54508426
0.33400002 41468.71884248  2292.18354257
0.33500002 40905.31747394  2473.95371798
0.33600002 40351.17488374  2243.72718567
0.33700002 39806.76771608  2623.66418442
0.33800002 39272.66765390  2196.71676925
0.33900002 38747.52004208  2568.96070045
0.34000002 38231.91921127  3128.90041643
0.34100002 37726.21856500  2709.49714566
0.34200002 37230.38294174  2107.05362238
0.34300002 36743.25795538  2275.14264035
0.34400002 36266.23086993  2627.48855096
0.34500002 35798.24231613  2415.30752346
0.34600002 35340.29870526  1839.46263473
0.34700002 34890.21592912  2003.39629353
0.34800002 34450.51524665  1983.83301444
0.34900002 34019.36468340  2500.42342265
0.35000002 33597.87628608  2122.71392429
0.35100002 33186.11871814  1927.44986644
0.35200002 32781.76266110  1909.37385663
0.35300002 32387.93436555  1719.79939627
0.35400002 32002.13699137  1874.52526305
0.35500002 31625.91607888  2364.35359804
0.35600002 31258.22411645  2008.65357686
0.35700002 30899.17464457  1825.21433271
0.35800002 30549.51325697  1974.10964017
0.35900002 30208.94153836  1957.53950441
0.36000002 29876.74361054  1617.82574314
0.36100002 29552.62239992  2086.11971402
0.36200002 29238.73035221  1592.04894309
0.36300002 28931.79191304  2527.48146124
0.36400002 28634.05101123  2038.02867726
0.36500002 28344.08635867  1867.30849776
0.36600002 28063.29000556  1544.88418798
0.36700002 27790.29383869  1840.82915107
0.36800002 27526.40331605  1828.30379486
0.36900002 27270.37001812  1967.55729001
0.37000002 27021.90294442  1503.76897009
0.37100002 26781.65341633  1942.74123085
0.37200002 26550.06354031  2228.21418817
0.37300002 26326.09628110  1919.96229273
0.37400002 26109.74157600  1468.67303322
0.37500002 25901.49509741  1899.09771050
0.37600002 25701.17383185  1744.08173885
0.37700002 25508.33314660  1446.32255793
0.37800002 25322.85074710  2159.40619975
0.37900002 25145.91686677  1719.98079517
0.38000002 24975.46274351  1855.55209243
0.38100002 24811.75692996  1848.22786127
0.38200002 24656.59026983  1841.47753154
0.38300002 24507.91469747  1411.65595345
0.38400002 24366.57201997  1547.88656090
0.38500002 24231.60180633  1543.31079216
0.38600002 24104.68196635  1819.05991077
0.38700002 23983.60619283  1675.01513586
0.38800002 23869.25394475  1532.04813702
0.38900002 23761.59911868  1668.06433716
0.39000002 23661.06638512  1526.49377015
0.39100002 23566.05305349  1662.82078223
0.39200002 23478.34674302  1384.04860607
0.39300002 23395.97592653  1797.51291560
0.39400002 23321.11239824  1934.48636508
0.39500002 23250.89123443  1657.32360571
0.39600002 23186.83893479  1795.00922118
0.39700002 23128.16673264  1933.05226710
0.39800002 23076.35613873  1795.45597444
0.39900002 23029.01939935  1658.08947531
0.40000002 22987.60613816  1659.24548967
0.40100002 22951.09485388  1660.74130231
0.40200002 22920.41857134  1524.09330511
0.40300002 22894.64973816  1387.41583987
0.40400002 22873.97226033  1528.55326872
0.40500002 22857.70781395  1809.64481337
0.40600002 22847.17782406  1673.78432670
0.40700002 22840.63735055  1956.98590092
0.40800002 22838.56491588  1821.48983117
0.40900002 22840.76963893  1545.17813929
0.41000002 22847.84423492  1408.56966382
0.41100002 22858.99043672  1695.22281111
0.41200002 22873.03976688  1842.08034491
0.41300002 22892.76393060  1563.80477820
0.41400002 22915.18800785  1426.47052108
0.41500002 22941.47814042  1431.54830379
0.41600002 22970.32369329  1580.47319661
0.41700002 23004.18440894  1586.59867386
0.41800002 23041.70095743  1882.62226593
0.41900002 23080.50047156  1599.47875847
0.42000002 23122.99573999  1606.23897519
0.42100002 23169.45994228  1466.62688384
0.42200002 23217.92495596  1620.49514909
0.42300002 23268.95522163  1479.90562222
0.42400002 23322.49770025  1635.49022873
0.42500002 23379.13387266  1643.31939778
0.42600002 23436.76222399  2101.57456821
0.42700002 23497.69517938  2715.39378360
0.42800002 23560.04723869  1819.30693398
0.42900002 23625.36328656  2285.75400629
0.43000002 23692.24927522  1838.04478587
0.43100002 23759.42339749  1847.53285094
0.43200002 23829.37305111  1857.26142361
0.43300002 23900.21642752  1711.49457948
0.43400002 23972.98718018  1564.23748763
0.43500002 24046.26825353  1572.62601831
0.43600002 24121.55494699  1897.40160205
0.43700002 24196.98279534  2066.66439849
0.43800002 24272.98757827  2077.88920011
0.43900002 24350.79080085  1928.58272282
0.44000002 24428.52165422  2423.92017601
0.44100002 24507.18718849  1949.79190512
0.44200002 24586.13766696  2777.37317317
0.44300002 24665.48095971  2464.08166465
0.44400002 24744.86485825  2312.40773059
0.44500002 24824.02764129  1826.80028070
0.44600002 24903.00020323  2170.67011559
0.44700002 24983.05883767  1846.74779680
0.44800002 25061.57716705  2531.84595329
0.44900002 25140.54403806  2206.08284389
0.45000002 25219.47168881  2047.31680872
0.45100002 25296.96131500  2229.67427597
0.45200002 25374.33359452  2069.02325935
0.45300002 25450.57768646  2079.82130711
0.45400002 25526.29132188  2613.25419793
0.45500002 25601.62038712  2101.38110097
0.45600002 25675.27601705  2112.04830526
0.45700002 25748.36728613  2830.26066623
0.45800002 25819.90097209  2311.01034603
0.45900002 25890.21919277  1965.06772986
0.46000002 25959.71002887  2513.15964700
0.46100002 26026.99390007  1984.03783904
0.46200002 26093.50302230  1993.41325787
0.46300002 26158.47503334  2548.88192805
0.46400002 26221.24390918  2194.71821922
0.46500002 26283.50235720  2755.82535277
0.46600002 26342.93486568  2214.38720976
0.46700002 26400.62184041  2038.65611514
0.46800002 26457.30657938  2605.78024851
0.46900002 26511.12602805  2803.55171034
0.47000002 26563.15665522  1876.68710664
0.47100002 26613.53031380  2261.08564263
0.47200002 26661.83787762  2459.15473320
0.47300002 26707.97315789  2658.51177414
0.47400002 26751.16208327  2096.62242765
0.47500002 26792.70680827  2295.59922814
0.47600002 26832.59862074  2687.82153124
0.47700002 26869.07555670  2119.16408960
