# SAXS profile: number of points = 501, q_min = 0, q_max = 0.5, delta_q = 0.001
#    q    intensity    error
0.00000000 1682732.95097188 353.37391970
0.00100000 1682650.68243875 504.79521672
0.00200000 1682403.81180682 832.78991321
0.00300000 1681992.56384471 1412.87380396
0.00400000 1681416.80415205 1639.38144634
0.00500000 1680677.06280310 1815.13129967
0.00600000 1679773.23137198 2116.51435770
0.00700000 1678705.86349147 2014.44711991
0.00800000 1677474.80528632 2491.05019102
0.00900000 1676081.24564088 3268.35856871
0.01000000 1674524.67705792 4697.04192196
0.01100000 1672806.23685345 3914.36676467
0.01200000 1670925.93594880 3584.13628975
0.01300000 1668884.87841962 3855.12423918
0.01400000 1666683.20021829 4125.04110341
0.01500000 1664322.18020118 4393.81075138
0.01600000 1661801.34914071 4661.35299272
0.01700000 1659122.91328294 4479.63206681
0.01800000 1656286.84168801 6608.58479571
0.01900000 1653293.74676811 5951.85775693
0.02000000 1650144.87304212 6237.54790226
0.02100000 1646842.28578657 5978.03776844
0.02200000 1643384.35970696 7937.54681801
0.02300000 1639774.62958642 7674.14561578
0.02400000 1636012.23313832 11043.08307722
0.02500000 1632100.14303399 8911.26718795
0.02600000 1628038.07617924 7252.90996111
0.02700000 1623828.19693572 10230.11810925
0.02800000 1619470.50449743 11271.51522821
0.02900000 1614967.39289962 7994.08896190
0.03000000 1610320.32956977 8985.58785202
0.03100000 1605529.58091672 7706.54234300
0.03200000 1600596.67260650 9507.54467318
0.03300000 1595525.42852867 8950.89806669
0.03400000 1590313.80819868 9184.06266610
0.03500000 1584965.30472857 10270.57564892
0.03600000 1579481.05858595 8766.12028027
0.03700000 1573862.77726923 8971.01824532
0.03800000 1568112.19384389 11925.49378609
0.03900000 1562231.21576719 13122.74282016
0.04000000 1556219.87481125 11484.90320831
0.04100000 1550082.03457807 10742.06899770
0.04200000 1543818.64440771 10953.39379023
0.04300000 1537430.51309996 16235.26697194
0.04400000 1530921.24163849 12400.46263317
0.04500000 1524292.15938676 12621.13966616
0.04600000 1517543.28792706 10698.68067723
0.04700000 1510679.04047863 13052.26751677
0.04800000 1503699.79944407 12157.41344417
0.04900000 1496608.92029705 15714.39439458
0.05000000 1489406.53563718 12533.35658102
0.05100000 1482097.09391144 12716.39365814
0.05200000 1474678.83665127 11723.69729772
0.05300000 1467157.86116478 14260.77507533
0.05400000 1459534.14357145 13245.27297059
0.05500000 1451810.18226467 14634.24731990
0.05600000 1443987.00207349 17284.52522139
0.05700000 1436069.98310342 12493.80943619
0.05800000 1428057.75239611 16429.80520846
0.05900000 1419953.06981247 14057.53604771
0.06000000 1411760.03440731 18084.64688565
0.06100000 1403479.66220446 14357.59761530
0.06200000 1395114.05041916 14502.21123199
0.06300000 1386666.55028764 19967.99925775
0.06400000 1378136.19882854 18811.55999376
0.06500000 1369528.68164360 16270.00149900
0.06600000 1360845.11638991 16411.79287155
0.06700000 1352087.24023326 22066.06479328
0.06800000 1343258.10711471 20854.08308912
0.06900000 1334360.41370045 21016.17749974
0.07000000 1325394.65324118 23996.27132064
0.07100000 1316364.35381049 18481.75639314
0.07200000 1307271.56812153 17177.54920983
0.07300000 1298119.25444248 21613.68659919
0.07400000 1288909.57661050 14500.23341641
0.07500000 1279644.13295000 21881.91569910
0.07600000 1270324.27231423 22008.36904961
0.07700000 1260955.19563802 20654.44707301
0.07800000 1251537.28713893 16313.78930291
0.07900000 1242072.22994825 17885.84095017
0.08000000 1232564.55173246 17970.79200729
0.08100000 1223015.13586450 18051.70425231
0.08200000 1213425.83385441 22660.72851059
0.08300000 1203799.61007356 21235.02611830
0.08400000 1194138.91972068 19792.85352342
0.08500000 1184445.65341200 27502.82936335
0.08600000 1174721.96557460 19929.15908168
0.08700000 1164971.32664806 15377.62223385
0.08800000 1155193.74956772 23132.75592150
0.08900000 1145394.01780985 17009.10196339
0.09000000 1135572.63407489 18600.68061992
0.09100000 1125731.95052346 18642.12197650
0.09200000 1115873.86986573 28019.59418888
0.09300000 1106003.69916647 17154.11818018
0.09400000 1096117.98847285 37487.23696758
0.09500000 1086222.76418865 20334.09110137
0.09600000 1076318.99220955 17226.48628009
0.09700000 1066411.28241922 17243.87124740
0.09800000 1056499.00339500 15689.01093808
0.09900000 1046585.72874318 17268.66533628
0.10000000 1036671.43393831 15705.57296275
0.10100000 1026759.08659908 15709.41476381
0.10200000 1016851.57888335 20423.46492252
0.10300000 1006949.77913674 23562.62594020
0.10400000 997057.36840003 17274.01972019
0.10500000 987176.51182009 17265.71800407
0.10600001 977304.42279663 17254.31039635
0.10700001 967449.22279818 17239.94596154
0.10800001 957608.87730331 23485.35882112
0.10900001 947787.35141100 20330.03964461
0.11000001 937984.72876878 17179.19111602
0.11100001 928203.99837233 21831.35906939
0.11200001 918446.45554072 17124.43496973
0.11300001 908713.88912823 18646.80988282
0.11400001 899008.35690329 24812.63181882
0.11500001 889332.12823240 18569.25571188
0.11600001 879685.65549375 20070.02917522
0.11700001 870071.95963472 16940.30185189
0.11800001 860490.09322013 16895.72377614
0.11900001 850943.13599582 15316.97716938
0.12000001 841432.29923428 19853.59603563
0.12100001 831962.03651968 19792.37778119
0.12200001 822530.19229113 27316.22897289
0.12300001 813140.24708059 16636.85023910
0.12400001 803791.63143415 18085.31255940
0.12500001 794486.71972172 16517.37968132
0.12600001 785228.92505231 20942.05641801
0.12700001 776016.80061475 17879.42792876
0.12800001 766852.44486995 20774.03371059
0.12900001 757738.14474899 14775.89451902
0.13000001 748674.30224855 16182.59580587
0.13100001 739661.46533207 21967.94655588
0.13200001 730702.09123622 18950.75962956
0.13300001 721797.05799490 18860.55801455
0.13400001 712946.13642379 17324.59193188
0.13500001 704152.57659007 17237.65588765
0.13600001 695415.94029589 15719.87807159
0.13700001 686738.10907777 21323.21929232
0.13800001 678117.88418920 21208.13782810
0.13900001 669559.77860171 15466.83161509
0.14000001 661061.56515960 15379.59803875
0.14100001 652626.67448569 19461.32835102
0.14200001 644254.07036696 22110.80073786
0.14300001 635946.18078349 16483.72578341
0.14400001 627699.82390582 19113.46053951
0.14500001 619521.61793226 13567.52407273
0.14600001 611408.40092966 14829.71146413
0.14700001 603363.38373123 20092.00162612
0.14800001 595383.06183755 17298.85567783
0.14900001 587471.97537487 15861.74408349
0.15000001 579628.81637336 17067.17130339
0.15100001 571855.00072729 14342.12409497
0.15200001 564151.99985292 19420.93351135
0.15300001 556518.74491574 12855.58361420
0.15400001 548954.20925323 19144.77895117
0.15500001 541462.43748361 13937.24379857
0.15600001 534040.31687128 20122.64008940
0.15700001 526692.75332436 13730.88072722
0.15800001 519414.03090539 19820.84035487
0.15900001 512210.26417792 13522.35161256
0.16000001 505076.57853854 14637.11993695
0.16100001 498018.13175204 14522.20940740
0.16200001 491032.29880457 13206.31429977
0.16300001 484119.42698124 14291.20615914
0.16400001 477280.65394025 16537.77543977
0.16500001 470514.65327244 11715.81541960
0.16600001 463823.22472013 16266.28125892
0.16700001 457204.39326131 14978.01663042
0.16800001 450659.71398828 18278.75886242
0.16900001 444190.31270377 12459.53885966
0.17000001 437793.14881179 11229.39479727
0.17100001 431470.62380556 12245.13688183
0.17200001 425221.48181212 13241.39756893
0.17300001 419046.36960113 15311.95506832
0.17400001 412945.59943408 13007.78699648
0.17500001 406917.00212680 15039.65310889
0.17600001 400961.06425541 11710.06843464
0.17700001 395080.97555985 17932.72632764
0.17800001 389271.94891239 11497.14755416
0.17900001 383535.27175694 10355.45282656
0.18000001 377873.02219109 12311.10364450
0.18100001 372283.07651341 12195.99416268
0.18200001 366762.98637448 10067.64445155
0.18300001 361315.53609503 11966.77112077
0.18400001 355939.40525109 12840.51465103
0.18500001 350634.64622814 14674.06063788
0.18600001 345400.99764454 12595.04797414
0.18700001 340236.59078205 13432.54123869
0.18800001 335140.92239506 12351.61927844
0.18900001 330118.25203212 10349.20769018
0.19000001 325160.83531267 9315.85837187
0.19100001 320274.57786692 11068.68993408
0.19200001 315454.84118841 10045.65989232
0.19300001 310704.95919480 13562.27210971
0.19400001 306020.34683747 12531.53379516
0.19500001 301403.25609375 11519.63299226
0.19600001 296851.21092612 11403.53980662
0.19700001 292366.70765729 10419.94995333
0.19800001 287946.24301162 9454.71533610
0.19900001 283590.71219191 13612.35482853
0.20000001 279297.77967299 10104.99414614
0.20100001 275070.11257867 12501.93720757
0.20200001 270903.79326707 9073.92298435
0.20300001 266800.49697239 9796.91471187
0.20400001 262758.98116767 8887.82295809
0.20500001 258777.91693313 11994.35701679
0.20600001 254857.12428599 10287.30830806
0.20700001 250996.36617364 8614.19569426
0.20800001 247194.19412129 8524.49218723
0.20900001 243453.03736392 8435.64814342
0.21000001 239766.63282394 8347.47571637
0.21100001 236139.04332161 9761.98851240
0.21200001 232566.93552337 11145.77091187
0.21300001 229050.68430424 8087.78004514
0.21400001 225589.87601855 9457.85599921
0.21500001 222184.74691872 7198.78614051
0.21600001 218831.80809557 7835.27325930
0.21700001 215532.62242905 7752.70879532
0.21800001 212286.04121445 8368.31614033
0.21900001 209090.56417936 6899.98894416
0.22000001 205945.45226650 7509.80127198
0.22100001 202852.45992218 8781.48340525
0.22200001 199808.61123252 9357.03770646
0.22300001 196813.21570987 7935.50923266
0.22400001 193865.58520659 7851.55657214
0.22500001 190967.87020224 8415.95443778
0.22600001 188114.94151741 8326.90828003
0.22700001 185309.37546564 8238.85522281
0.22800001 182548.72055972 9405.82327164
0.22900001 179832.37766922 6824.63905529
0.23000001 177160.97686105 6752.49095240
0.23100001 174533.94752865 7895.91615962
0.23200001 171948.09328729 7812.46198799
0.23300001 169405.36828205 7729.96732029
0.23400001 166903.10876285 8236.66880700
0.23500001 164441.72308505 6985.48472704
0.23600001 162020.69039229 8063.77014222
0.23700001 159639.18203779 7408.85478880
0.23800001 157296.10062937 7894.69166400
0.23900001 154991.37113256 6695.62754963
0.24000001 152723.51025781 5520.95515696
0.24100001 150493.69929528 7648.09015995
0.24200001 148299.97584777 10270.51531315
0.24300001 146141.14160375 7488.27244999
0.24400001 144017.33950727 5292.63747725
0.24500001 141927.43301244 5237.12252590
0.24600001 139871.38035798 7773.35233111
0.24700001 137849.20393234 5640.78969175
0.24800001 135859.11317112 6089.20574039
0.24900001 133899.59512722 7531.85258222
0.25000001 131972.89455675 4968.77971513
0.25100001 130076.07279104 6883.62609776
0.25200001 128211.13469859 6325.29662960
0.25300001 126374.05826801 7222.27777171
0.25400001 124567.28252316 7147.04817290
0.25500001 122787.27055740 5186.53455373
0.25600001 121036.79020830 7932.14642159
0.25700001 119312.78172545 5540.88584549
0.25800001 117615.67374615 5483.24296948
0.25900001 115945.90999060 6330.64698502
0.26000001 114301.01866322 5817.35062012
0.26100001 112681.33811834 4428.37679758
0.26200001 111087.76289524 5258.89494430
0.26300001 109517.15460432 5204.25543305
0.26400001 107971.30917403 5579.41766558
0.26500001 106449.02448376 5096.77953346
0.26600001 104949.29992687 5464.18555926
0.26700001 103472.46876726 4575.55278540
0.26800001 102018.11345488 4939.71728724
0.26900001 100584.69412342 4481.04833525
0.27000001 99173.16356640  6047.08393462
0.27100001 97782.16974321  5984.26907148
0.27200001 96412.39465730  4342.89652286
0.27300001 95062.56526305  4688.48594065
0.27400001 93730.96224337  3866.40237552
0.27500001 92420.84303191  6504.57924042
0.27600001 91127.55065110  4164.98489962
0.27700001 89854.71504841  4871.02433330
0.27800001 88599.04939515  5561.80558901
0.27900001 87361.77528906  5136.87263011
0.28000001 86141.67747313  4357.04625280
0.28100001 84939.08153027  3952.21565066
0.28200001 83753.96562113  4621.96281156
0.28300001 82585.26065025  4573.57195128
0.28400001 81432.32303426  3829.35517193
0.28500001 80296.13131270  4478.11545526
0.28600001 79175.48031621  3408.50458894
0.28700001 78070.98883146  5059.00031573
0.28800001 76980.15747779  4004.50798154
0.28900001 75906.29603419  4292.50124391
0.29000001 74846.10188831  4247.14225269
0.29100001 73801.16694062  4848.73689751
0.29200001 72770.03221090  3198.24306706
0.29300001 71753.43921309  3797.19218290
0.29400001 70749.81541242  4382.95127227
0.29500001 69761.30792003  3716.88266193
0.29600001 68784.83415650  3983.67385875
0.29700001 67822.12308236  4547.47356794
0.29800001 66872.71068789  3299.16533796
0.29900001 65936.60596680  2967.14740897
0.30000001 65012.01440604  3228.82184833
0.30100001 64101.16224103  3194.16106568
0.30200001 63201.73099391  3447.02257159
0.30300001 62315.22293488  3694.04659046
0.30400001 61440.50128706  3373.08368035
0.30500001 60578.36606981  3336.65656109
0.30600001 59726.59761016  3300.49194019
0.30700001 58887.48774610  3808.84288774
0.30800001 58059.64337312  2691.06459775
0.30900001 57243.42594803  3194.18331913
0.31000001 56438.36907199  3159.42005023
0.31100001 55644.00359324  2864.55344060
0.31200001 54861.46711899  2833.32060351
0.31300001 54089.16616895  3566.63978605
0.31400001 53329.14727151  4031.68372461
0.31500001 52578.27601520  3489.09456157
0.31600002 51839.54251257  3204.46147214
0.31700002 51110.45984335  2925.56285995
0.31800002 50391.69701772  2652.36709811
0.31900002 49684.04238944  2861.80097713
0.32000002 48986.94731528  3538.08243737
0.32100002 48299.50636577  2566.15289472
0.32200002 47623.29797534  3230.28845462
0.32300002 46955.60693390  2738.45112605
0.32400002 46299.29628554  2708.50896096
0.32500002 45652.34631640  2902.11979275
0.32600002 45015.68239156  3091.22705620
0.32700002 44388.99614813  2620.72645668
0.32800002 43773.02266071  3672.33791002
0.32900002 43164.91005776  2563.99577884
0.33000002 42567.93833719  2324.84806238
0.33100002 41979.51109845  2926.81165238
0.33200002 41402.36407756  2895.26745705
0.33300002 40833.95308045  3068.67171931
0.33400002 40275.64162394  2023.85108744
0.33500002 39726.72598375  2202.44979284
0.33600002 39186.69389156  2773.24245804
0.33700002 38656.16121326  2155.85421296
0.33800002 38135.91507434  2133.13251070
0.33900002 37624.16982968  2110.71602740
0.34000002 37121.91476287  2088.66463305
0.34100002 36629.14995881  2066.98303006
0.34200002 36146.20879655  2789.58379599
0.34300002 35671.76389563  2760.99465628
0.34400002 35207.17560928  2732.95713610
0.34500002 34751.37980917  2164.31603702
0.34600002 34305.40284292  2678.39445381
0.34700002 33867.22381646  1767.86916695
0.34800002 33439.12824524  1925.59229120
0.34900002 33019.47287453  2426.93137122
0.35000002 32609.19162178  2575.31103030
0.35100002 32208.50485855  2210.79187820
0.35200002 31815.10647053  2189.99295762
0.35300002 31431.99310299  1835.94280410
0.35400002 31056.88792110  1984.53523215
0.35500002 30691.05889152  1802.79288468
0.35600002 30333.62806801  1949.23903197
0.35700002 29984.67892717  2737.30146891
0.35800002 29644.88275468  1915.65241434
0.35900002 29314.12405722  2374.44416110
0.36000002 28991.51690086  2197.84700036
0.36100002 28676.92712021  2180.02010294
0.36200002 28372.31925013  1544.87285635
0.36300002 28074.65736305  2146.02691048
0.36400002 27785.90309038  2890.42870589
0.36500002 27504.89969043  1812.02287744
0.36600002 27232.87132227  2398.67141969
0.36700002 26968.56853472  1637.53155900
0.36800002 26713.26163078  1626.43701143
0.36900002 26465.71198780  2056.38591886
0.37000002 26225.59771595  1897.29095663
0.37100002 25993.53811327  1885.57134406
0.37200002 25770.09219648  1730.20407203
0.37300002 25554.07565945  2150.37556861
0.37400002 25345.66527423  1425.69373921
0.37500002 25145.27877307  2127.29068497
0.37600002 24952.61158677  1693.28430249
0.37700002 24767.27647272  1966.02649954
0.37800002 24589.41296451  2236.65310921
0.37900002 24419.78087149  1531.12033318
0.38000002 24256.79405061  1940.78618393
0.38100002 24100.34238424  1657.13962084
0.38200002 23952.33954722  2201.69915548
0.38300002 23810.67600532  1508.64450317
0.38400002 23676.32183270  1777.49994580
0.38500002 23548.34837563  1499.79437910
0.38600002 23428.26089787  1496.01167051
0.38700002 23313.97678294  1763.93556696
0.38800002 23206.39616114  1760.32126420
0.38900002 23105.45228281  2162.67043613
0.39000002 23011.52933739  2429.32726724
0.39100002 22923.10613411  1617.45444545
0.39200002 22841.79251598  1481.17610587
0.39300002 22765.86884253  1749.10178604
0.39400002 22697.41256597  1479.30393407
0.39500002 22633.50674789  1747.75947388
0.39600002 22575.79295443  1613.26624096
0.39700002 22523.32977259  2016.96427670
0.39800002 22477.66654066  1345.28840620
0.39900002 22436.53610775  1615.43067630
0.40000002 22401.18837801  1482.17469925
0.40100002 22370.82441865  1753.64900926
0.40200002 22346.20719216  2161.32526203
0.40300002 22326.44152052  1894.17538835
0.40400002 22311.65830015  1490.97663655
0.40500002 22301.33482677  1493.96649083
0.40600002 22296.72618130  1633.45823744
0.40700002 22296.07341444  1500.97173338
0.40800002 22299.83899476  1778.52374330
0.40900002 22307.76018518  1646.31277967
0.41000002 22320.72946779  1376.07303689
0.41100002 22337.58548390  1656.55541798
0.41200002 22357.43840490  2493.07807466
0.41300002 22382.85407973  1945.96542590
0.41400002 22411.07010115  2092.63376985
0.41500002 22443.04395421  1540.49061001
0.41600002 22477.62887782  1546.57332822
0.41700002 22517.11318427  1976.55228897
0.41800002 22560.24098317  1843.28457687
0.41900002 22604.74832248  1851.32897534
0.42000002 22652.95720081  1716.64117802
0.42100002 22704.89920460  1724.66422530
0.42200002 22759.05760376  1444.06227339
0.42300002 22815.71283842  1886.40322687
0.42400002 22874.83568769  1604.09792861
0.42500002 22937.01999929  1612.24321215
0.42600002 23000.19088389  1915.11098470
0.42700002 23066.78198934  1480.88747389
0.42800002 23134.79831196  1935.34164450
0.42900002 23205.59134770  3143.19749699
0.43000002 23277.96798557  1655.41277174
0.43100002 23350.67367550  2420.99796140
0.43200002 23426.29045034  1825.84516422
0.43300002 23502.61029973  1683.02200332
0.43400002 23580.97733126  2000.25649691
0.43500002 23659.76592294  1702.08364116
0.43600002 23740.64384522  2334.29891670
0.43700002 23821.63313640  1878.09764547
0.43800002 23903.10928121  2046.22576699
0.43900002 23986.54878519  1899.73475381
0.44000002 24069.82601851  1910.66287990
0.44100002 24154.04890914  1761.55487042
0.44200002 24238.55516986  2899.17372126
0.44300002 24323.45115027  2591.90707740
0.44400002 24408.40017142  2606.81726185
0.44500002 24493.09826231  1638.58835140
0.44600002 24577.65855249  2142.31170925
0.44700002 24663.27502769  1657.37216041
0.44800002 24747.41289195  1833.41217099
0.44900002 24831.90683675  1676.15379092
0.45000002 24916.44219238  1854.15713362
0.45100002 24999.40277993  2881.43130097
0.45200002 25082.29429728  2215.64457176
0.45300002 25164.12986507  1713.67732503
0.45400002 25245.40881319  1722.99923316
0.45500002 25326.26822838  2252.01187760
0.45600002 25405.50222459  2089.85671204
0.45700002 25484.12007587  1925.83504541
0.45800002 25561.27612378  3519.78788906
0.45900002 25637.13245394  2299.65089011
0.46000002 25712.17771663  2489.19604272
0.46100002 25785.06937870  2144.28647116
0.46200002 25857.15254086  2154.93519489
0.46300002 25927.61613305  2165.47460207
0.46400002 25995.93757234  2175.86007793
0.46500002 26063.75057788  2368.41312726
0.46600002 26128.71270535  2379.41133529
0.46700002 26191.95202351  2390.27765496
0.46800002 26254.07931837  2216.36948110
0.46900002 26313.48744007  2411.63123818
0.47000002 26371.06999527  2794.67427521
0.47100002 26426.89678654  2993.63900987
0.47200002 26480.72979028  2630.33101474
0.47300002 26532.28625600  2075.09020644
0.47400002 26580.99184274  2083.28533442
0.47500002 26628.05620162  1901.24330291
0.47600002 26673.37642082  2481.02422538
0.47700002 26715.27026963  2490.13045986
