# SAXS profile: number of points = 501, q_min = 0, q_max = 0.5, delta_q = 0.001
#    q    intensity    error
0.00000000 1682732.95097188 252.40994265
0.00100000 1682650.66583108 605.75425409
0.00200000 1682403.74523235 757.08170933
0.00300000 1681992.41346713 1211.03458084
0.00400000 1681416.53173922 1513.27493607
0.00500000 1680676.64419725 1663.86994361
0.00600000 1679772.62526857 2116.51359401
0.00700000 1678705.03221451 2820.22457133
0.00800000 1677473.71936321 3170.42546345
0.00900000 1676079.88417636 3771.17990061
0.01000000 1674522.98025496 3868.14825141
0.01100000 1672804.19261798 3312.15244559
0.01200000 1670923.48276417 4235.79121452
0.01300000 1668882.01559235 4906.51334224
0.01400000 1666679.89126620 4125.03291375
0.01500000 1664318.37756064 4393.80071241
0.01600000 1661797.03151217 10170.19828750
0.01700000 1659118.07279732 5375.54279700
0.01800000 1656281.37275130 5192.44233722
0.01900000 1653287.67791240 6943.80856055
0.02000000 1650138.17469651 8836.49032522
0.02100000 1646834.87732110 5978.01087571
0.02200000 1643376.22680546 7370.54271208
0.02300000 1639765.76248941 8854.73552050
0.02400000 1636002.61232206 9202.51511392
0.02500000 1632089.72187798 8274.69526783
0.02600000 1628026.77605453 8571.56136798
0.02700000 1623816.07518668 7502.03061096
0.02800000 1619457.46062868 7749.10430448
0.02900000 1614953.37128606 10900.93575669
0.03000000 1610305.36097960 10483.08838184
0.03100000 1605513.70930687 10018.40600705
0.03200000 1600579.69796175 7922.86986982
0.03300000 1595507.41882201 13019.34113779
0.03400000 1590294.74407731 11688.66690829
0.03500000 1584945.06282996 8558.70373451
0.03600000 1579459.76039096 13149.00311292
0.03700000 1573840.25397044 12559.24580752
0.03800000 1568088.50280463 11925.31361573
0.03900000 1562206.33621317 14997.18152217
0.04000000 1556193.73167587 10527.65108263
0.04100000 1550054.64057048 10741.87915722
0.04200000 1543789.92242732 12944.67910009
0.04300000 1537400.49471127 13190.89685692
0.04400000 1530889.82403643 16533.61086745
0.04500000 1524259.39985610 11569.12938247
0.04600000 1517509.10339060 12838.12761149
0.04700000 1510643.47074518 11964.29684474
0.04800000 1503662.69266252 12157.11343582
0.04900000 1496570.41392868 12346.70648962
0.05000000 1489366.51854110 14811.75071662
0.05100000 1482055.66604837 15028.04515380
0.05200000 1474635.79731108 19929.70372941
0.05300000 1467113.16874662 13071.97894292
0.05400000 1459487.89878303 18061.16358970
0.05500000 1451762.37154218 13414.28493882
0.05600000 1443937.59686048 20987.63394974
0.05700000 1436018.91057831 13742.70161572
0.05800000 1428005.13758925 16429.19987508
0.05900000 1419898.69658581 14056.99775274
0.06000000 1411704.04164089 18083.92961828
0.06100000 1403421.85759013 15662.18866262
0.06200000 1395054.50314008 22411.55164054
0.06300000 1386605.25697642 14642.55219829
0.06400000 1378072.99642769 14779.83357789
0.06500000 1369463.82681770 16269.23102363
0.06600000 1360778.44412961 16410.98880405
0.06700000 1352018.73161354 19306.82839098
0.06800000 1343187.82643093 18072.59305059
0.06900000 1334288.29909582 19614.03891502
0.07000000 1325320.65259338 16937.59873331
0.07100000 1316288.47592520 17059.09944700
0.07200000 1307193.71431301 15745.14902651
0.07300000 1298039.70142417 15849.06549701
0.07400000 1288827.98136821 17399.17856387
0.07500000 1279560.74128393 17504.39176124
0.07600000 1270238.89690531 19072.63793117
0.07700000 1260867.96240744 20653.01819262
0.07800000 1251447.98535007 14829.65932185
0.07900000 1241981.09579342 19374.90600313
0.08000000 1232471.40636477 16471.98111878
0.08100000 1222920.17855304 16546.11079214
0.08200000 1213328.86016205 21148.32302501
0.08300000 1203700.62356034 19716.61713926
0.08400000 1194037.90224406 18268.78076185
0.08500000 1184342.69850824 15278.02152799
0.08600000 1174616.95546145 15328.75198848
0.08700000 1164864.44607978 21526.69597440
0.08800000 1155084.81797055 16962.42134852
0.08900000 1145283.11089727 18553.58726799
0.09000000 1135459.67823003 15499.02533591
0.09100000 1125617.04968208 23300.27402309
0.09200000 1115757.03853941 18677.77370276
0.09300000 1105884.89753054 17152.27556672
0.09400000 1095997.24285558 20303.34987811
0.09500000 1086099.92321578 17203.82359236
0.09600000 1076194.17670284 21922.07640995
0.09700000 1066284.50347347 26646.45099453
0.09800000 1056370.33921642 20393.23035742
0.09900000 1046455.00689898 15696.82584159
0.10000000 1036538.83100587 15703.56402823
0.10100000 1026624.49684403 17278.09109450
0.10200000 1016715.04935175 15708.24825134
0.10300000 1006811.31668207 15706.25727907
0.10400000 996916.93519640 20411.87520842
0.10500000 987034.20872264 21971.38251991
0.10600001 977160.33934270 17251.76660285
0.10700001 967303.13622865 15670.31154431
0.10800001 957461.01989765 18785.38609446
0.10900001 947637.65481459 25017.63526458
0.11000001 937833.06130083 17176.41332621
0.11100001 928050.65225251 18709.50203013
0.11200001 918291.15239829 23347.55364886
0.11300001 908556.80819467 15536.32215159
0.11400001 898849.51820588 21707.21688674
0.11500001 889171.52534127 17018.74379641
0.11600001 879523.23979344 23153.45037789
0.11700001 869907.72126099 18476.84086975
0.11800001 860324.34547890 24570.86446412
0.11900001 850775.73310942 21439.54948420
0.12000001 841263.12716817 18322.71177281
0.12100001 831791.28087412 25877.02796701
0.12200001 822357.61422580 19724.24830644
0.12300001 812966.13026449 21169.63902948
0.12400001 803616.03294002 18081.36159310
0.12500001 794309.57994848 16513.69694526
0.12600001 785050.09792109 19441.76659118
0.12700001 775836.55645585 16385.66884454
0.12800001 766670.88803142 17802.09885909
0.12900001 757555.05496979 16249.55669498
0.13000001 748489.70361415 23532.51739083
0.13100001 739475.57457344 19034.10218674
0.13200001 730514.69138141 20403.27629210
0.13300001 721608.41123977 23206.92759951
0.13400001 712756.08860982 21649.96721222
0.13500001 703961.27195015 18669.05381233
0.13600001 695223.56229250 15715.52936662
0.13700001 686544.41151807 18474.91098510
0.13800001 677923.02302492 19788.57397524
0.13900001 669363.75575177 14056.63953367
0.14000001 660864.47697591 15375.01278194
0.14100001 652428.49651139 13896.72763110
0.14200001 644054.78336340 13814.97575473
0.14300001 635745.85264038 16478.53327769
0.14400001 627498.59917966 15012.90469353
0.14500001 619319.42320218 14919.40560872
0.14600001 611205.33861133 13477.07835215
0.14700001 603159.45378541 13390.14050574
0.14800001 595178.32754664 13302.23624825
0.14900001 587266.39310973 15856.19336207
0.15000001 579422.60889010 13123.92271059
0.15100001 571648.00171227 18247.00507564
0.15200001 563944.42401464 15531.03017023
0.15300001 556310.46900516 17991.08141661
0.15400001 548745.44328052 12758.33215835
0.15500001 541253.13094008 18997.98579257
0.15600001 533830.40892345 12571.70672347
0.15700001 526482.46864585 17468.68913414
0.15800001 519203.28838612 12382.99901247
0.15900001 511999.15414472 13516.77830742
0.16000001 504865.08536273 14630.99086443
0.16100001 497806.51808186 14516.03875249
0.16200001 490820.35136062 15600.72560445
0.16300001 483907.37698029 14284.94644282
0.16400001 477068.52041198 12988.19108138
0.16500001 470302.40196369 17565.79554265
0.16600001 463610.77574623 16258.83067305
0.16700001 456992.08795364 12667.82127618
0.16800001 450447.42191657 13702.61122169
0.16900001 443978.03241471 20378.59265007
0.17000001 437581.03691090 12346.34953943
0.17100001 431258.76303730 15577.06725648
0.17200001 425009.91925997 12131.90871818
0.17300001 418835.03131294 12024.75431686
0.17400001 412734.67223717 14084.57135525
0.17500001 406706.45353281 10737.05088035
0.17600001 400750.92291463 11703.93125649
0.17700001 394871.20999794 13705.98034637
0.17800001 389062.79402054 14624.87111800
0.17900001 383326.75105490 11384.80504408
0.18000001 377664.98466640 10253.60481802
0.18100001 372075.77868760 12189.20308558
0.18200001 366556.43262206 11068.17200586
0.18300001 361109.74676122 12956.61832585
0.18400001 355734.43229581 9871.63096255
0.18500001 350430.62653501 12710.11942488
0.18600001 345197.89672765 10651.08160673
0.18700001 340034.43321267 11506.76576355
0.18800001 334939.78482491 9495.54334841
0.18900001 329918.28262492 11283.20579887
0.19000001 324961.94905802 13034.22439257
0.19100001 320076.91161528 18436.43098016
0.19200001 315258.36090196 11864.74897317
0.19300001 310509.70639375 12650.16603623
0.19400001 305826.50446939 15207.22365334
0.19500001 301210.77484503 13283.39579837
0.19600001 296660.04543276 12272.82665952
0.19700001 292177.09806464 9545.42624487
0.19800001 287758.15505769 9448.53946785
0.19900001 283404.17680816 11902.97598848
0.20000001 279112.98239220 11781.35954358
0.20100001 274886.85971209 9161.97946722
0.20200001 270722.36782152 14013.94403263
0.20300001 266620.78407369 11422.03492958
0.20400001 262581.00310095 9689.23947239
0.20500001 258601.86436095 11187.11718103
0.20600001 254682.90455780 9489.48547237
0.20700001 250824.19539547 10956.00137275
0.20800001 247024.07911074 7744.20524619
0.20900001 243284.91578893 9196.17025154
0.21000001 239600.58222848 10616.70230042
0.21100001 235975.18168002 8254.41224538
0.21200001 232405.19925307 10395.48505403
0.21300001 228891.16980775 9551.62896764
0.21400001 225432.65959872 10178.28506208
0.21500001 222029.85927107 7913.14455854
0.21600001 218679.17596077 7829.80826546
0.21700001 215382.55737484 8451.61195098
0.21800001 212138.36117460 7665.62004348
0.21900001 208945.28060097 7584.71404443
0.22000001 205802.78689457 9551.30779139
0.22100001 202712.32185176 8100.38476421
0.22200001 199671.01493024 7346.89534175
0.22300001 196678.28442930 9912.58600396
0.22400001 193733.36112762 7192.35137196
0.22500001 190838.36741581 9057.18934584
0.22600001 187988.18390719 7681.19755768
0.22700001 185185.39559742 8233.34307761
0.22800001 182427.51666616 6266.38549382
0.22900001 179714.07145424 6820.14933422
0.23000001 177045.60635602 6748.09360539
0.23100001 174421.48973665 7283.84175588
0.23200001 171838.55193944 6606.33344175
0.23300001 169298.89260912 7725.10883511
0.23400001 166799.65708208 9995.46992338
0.23500001 164341.25761010 6399.44887401
0.23600001 161923.36100349 6332.01333153
0.23700001 159544.95002342 8543.63247785
0.23800001 157205.03729595 6762.96102435
0.23900001 154903.46903464 7249.48269372
0.24000001 152638.79138177 7725.04959723
0.24100001 150412.16052039 7097.95019070
0.24200001 148221.70052751 6483.21748774
0.24300001 146066.13958174 8553.63353852
0.24400001 143945.61630398 6877.00214423
0.24500001 141859.12523836 8898.82334716
0.24600001 139806.36946320 8287.72197383
0.24700001 137787.48754975 6663.40321312
0.24800001 135800.81686457 6593.80897479
0.24900001 133844.67139461 6023.01049769
0.25000001 131921.39456271 5960.20888831
0.25100001 130027.96300146 6389.57440418
0.25200001 128166.40038726 5836.69814977
0.25300001 126332.85786425 7219.92316852
0.25400001 124529.52223949 6668.55623142
0.25500001 122753.07486827 5185.09012775
0.25600001 121006.07731687 7463.65520203
0.25700001 119285.53462476 8309.43073511
0.25800001 117591.89952788 6395.82371793
0.25900001 115925.66996064 7233.76214781
0.26000001 114284.28275842 4921.65286986
0.26100001 112668.15415347 5313.43040129
0.26200001 111078.17091575 6134.84766996
0.26300001 109511.01594933 7372.28194255
0.26400001 107968.77054026 6008.46236488
0.26500001 106450.02283989 4672.09172352
0.26600001 104953.84752871 4623.74197167
0.26700001 103480.59239494 4575.91201224
0.26800001 102029.78675526 4528.59229943
0.26900001 100599.85693023 4481.72383832
0.27000001 99191.90530545  4838.58136977
0.27100001 97804.46656701  4389.46466725
0.27200001 96438.26886678  5923.72094547
0.27300001 95091.86196248  5471.58599626
0.27400001 93763.84602484  5414.86236419
0.27500001 92457.23133344  4976.04842586
0.27600001 91167.31616997  4545.60259936
0.27700001 89898.07589872  6372.87490207
0.27800001 88645.87130138  4080.81287849
0.27900001 87412.08813437  4038.43866294
0.28000001 86195.38925931  3996.44941215
0.28100001 84996.28748186  5393.01469597
0.28200001 83814.61917968  4269.51690309
0.28300001 82649.30778835  4225.03281411
0.28400001 81499.78629881  4877.76244085
0.28500001 80366.89424405  3792.51391888
0.28600001 79249.59738011  4776.37346017
0.28700001 78148.47061163  3713.61549924
0.28800001 77060.88979821  4342.76665013
0.28900001 75990.32841067  3636.13738656
0.29000001 74933.37764106  4906.26313328
0.29100001 73891.69614397  4207.39337759
0.29200001 72863.79030102  4803.54560297
0.29300001 71850.38480197  3802.32254371
0.29400001 70849.91093551  4075.64131949
0.29500001 69864.44887585  4963.17068308
0.29600001 68891.09072878  3069.09823725
0.29700001 67931.44030586  4251.14973558
0.29800001 66985.07910846  3304.70903426
0.29900001 66051.90503542  4458.50380095
0.30000001 65130.22344584  3822.81864612
0.30100001 64222.41339482  3200.20301096
0.30200001 63325.80412403  4605.05269391
0.30300001 62442.22225532  3416.83856357
0.30400001 61570.30972596  3661.89434431
0.30500001 60710.89863638  3065.29341727
0.30600001 59861.87451778  3859.29523287
0.30700001 59025.48562934  3272.37307822
0.30800001 58200.27997711  3506.85803605
0.30900001 57386.67065751  2935.32834310
0.31000001 56584.16748010  2903.61669171
0.31100001 55792.34687047  3655.51474002
0.31200001 55012.36152788  3615.96269443
0.31300001 54242.50665486  3576.75105817
0.31400001 53484.83496476  3285.30614326
0.31500001 52736.26454299  3499.57868077
0.31600002 51999.81785280  3708.88718396
0.31700002 51273.03221510  2445.72375246
0.31800002 50556.52812788  3386.78197965
0.31900002 49851.04152613  2871.42012786
0.32000002 49156.03746806  3786.98130585
0.32100002 48470.57977613  2575.24202544
0.32200002 47796.40043912  3242.02999530
0.32300002 47130.64486462  3435.82417332
0.32400002 46476.21993960  2492.28741227
0.32500002 45831.17277285  2913.48779113
0.32600002 45196.26514344  2660.25229231
0.32700002 44571.35755154  3070.07525353
0.32800002 43957.10351421  2386.21147726
0.32900002 43350.58910375  3004.19596715
0.33000002 42755.22344243  3184.19541666
0.33100002 42168.32556227  2309.98098369
0.33200002 41592.64264821  2077.55259866
0.33300002 41025.66596278  2260.92455828
0.33400002 40468.69601384  2846.97289939
0.33500002 39921.03536444  2012.02027765
0.33600002 39382.24869618  2787.08187222
0.33700002 38852.88992534  2363.80993500
0.33800002 38333.87971960  3118.84460169
0.33900002 37823.12818027  2121.87759140
0.34000002 37321.92875159  2481.72176987
0.34100002 36830.08207584  2456.19828996
0.34200002 36348.01828757  2057.11619241
0.34300002 35874.40161095  2406.45497403
0.34400002 35410.63039587  1832.50020977
0.34500002 34955.59757310  2539.87383995
0.34600002 34510.21469968  2155.50811223
0.34700002 34072.72744947  2134.31574852
0.34800002 33645.04433210  2113.58178504
0.34900002 33225.94368895  2093.23455154
0.35000002 32816.08333149  2246.09693000
0.35100002 32415.71528077  1711.54984789
0.35200002 32022.69554258  2034.72217115
0.35300002 31639.77560385  1680.07216414
0.35400002 31264.86306568  2497.28105565
0.35500002 30899.14798104  1650.01458034
0.35600002 30541.79333185  2289.71835454
0.35700002 30192.88058859  2756.30819948
0.35800002 29853.01226288  2411.37717975
0.35900002 29522.13703304  1913.03457035
0.36000002 29199.35629670  1739.25974019
0.36100002 28884.59518880  1882.12031165
0.36200002 28579.66556113  2645.47686797
0.36300002 28281.71362776  1544.18163722
0.36400002 27992.57101636  2145.63067004
0.36500002 27711.09246130  2129.87466746
0.36600002 27438.57480277  1661.54297589
0.36700002 27173.69096351  1499.98781224
0.36800002 26917.75215459  2234.84647850
0.36900002 26669.56069937  1776.19282671
0.37000002 26428.74352859  1617.83561174
0.37100002 26195.88433735  1607.90345679
0.37200002 25971.59007856  1889.04369385
0.37300002 25754.67523750  1444.83734927
0.37400002 25545.35117676  1724.31128611
0.37500002 25343.91946197  1429.39712537
0.37600002 25150.19179201  1564.46775453
0.37700002 24963.77594916  1556.99077971
0.37800002 24784.76188044  1409.01377965
0.37900002 24613.96796588  2385.09360888
0.38000002 24449.72569227  1816.49245636
0.38100002 24291.99755859  1670.31783126
0.38200002 24142.61606945  1664.39203068
0.38300002 23999.58818024  1935.32688254
0.38400002 23863.80498314  1791.57524398
0.38500002 23734.31161825  1374.21670780
0.38600002 23612.70493550  1644.86110373
0.38700002 23496.81076221  1504.26589626
0.38800002 23387.58894896  1774.06564377
0.38900002 23285.02385893  1498.39135631
0.39000002 23189.38554530  1632.06903200
0.39100002 23099.23844414  1901.52939881
0.39200002 23016.11812291  1356.80022763
0.39300002 22938.39060410  1897.92252850
0.39400002 22868.06639322  1761.41289739
0.39500002 22802.22076206  1489.89717518
0.39600002 22742.57889149  1760.61682830
0.39700002 22688.13242619  1896.27419802
0.39800002 22640.47044360  1761.54188632
0.39900002 22597.21417084  1355.83291449
0.40000002 22559.83500985  1628.36896816
0.40100002 22527.40065590  1494.24255630
0.40200002 22500.59356274  1768.20922891
0.40300002 22478.68217015  1634.64984486
0.40400002 22461.66905165  1910.36504336
0.40500002 22449.07090816  1503.86333139
0.40600002 22442.19872787  1507.10592698
0.40700002 22439.22488147  1785.26481616
0.40800002 22440.71335266  1514.41161236
0.40900002 22446.26308125  1518.48976940
0.41000002 22456.89969107  2076.70189733
0.41100002 22471.28768690  1944.21590279
0.41200002 22488.78002201  1811.13398489
0.41300002 22511.74248637  2236.76683943
0.41400002 22537.51749244  2104.44079557
0.41500002 22566.99834616  2112.27114529
0.41600002 22599.04952417  2120.35592208
0.41700002 22636.04641265  1419.28017732
0.41800002 22676.61579012  1710.27044393
0.41900002 22718.64201669  1574.40196636
0.42000002 22764.28392580  1725.07751764
0.42100002 22813.59222065  1588.51050160
0.42200002 22865.23109775  2031.11857466
0.42300002 22919.24579537  1603.43051182
0.42400002 22975.76149892  1611.17535146
0.42500002 23035.31183332  2060.73909426
0.42600002 23095.87601091  1627.22002146
0.42700002 23159.85429636  1635.54898791
0.42800002 23225.24689504  2092.36259192
0.42900002 23293.36155346  1652.66408053
0.43000002 23363.14555083  2114.59840401
0.43100002 23433.18042610  1518.47016357
0.43200002 23506.21264260  2442.76573358
0.43300002 23579.83861797  1688.55232345
0.43400002 23655.51043730  1697.87434210
0.43500002 23731.69142772  1707.25796221
0.43600002 23809.90148513  1872.88693957
0.43700002 23888.31602800  1726.40868116
0.43800002 23967.12162001  1893.88204016
0.43900002 24047.92143107  2222.02804553
0.44000002 24128.54203346  1596.10313115
0.44100002 24210.17687898  2407.70220472
0.44200002 24292.04100796  2421.30930221
0.44300002 24374.38779319  2272.66802554
0.44400002 24456.76584557  1958.98703707
0.44500002 24538.85352494  1969.97925434
0.44600002 24620.85371387  1815.91115172
0.44700002 24703.90907104  2158.13359872
0.44800002 24785.49981400  2003.16418990
0.44900002 24867.52545449  2014.26965727
0.45000002 24949.45044538  2025.39648314
0.45100002 25029.95899499  3224.35947054
0.45200002 25110.40691918  2730.00356963
0.45300002 25189.76510663  2058.50770207
0.45400002 25268.66204973  2586.87939994
0.45500002 25347.05046437  2773.98133429
0.45600002 25423.91575912  2439.93331104
0.45700002 25500.15497919  1751.86073010
0.45800002 25574.94983189  1760.83537938
0.45900002 25648.43510855  2831.58737018
0.46000002 25721.24010337  1778.62383744
0.46100002 25791.81263009  1966.10996998
0.46200002 25861.65468476  1975.70120328
0.46300002 25929.93352442  2165.66815060
0.46400002 25996.04296154  2175.86889901
0.46500002 26061.66909298  2732.56613391
0.46600002 26124.51583882  2379.02914762
0.46700002 26185.59378768  2022.05164812
0.46800002 26245.64989091  2584.93418027
0.46900002 26302.95085017  2410.66555967
0.47000002 26358.59571027  2234.68185023
0.47100002 26412.41547964  2243.99892551
0.47200002 26464.27300280  1877.64025854
0.47300002 26513.90104823  1885.13845388
0.47400002 26560.70885827  1892.45059585
0.47500002 26605.88110062  2469.55800081
0.47600002 26649.43768654  2097.44409253
0.47700002 26689.50454196  2679.09259291
