# SAXS profile: number of points = 501, q_min = 0, q_max = 0.5, delta_q = 0.001
#    q    intensity    error
0.00000000 1682732.95097188 252.40994265
0.00100000 1682650.66893255 605.75425520
0.00200000 1682403.75595671 984.20622840
0.00300000 1681992.43954578 1110.11504965
0.00400000 1681416.58300823 1513.27498221
0.00500000 1680676.71634210 1512.60910458
0.00600000 1679772.73514310 2469.26602119
0.00700000 1678705.18759363 2417.33557060
0.00800000 1677473.90782338 3170.42581964
0.00900000 1676080.13112947 3016.94436500
0.01000000 1674523.28535377 3315.55624816
0.01100000 1672804.54599406 5419.88696500
0.01200000 1670923.92985625 4235.79234790
0.01300000 1668882.53394212 4906.51486619
0.01400000 1666680.48848436 4125.03439187
0.01500000 1664319.06532285 5192.67571503
0.01600000 1661797.80713937 4661.34305740
0.01700000 1659118.95963260 4927.58353115
0.01800000 1656282.37348340 8024.68846062
0.01900000 1653288.77022392 4959.86653447
0.02000000 1650139.37483551 5717.73319245
0.02100000 1646836.19902617 5978.01567350
0.02200000 1643377.73861103 8504.48018369
0.02300000 1639767.30283018 6493.47881478
0.02400000 1636004.33306540 9816.02644598
0.02500000 1632091.56947734 7638.18889399
0.02600000 1628028.81254061 7252.86869160
0.02700000 1623818.22227555 8184.04421511
0.02800000 1619459.74915246 7749.11525507
0.02900000 1614955.82972676 8720.76188093
0.03000000 1610308.05317303 8985.51934973
0.03100000 1605516.54407507 9247.77571939
0.03200000 1600582.72496059 8715.17333882
0.03300000 1595510.57533181 8137.10430932
0.03400000 1590298.10348484 13358.50468564
0.03500000 1584948.57370319 10270.46723187
0.03600000 1579463.46981091 11395.82946133
0.03700000 1573844.19040623 10765.09476024
0.03800000 1568092.63266378 11008.01079075
0.03900000 1562210.64572578 14997.22289349
0.04000000 1556198.26980119 10527.68178305
0.04100000 1550059.41007670 11718.44968352
0.04200000 1543794.94023949 12944.72117445
0.04300000 1537405.70398385 14205.62936421
0.04400000 1530895.19190458 13433.60593285
0.04500000 1524265.04759662 13672.65811224
0.04600000 1517515.01444622 11768.32948410
0.04700000 1510649.53497501 13052.01258921
0.04800000 1503668.90724964 13262.36037901
0.04900000 1496576.97481355 14591.62618364
0.05000000 1489373.34433393 14811.81859913
0.05100000 1482062.73570102 12716.09886468
0.05200000 1474643.07786359 11723.41301534
0.05300000 1467120.71179448 17825.51747929
0.05400000 1459495.65955638 14449.00770342
0.05500000 1451770.33396989 18292.30706134
0.05600000 1443945.82995889 12345.73742225
0.05700000 1436027.44336824 16241.47114262
0.05800000 1428013.86114548 20220.67721797
0.05900000 1419907.76387094 16612.92161321
0.06000000 1411713.26727342 12917.17699903
0.06100000 1403431.27527014 19577.86720492
0.06200000 1395064.28361367 15820.02971566
0.06300000 1386615.25007171 17304.95912999
0.06400000 1378083.23627218 14779.94340023
0.06500000 1369474.31856117 20336.69458194
0.06600000 1360789.29896567 17778.71302283
0.06700000 1352029.75269756 22065.12659665
0.06800000 1343199.11506432 19462.95608833
0.06900000 1334299.76751479 15411.16303633
0.07000000 1325332.49960052 15526.27095989
0.07100000 1316300.42686581 18480.85885880
0.07200000 1307206.02932879 20039.46936840
0.07300000 1298052.16784808 24494.24555499
0.07400000 1288840.73456674 17399.35073206
0.07500000 1279573.75050541 18963.28387135
0.07600000 1270252.13700970 14671.41287027
0.07700000 1260881.46181389 17702.77655392
0.07800000 1251461.74262937 20761.75128387
0.07900000 1241995.02751789 19375.12333804
0.08000000 1232485.66774458 19467.11203525
0.08100000 1222934.59656729 16546.30586788
0.08200000 1213343.53992648 25680.41722760
0.08300000 1203715.62629649 16683.49936346
0.08400000 1194052.97009631 18269.01130000
0.08500000 1184357.98162635 21389.50615231
0.08600000 1174632.57151269 21460.53808914
0.08700000 1164880.23545887 26139.91371117
0.08800000 1155100.82736932 21588.83547743
0.08900000 1145299.39615014 18553.85108910
0.09000000 1135476.15649786 21698.95036999
0.09100000 1125633.62961831 18640.49378223
0.09200000 1115773.90796899 24904.07479603
0.09300000 1105901.94454904 18711.86178108
0.09400000 1096014.40070099 23427.30891601
0.09500000 1086117.30397660 17204.09890363
0.09600000 1076211.79739221 17224.77062696
0.09700000 1066302.19520516 17242.10730707
0.09800000 1056388.30014540 17256.10369422
0.09900000 1046473.11536010 17266.80721537
0.10000000 1036557.07061663 18844.60843002
0.10100000 1026642.81597495 20419.92657013
0.10200000 1016733.63484888 17279.38893702
0.10300000 1006830.15083239 18847.86131020
0.10400000 996935.80841444 15701.73972122
0.10500000 987053.07415623 15694.14461748
0.10600001 977179.45794534 20388.85034940
0.10700001 967322.45444728 26640.06164910
0.10800001 957480.35452091 18785.76543979
0.10900001 947657.15821246 17199.97823108
0.11000001 937852.78588723 18738.29954403
0.11100001 928070.36055030 15591.58279119
0.11200001 918311.03060684 23348.05905234
0.11300001 908576.66704950 18643.99408563
0.11400001 898869.49891697 23258.24937958
0.11500001 889191.54819854 18566.32040064
0.11600001 879543.33613497 20066.78215889
0.11700001 869927.85428289 20017.04086975
0.11800001 860344.61185935 21500.01286298
0.11900001 850796.06105895 22971.49473059
0.12000001 841283.44936546 16796.22485777
0.12100001 831811.62291077 18266.58409963
0.12200001 822377.99543521 22759.31209589
0.12300001 812986.54907275 24194.48084031
0.12400001 803636.52334117 19588.64117941
0.12500001 794330.05213363 19516.69030056
0.12600001 785070.60750714 16451.15535555
0.12700001 775857.12873241 14896.45757368
0.12800001 766691.33068127 20769.66912701
0.12900001 757575.49139023 17727.26733405
0.13000001 748510.24500514 16179.04970838
0.13100001 739495.83012056 14642.01812658
0.13200001 730535.09639767 21861.26379025
0.13300001 721628.60025726 18856.15621366
0.13400001 712776.38921831 14433.72256216
0.13500001 703981.48607916 17233.46759174
0.13600001 695243.81713048 14287.26111569
0.13700001 686564.55362803 15633.07562326
0.13800001 677943.14250301 18375.64974406
0.13900001 669383.78241743 21085.59014051
0.14000001 660884.28631970 18171.01430932
0.14100001 652448.21381915 13897.14760978
0.14200001 644074.38909260 16578.47555717
0.14300001 635765.37902134 16479.03940151
0.14400001 627517.96362978 15013.36798802
0.14500001 619338.72944926 21701.63010361
0.14600001 611224.46143870 14825.25001157
0.14700001 603178.37527409 14729.61661909
0.14800001 595197.29626604 14632.92621906
0.14900001 587285.10536499 13213.91549416
0.15000001 579441.16069919 15749.21149090
0.15100001 571666.47553643 14337.39588296
0.15200001 563962.54754955 14237.23518470
0.15300001 556328.55285091 15421.42821275
0.15400001 548763.23142808 14034.62030608
0.15500001 541270.88892161 18998.60909775
0.15600001 533847.82969491 15086.54037919
0.15700001 526499.77054049 17469.26321103
0.15800001 519220.50460382 16098.43250507
0.15900001 512015.88209983 13517.21992546
0.16000001 504881.72157128 15850.76239692
0.16100001 497823.02688241 13306.81013670
0.16200001 490836.55286969 13201.04971260
0.16300001 483923.36325822 13094.96682795
0.16400001 477084.24335932 16530.96981282
0.16500001 470317.74266778 14053.09481438
0.16600001 463626.00955885 13936.59850533
0.16700001 457006.94193970 11516.57548063
0.16800001 450462.11982928 12561.13680453
0.16900001 443992.49743547 15850.53290688
0.17000001 437595.20585033 11224.31756007
0.17100001 431272.69874624 15577.57061431
0.17200001 425023.51708540 14338.16902597
0.17300001 418848.34406650 16397.91344459
0.17400001 412747.64012286 14085.01388437
0.17500001 406719.18401165 12884.86435801
0.17600001 400763.30348305 14896.37269401
0.17700001 394883.35019467 11597.72454298
0.17800001 389074.56786443 10446.65264058
0.17900001 383338.25824375 14490.18684604
0.18000001 377676.13049918 12304.68891288
0.18100001 372086.53207604 11173.75908605
0.18200001 366566.95473164 11068.48972097
0.18300001 361119.95622196 11960.29351507
0.18400001 355744.30419164 14807.85736151
0.18500001 350440.13824876 10755.00835094
0.18600001 345207.04675108 10651.36393071
0.18700001 340043.25528900 13424.90835307
0.18800001 334948.31227926 9495.78510176
0.18900001 329926.52521031 13164.06897786
0.19000001 324969.75320997 10241.42225631
0.19100001 320084.39921688 13827.64669953
0.19200001 315265.56580428 10039.63241742
0.19300001 310516.54774626 16264.85753951
0.19400001 305832.92995318 10734.73634861
0.19500001 301216.85023132 12398.08614139
0.19600001 296665.84405336 10519.77132726
0.19700001 292182.42489986 8677.81842962
0.19800001 287763.20477601 10307.67848220
0.19900001 283408.88717071 10202.72042033
0.20000001 279117.37410591 11781.54491782
0.20100001 274890.74776737 8329.19005101
0.20200001 270726.00044504 9892.32852381
0.20300001 266624.06169906 8158.69667361
0.20400001 262583.93150698 8881.90190303
0.20500001 258604.45275345 7990.87796779
0.20600001 254685.17712986 8698.77263604
0.20700001 250825.95309012 9390.92412759
0.20800001 247025.61735324 8518.67881711
0.20900001 243286.05021160 7663.51094393
0.21000001 239601.37161511 7583.38377010
0.21100001 235975.60990864 9004.82969980
0.21200001 232405.33363352 9652.95598881
0.21300001 228890.83486183 8082.13576106
0.21400001 225432.06393795 7270.18440571
0.21500001 222028.88761710 8632.48355868
0.21600001 218677.90735803 7829.76284313
0.21700001 215380.91432471 7747.25185455
0.21800001 212136.41410879 7665.54968625
0.21900001 208942.90632473 6895.11623473
0.22000001 205800.05824836 8186.72670421
0.22100001 202709.36390644 10125.33320589
0.22200001 199667.69542801 8014.66167345
0.22300001 196674.65302993 6608.26865428
0.22400001 193729.44587449 9153.71675042
0.22500001 190834.10618129 7763.13180655
0.22600001 187983.62065856 8321.09536194
0.22700001 185180.49030379 7599.80768146
0.22800001 182422.26498653 7519.44611834
0.22900001 179708.54189880 6819.93948758
0.23000001 177039.81058118 6134.42972675
0.23100001 174415.39121293 7283.58708151
0.23200001 171832.07637778 9008.29703014
0.23300001 169292.19685968 7130.58766897
0.23400001 166792.71669164 5879.44354145
0.23500001 164333.94333568 8144.39061691
0.23600001 161915.86419198 7482.94201755
0.23700001 159537.07904292 7404.11618858
0.23800001 157196.99575388 6762.61507719
0.23900001 154895.14478420 6691.47057118
0.24000001 152630.17809472 6621.09743893
0.24100001 150403.37320239 6551.57124659
0.24200001 148212.68257389 5402.35253536
0.24300001 146056.88392261 5880.25042488
0.24400001 143936.09596991 6347.58213254
0.24500001 141849.35202731 6804.51373863
0.24600001 139796.32777930 6733.29044601
0.24700001 137777.26960518 6150.37760612
0.24800001 135790.39015029 6086.12557445
0.24900001 133834.09488937 5018.77879578
0.25000001 131910.57940567 6456.36361445
0.25100001 130017.02556362 6389.03693846
0.25200001 128155.32333213 4863.49475054
0.25300001 126321.52396701 7219.27543626
0.25400001 124518.01561227 5715.37718700
0.25500001 122741.40206136 7069.90509322
0.25600001 120994.30133234 5130.76359075
0.25700001 119273.55861232 5077.47563036
0.25800001 117579.77543383 5938.36683925
0.25900001 115913.50672270 4520.62697608
0.26000001 114271.92709574 4473.74615748
0.26100001 112655.73515996 7083.79296204
0.26200001 111065.60470872 4819.69214439
0.26300001 109498.31254705 5203.36005845
0.26400001 107955.99891371 5578.62650784
0.26500001 106437.12627156 4246.84153919
0.26600001 104940.89963296 5043.45987501
0.26700001 103467.56116028 4991.27538656
0.26800001 102016.69331701 4116.37377013
0.26900001 100586.67036391 6110.64051377
0.27000001 99178.63278022  4434.77277463
0.27100001 97791.17870158  3989.88027984
0.27200001 96424.92688172  4738.32113120
0.27300001 95078.46300860  3907.72501458
0.27400001 93750.49742640  5027.37066241
0.27500001 92443.73274169  4592.60485995
0.27600001 91153.85138481  6438.65259728
0.27700001 89884.63605979  4123.00845119
0.27800001 88632.42433270  5563.90070081
0.27900001 87398.60131837  3670.74142910
0.28000001 86181.96279682  3995.82689419
0.28100001 84982.89005326  4313.73170327
0.28200001 83801.24175280  5691.78060924
0.28300001 82635.98366721  3872.32237792
0.28400001 81486.51023171  4528.61302047
0.28500001 80353.63534198  4826.03956706
0.28600001 79236.38376676  3411.12648261
0.28700001 78135.30218903  4725.62330007
0.28800001 77047.80694825  4008.02710716
0.28900001 75977.29627996  4627.01756246
0.29000001 74920.48074873  3270.27913948
0.29100001 73878.87701981  3559.48446330
0.29200001 72851.09921386  5122.88953921
0.29300001 71837.77728856  4118.45996690
0.29400001 70837.37080029  4074.91994818
0.29500001 69852.07109736  3411.57531389
0.29600001 68878.85961016  3682.26400907
0.29700001 67919.27202227  3035.99160311
0.29800001 66973.10447952  3904.86704153
0.29900001 66040.06083902  3566.16345413
0.30000001 65118.55848505  4116.14427670
0.30100001 64210.88394115  3781.37913431
0.30200001 63314.44303770  3165.40572952
0.30300001 62430.99445153  2846.85348176
0.30400001 61559.29264978  3097.97154926
0.30500001 60700.09735228  3343.36152045
0.30600001 59851.23325517  3582.99424845
0.30700001 59014.98950702  3271.79117317
0.30800001 58190.00795229  3506.23909516
0.30900001 57376.53341690  2668.00893020
0.31000001 56574.28287688  3430.94754751
0.31100001 55782.65869426  3915.94282574
0.31200001 55002.90121232  2582.38633418
0.31300001 54233.29198802  2809.82699093
0.31400001 53475.77609810  4042.76886443
0.31500001 52727.51542793  2999.14121954
0.31600002 51991.25789326  3213.83975884
0.31700002 51264.74555173  2689.86132646
0.31800002 50548.42847623  3144.36514224
0.31900002 49843.18262034  2631.72016696
0.32000002 49148.39010475  2603.14460516
0.32100002 48463.22860408  3043.00626814
0.32200002 47789.29327224  3704.62618988
0.32300002 47123.82718118  2519.23992039
0.32400002 46469.69634756  2718.47736506
0.32500002 45824.83501591  2464.91799222
0.32600002 45190.19538518  2659.89502632
0.32700002 44565.60614482  3727.46747446
0.32800002 43951.62421203  3036.61786060
0.32900002 43345.41850209  2360.15814920
0.33000002 42750.30875736  2759.31880941
0.33100002 42163.68974096  2729.67740309
0.33200002 41588.27228030  2285.06772865
0.33300002 41021.55096763  3082.76970120
0.33400002 40464.94797648  2643.37285174
0.33500002 39917.55972104  2011.84510521
0.33600002 39379.06416751  2786.85650311
0.33700002 38849.98819318  2560.60284308
0.33800002 38331.26320783  1949.14482642
0.33900002 37820.87603910  3279.07010788
0.34000002 37319.88829935  2099.80361461
0.34100002 36828.38724804  2456.08526189
0.34200002 36346.63022486  2618.04789908
0.34300002 35873.29042140  2036.16806075
0.34400002 35409.80889497  3115.17808507
0.34500002 34955.07290354  1814.16836961
0.34600002 34510.01992663  1975.87128448
0.34700002 34072.80041181  2134.32031888
0.34800002 33645.48562441  2113.60950703
0.34900002 33226.59377493  2442.15475812
0.35000002 32817.03764753  2073.38053677
0.35100002 32417.01623195  1882.78039193
0.35200002 32024.28607672  2034.82323369
0.35300002 31641.67589935  1848.19037682
0.35400002 31267.02443286  1831.46604290
0.35500002 30901.66572896  1980.17883370
0.35600002 30544.57241536  1962.79431638
0.35700002 30196.01742227  1783.67883362
0.35800002 29856.34416195  2250.86989298
0.35900002 29525.76213237  1753.83035373
0.36000002 29203.29922252  1581.35872780
0.36100002 28888.82802606  2196.12881056
0.36200002 28584.16090308  1712.04839838
0.36300002 28286.49827732  1698.88716701
0.36400002 27997.70260511  1992.73657731
0.36500002 27716.40490707  1673.79377162
0.36600002 27444.20644184  1812.96436342
0.36700002 27179.58062468  1800.37550586
0.36800002 26923.93543696  1788.28787643
0.36900002 26676.02310672  1776.62322306
0.37000002 26435.45560821  1765.35980914
0.37100002 26202.79797672  2046.96267491
0.37200002 25978.72391390  2034.91354057
0.37300002 25762.11261957  2023.35642099
0.37400002 25553.06626838  2012.30406396
0.37500002 25351.83930110  1429.84380432
0.37600002 25158.33176823  2134.05559333
0.37700002 24972.22695946  1982.29546995
0.37800002 24793.41738531  1691.40701415
0.37900002 24622.82326822  2385.95168772
0.38000002 24458.81489717  1537.60347135
0.38100002 24301.26983946  1670.95539332
0.38200002 24152.16104803  1942.55840512
0.38300002 24009.31721377  1382.93673703
0.38400002 23873.71781601  1378.70726919
0.38500002 23744.44813976  1649.76433491
0.38600002 23622.98283082  1919.83990561
0.38700002 23507.32944462  1778.56463004
0.38800002 23398.32019701  1501.82125299
0.38900002 23295.94290089  1499.09399669
0.39000002 23200.39942619  1496.77383989
0.39100002 23110.51498730  1766.56784932
0.39200002 23027.51154187  1764.71343062
0.39300002 22949.95103298  1491.97638734
0.39400002 22879.73150815  1626.74898730
0.39500002 22814.12097330  1355.15885002
0.39600002 22754.57869845  1761.54579340
0.39700002 22700.26210778  1490.72628325
0.39800002 22652.74990612  1898.07400456
0.39900002 22609.60083003  1492.23372548
0.40000002 22572.35394002  2036.59073073
0.40100002 22540.00229336  1630.99464322
0.40200002 22513.30509788  1905.30110071
0.40300002 22491.50866007  1499.28403832
0.40400002 22474.60361530  1501.86545775
0.40500002 22462.05764307  1504.73331280
0.40600002 22455.27889237  1370.89484133
0.40700002 22452.40935782  1374.08751780
0.40800002 22453.94618825  1653.05959670
0.40900002 22459.60627884  1519.39243676
0.41000002 22470.28243433  1523.82227549
0.41100002 22484.71077845  1389.55519195
0.41200002 22502.24468081  1672.81694883
0.41300002 22525.23338924  1538.69876573
0.41400002 22551.05795923  1544.18376693
0.41500002 22580.54606549  1831.73398363
0.41600002 22612.68576764  1414.42356179
0.41700002 22649.64722112  1562.14624286
0.41800002 22690.29514857  1853.91065296
0.41900002 22732.25323378  1575.34522375
0.42000002 22777.87427751  1869.94967742
0.42100002 22827.21158183  2167.44384240
0.42200002 22878.82860914  1596.82791844
0.42300002 22932.81028055  1458.52680296
0.42400002 22989.35117937  1758.68544856
0.42500002 23048.85666424  1767.38641276
0.42600002 23109.36523283  1628.17040463
0.42700002 23173.31186653  1785.27203080
0.42800002 23238.62492475  1644.94614325
0.42900002 23306.69296119  1503.28176723
0.43000002 23376.44863191  1813.54497080
0.43100002 23446.42351093  1671.26114706
0.43200002 23519.35913569  1527.58244825
0.43300002 23592.93046595  2303.84976917
0.43400002 23668.51273699  2316.55579391
0.43500002 23744.63380026  2018.76886136
0.43600002 23822.72267375  1717.73749979
0.43700002 23901.03815535  2198.41759371
0.43800002 23979.74511699  1894.87954894
0.43900002 24060.39292458  1587.98600828
0.44000002 24140.92688199  2555.07582227
0.44100002 24222.44883989  2890.70718154
0.44200002 24304.21802519  1776.51690074
0.44300002 24386.43520618  1624.13666170
0.44400002 24468.65042408  2286.59549049
0.44500002 24550.59841086  2299.40915613
0.44600002 24632.48059456  1651.60790214
0.44700002 24715.34056709  1660.87096482
0.44800002 24796.79420234  2004.07700241
0.44900002 24878.70708244  2015.17536918
0.45000002 24960.46369003  2195.14808325
0.45100002 25040.79460809  1697.76595489
0.45200002 25121.09062397  2389.76946432
0.45300002 25200.28650284  2402.59542905
0.45400002 25278.94379226  1725.28799559
0.45500002 25357.17941519  2081.31738504
0.45600002 25433.87592088  2266.53996011
0.45700002 25509.93565963  2453.54572803
0.45800002 25584.52501818  1937.64409408
0.45900002 25657.81695041  3363.73996162
0.46000002 25730.45409685  2135.11318215
0.46100002 25800.83253909  2145.59733564
0.46200002 25870.47026723  1796.70424521
0.46300002 25938.54316253  2166.38722761
0.46400002 26004.40802717  1995.18830045
0.46500002 26069.83820924  2186.73813263
0.46600002 26132.44323813  2013.63550915
0.46700002 26193.34855154  2022.65047102
0.46800002 26253.15481233  2216.29143430
0.46900002 26310.21389226  2411.33121751
0.47000002 26365.65513650  2607.82707315
0.47100002 26419.29886140  2057.53509285
0.47200002 26470.91329039  2817.16708046
0.47300002 26520.31129120  2639.83191105
0.47400002 26566.89213416  2082.18026970
0.47500002 26611.82503659  3040.13503628
0.47600002 26655.15238432  2097.89386784
0.47700002 26694.97790201  2296.83600755
