# SAXS profile: number of points = 501, q_min = 0, q_max = 0.5, delta_q = 0.001
#    q    intensity    error
0.00000000 1700912.83420644 280.65061764
0.00100000 1700830.09505595 765.37356095
0.00200000 1700581.81800381 994.84039503
0.00300000 1700168.22362688 1122.11106757
0.00400000 1699589.16794068 2039.50707903
0.00500000 1698845.21454575 1681.85682897
0.00600000 1697936.21907810 1961.11641288
0.00700000 1696862.74849816 2443.48245939
0.00800000 1695624.64078152 2975.82137021
0.00900000 1694223.13317086 3049.60177007
0.01000000 1692657.63035182 3351.46225281
0.01100000 1690929.37960798 3956.77492056
0.01200000 1689038.27150105 4281.71220598
0.01300000 1686985.53474316 3896.93675713
0.01400000 1684771.23907769 4927.95609276
0.01500000 1682396.66227165 5652.85303695
0.01600000 1679861.32859548 4712.01123735
0.01700000 1677167.55290018 6339.69363435
0.01800000 1674315.11936813 4771.79830492
0.01900000 1671304.80278964 7520.87195191
0.02000000 1668137.79170862 8407.41485053
0.02100000 1664816.09908205 8240.84006408
0.02200000 1661338.23410559 5731.61716807
0.02300000 1657707.52620952 7161.29683920
0.02400000 1653923.42976281 7442.65577330
0.02500000 1649988.65761126 8365.44287614
0.02600000 1645902.96936991 10665.45172934
0.02700000 1641668.62090955 8963.51108070
0.02800000 1637285.52571559 9258.85007253
0.02900000 1632756.17035068 8082.14341432
0.03000000 1628081.95457263 8327.63958042
0.03100000 1623263.23303193 8570.83026478
0.03200000 1618301.39552727 8811.65150449
0.03300000 1613200.40081389 11518.25139281
0.03400000 1607958.06814471 13506.84839563
0.03500000 1602577.95708116 15577.05846215
0.03600000 1597061.41733891 12409.16778620
0.03700000 1591409.89647644 12699.45156120
0.03800000 1585625.26575603 12058.68070415
0.03900000 1579709.38890886 10426.08244963
0.04000000 1573662.20276115 11613.62759454
0.04100000 1567487.84614074 13825.24344399
0.04200000 1561187.00444684 20139.31329168
0.04300000 1554760.66791610 10261.42088456
0.04400000 1548212.22003374 18810.77934702
0.04500000 1541543.29699880 14891.30894093
0.04600000 1534753.69655198 21640.02812736
0.04700000 1527847.99034508 13200.60725051
0.04800000 1520826.19040026 13413.68762344
0.04900000 1513692.40919790 13623.23231691
0.05000000 1506446.20707394 16134.03962906
0.05100000 1499092.21579365 14031.50379347
0.05200000 1491628.44437493 16601.82535956
0.05300000 1484061.15505914 13222.98550800
0.05400000 1476390.46909096 19488.35510082
0.05500000 1468618.76302889 13570.03800342
0.05600000 1460747.20839616 17485.14490043
0.05700000 1452781.05222971 16430.95446769
0.05800000 1444718.76584405 16621.49017713
0.05900000 1436563.53810384 16807.79418084
0.06000000 1428319.10463561 15682.94450159
0.06100000 1419986.52251975 18488.22538719
0.06200000 1411568.17549365 20008.97982291
0.06300000 1403067.02071389 22898.05484866
0.06400000 1394482.35371180 19034.68501836
0.06500000 1385820.12217761 19207.46779186
0.06600000 1377080.92927720 17991.56318281
0.06700000 1368266.91220184 18143.22010488
0.06800000 1359380.80339496 14069.59197372
0.06900000 1350425.53854674 15597.41570047
0.07000000 1341401.55118214 15714.51990799
0.07100000 1332312.39686905 21583.46184020
0.07200000 1323160.07507951 17386.32420104
0.07300000 1313947.77611483 23335.71359721
0.07400000 1304677.27137485 17613.14398899
0.07500000 1295350.62588889 17720.39739276
0.07600000 1285968.69724523 16338.23306445
0.07700000 1276537.33620381 17922.58504066
0.07800000 1267056.14586162 30029.23206518
0.07900000 1257527.44887660 15090.33009431
0.08000000 1247955.49611632 18195.19198693
0.08100000 1238341.52040859 16754.76155723
0.08200000 1228686.85604144 16826.86728309
0.08300000 1218994.75541301 16895.26810295
0.08400000 1209267.53197249 23127.24263454
0.08500000 1199507.21944396 21663.10140014
0.08600000 1189716.12437413 15525.79615204
0.08700000 1179897.80706648 20247.04732002
0.08800000 1170051.69304901 20306.24808652
0.08900000 1160182.97687906 21927.45929294
0.09000000 1150292.08992492 18841.78531807
0.09100000 1140381.55709544 18884.71947273
0.09200000 1130453.37270435 18923.79034824
0.09300000 1120512.34223404 26858.68210550
0.09400000 1110555.32847583 20573.03842690
0.09500000 1100588.39189387 19018.16830583
0.09600000 1090612.63846626 22215.78048987
0.09700000 1080632.44196850 22239.41670125
0.09800000 1070647.48569511 27028.49704719
0.09900000 1060660.71006688 23864.86709869
0.10000000 1050672.87186998 15917.69475739
0.10100000 1040686.43017834 19107.00375671
0.10200000 1030704.42104172 15924.38405412
0.10300000 1020727.90940024 19108.02736283
0.10400000 1010760.39552382 27063.11086334
0.10500000 1000804.06661336 19095.34248941
0.10600001 990856.29580244 23854.86644390
0.10700001 980925.09417641 17480.08600080
0.10800001 971008.29252985 17463.58496302
0.10900001 961110.07666133 19029.98041355
0.11000001 951230.52610496 19005.58680616
0.11100001 941372.71792664 22141.08736789
0.11200001 931537.44709811 17368.51651880
0.11300001 921727.18590200 15761.53562099
0.11400001 911943.64497132 17304.13147809
0.11500001 902189.18533462 18837.71107682
0.11600001 892464.05589381 18795.29390222
0.11700001 882771.73026811 15625.06036161
0.11800001 873111.01693904 20260.54210231
0.11900001 863485.01786552 21759.82347513
0.12000001 853894.60377273 17048.00656737
0.12100001 844345.02483962 16996.66615070
0.12200001 834833.13078503 18483.20638635
0.12300001 825363.73210205 16886.94275443
0.12400001 815935.08767852 16828.66197629
0.12500001 806550.08410975 18292.55676956
0.12600001 797211.88795862 24299.01949003
0.12700001 787919.51510495 19666.47202383
0.12800001 778674.81243458 21094.30166301
0.12900001 769479.74765528 18005.82694379
0.13000001 760335.10809867 17928.70269403
0.13100001 751241.34738933 17849.49525535
0.13200001 742201.26564441 16287.60754237
0.13300001 733215.27623899 20632.67884605
0.13400001 724283.26245767 27866.79983686
0.13500001 715408.71126930 16053.77223779
0.13600001 706591.30284202 15972.49715386
0.13700001 697832.22793892 15889.64057942
0.13800001 689130.71239098 20115.72644326
0.13900001 680491.62068472 18577.42212077
0.14000001 671912.20393446 19895.32129677
0.14100001 663396.21852621 18369.44215735
0.14200001 654942.25060594 19667.91671334
0.14300001 646553.46127317 25137.99976000
0.14400001 638225.93530581 16657.69769722
0.14500001 629966.85885800 20694.41228968
0.14600001 621772.62143020 16452.10433916
0.14700001 613646.57996703 17709.84113334
0.14800001 605585.72224083 16241.80983677
0.14900001 597593.65252491 20168.78672430
0.15000001 589669.81311869 21369.63503570
0.15100001 581815.64827649 15918.47688796
0.15200001 574032.06804664 14491.44024165
0.15300001 566318.52576291 14390.15441869
0.15400001 558673.61918078 14288.07848482
0.15500001 551101.87451954 15474.94136682
0.15600001 543599.58348533 14081.94787478
0.15700001 536172.36407958 17790.19987980
0.15800001 528814.03309073 16395.87986984
0.15900001 521530.55804021 18775.10097564
0.16000001 514317.51738827 16146.99922058
0.16100001 507180.09164513 18486.71521312
0.16200001 500115.14738057 14673.37911682
0.16300001 493123.46185616 15770.08905463
0.16400001 486206.18705562 12033.60369773
0.16500001 479361.76183384 13129.71927650
0.16600001 472592.29700090 16573.81263832
0.16700001 465895.40659992 12914.62128071
0.16800001 459272.95890458 12806.82706375
0.16900001 452726.16017563 13853.42115551
0.17000001 446251.94409301 12590.99919713
0.17100001 439852.56668276 15887.47545881
0.17200001 433526.56435285 16875.02231432
0.17300001 427275.13233346 15612.63407276
0.17400001 421098.09951894 15475.35588816
0.17500001 414993.75293178 17529.33695171
0.17600001 408962.08843650 11943.73835688
0.17700001 403006.70861735 11836.30759113
0.17800001 397122.69077630 10662.74475097
0.17900001 391311.35000258 10565.40694911
0.18000001 385574.70418142 15702.53056950
0.18100001 379910.81155441 16594.50503256
0.18200001 374316.76481718 10274.99567960
0.18300001 368796.15065435 11196.65166279
0.18400001 363346.70377650 15124.30725918
0.18500001 357969.45508081 17977.22688344
0.18600001 352663.39055890 12859.87114428
0.18700001 347426.84643802 11756.92503892
0.18800001 342259.42760651 9703.05523108
0.18900001 337165.67204361 11531.06652871
0.19000001 332137.16082722 12370.44913950
0.19100001 327180.49096547 12249.63816054
0.19200001 322290.53068532 13995.46695631
0.19300001 317470.76061297 10162.23952741
0.19400001 312716.79093504 11891.05653720
0.19500001 308030.78332463 12678.54764077
0.19600001 303409.98731547 13448.64832329
0.19700001 298857.39873978 8876.06516203
0.19800001 294369.16714473 9665.61205998
0.19900001 289946.25366039 8698.38802090
0.20000001 285586.55330045 8610.43498895
0.20100001 281292.17736137 12784.73006531
0.20200001 277059.73368673 11811.05700530
0.20300001 272890.82437241 8350.45962048
0.20400001 268783.78133915 9091.61183352
0.20500001 264738.02499732 11452.56750271
0.20600001 260752.86300399 12954.20284636
0.20700001 256828.12135456 10416.94909454
0.20800001 252962.61410059 8723.41615962
0.20900001 249158.35616249 9418.18630815
0.21000001 245409.35341273 10874.08896376
0.21100001 241719.71991963 12298.69993091
0.21200001 238085.81684899 12170.94753270
0.21300001 234508.38247757 11291.57915011
0.21400001 230986.92152982 10429.06000012
0.21500001 227521.34002220 8108.86094176
0.21600001 224108.64084043 9483.15758551
0.21700001 220750.38757148 7940.39181636
0.21800001 217444.83333854 7857.36942419
0.21900001 214190.60892469 8481.94851446
0.22000001 210987.81952530 7693.67120277
0.22100001 207837.32981677 6920.98341015
0.22200001 204736.56754554 8218.12620987
0.22300001 201684.75827103 10164.91229751
0.22400001 198681.07470902 6705.48658851
0.22500001 195727.86816067 7962.21005329
0.22600001 192819.93368961 7878.62286312
0.22700001 189959.87514134 6496.62803705
0.22800001 187144.92654409 7071.27138387
0.22900001 184375.29247134 6997.04268018
0.23000001 181650.75264334 6923.61876443
0.23100001 178971.26545200 6851.02036551
0.23200001 176333.25201324 6162.84744933
0.23300001 173739.08461861 7317.89059023
0.23400001 171185.67548765 7241.15441560
0.23500001 168673.65275470 7165.25710791
0.23600001 166202.64830273 5908.50442662
0.23700001 163771.32331188 8185.29112627
0.23800001 161379.26222240 8678.17023648
0.23900001 159025.91678556 7442.41325759
0.24000001 156709.94492104 6798.07773223
0.24100001 154432.44422837 6166.48778972
0.24200001 152191.59154815 8321.07566150
0.24300001 149986.26720571 7685.29669516
0.24400001 147816.14302364 6518.69221570
0.24500001 145680.68869422 8063.42650066
0.24600001 143579.34918421 7447.46119449
0.24700001 141512.57515051 7369.97526248
0.24800001 139478.28342950 7814.27119881
0.24900001 137475.03217192 5155.31395033
0.25000001 135505.03495796 7142.47073053
0.25100001 133565.46235704 6058.52965914
0.25200001 131658.36369360 4996.43513855
0.25300001 129779.51639433 4944.59980856
0.25400001 127931.44085280 5382.71562854
0.25500001 126110.59630261 5326.91183985
0.25600001 124319.83484550 4792.52986004
0.25700001 122556.00311327 6165.79280835
0.25800001 120819.33426244 7040.74703727
0.25900001 119110.79419654 5574.38543215
0.26000001 117427.36072476 5976.46580687
0.26100001 115769.91809077 5459.70959549
0.26200001 114138.68511576 4502.77134087
0.26300001 112531.00637548 7575.58770766
0.26400001 110948.60927681 5292.24891292
0.26500001 109390.17162512 6110.53527612
0.26600001 107854.79556991 5615.46019707
0.26700001 106342.75245479 5129.97462117
0.26800001 104853.65432125 5077.01418248
0.26900001 103385.80444300 4605.83780589
0.27000001 101940.37704222 6215.81478430
0.27100001 100516.04503543 4511.16031467
0.27200001 99113.26461401  5276.29489142
0.27300001 97730.85099279  4418.41198248
0.27400001 96367.07895183  5167.68485335
0.27500001 95025.24863531  5114.25912359
0.27600001 93700.68554247  6618.54823652
0.27700001 92397.16533235  5008.85056972
0.27800001 91111.00324804  3812.99566639
0.27900001 89843.68466663  4150.77842805
0.28000001 88593.91110067  5601.35029444
0.28100001 87362.21416447  4804.04838427
0.28200001 86148.31756770  4388.39550460
0.28300001 84951.26918249  5066.49393384
0.28400001 83770.34608237  3939.30071097
0.28500001 82606.51505264  4606.96556254
0.28600001 81458.66932026  7013.59176044
0.28700001 80327.41132742  3817.15876695
0.28800001 79210.08439716  3777.13305326
0.28900001 78110.22907375  4077.35415065
0.29000001 77024.38261292  7060.44036641
0.29100001 75954.15666984  3992.15066353
0.29200001 74898.14295311  3950.12824633
0.29300001 73856.99866704  4559.93131355
0.29400001 72829.15699141  4511.76648919
0.29500001 71816.68256452  3826.39302817
0.29600001 70816.81273867  4416.84481959
0.29700001 69830.80446867  3433.58081826
0.29800001 68858.78101718  3397.14812230
0.29900001 67900.09213230  3055.50429060
0.30000001 66953.29579453  3627.52973787
0.30100001 66020.82712659  2990.74361042
0.30200001 65099.78312797  5621.69203815
0.30300001 64192.27532091  3219.88468253
0.30400001 63296.70523350  3185.40684168
0.30500001 62414.05470509  4297.20786988
0.30600001 61542.03931427  3967.61546243
0.30700001 60682.99711441  3364.26551930
0.30800001 59835.51309226  3328.05139575
0.30900001 59000.01136752  3292.20079017
0.31000001 58176.09757892  3528.08960471
0.31100001 57362.88106330  2953.04125695
0.31200001 56562.03379015  3983.38141827
0.31300001 55771.52168601  3152.20655494
0.31400001 54993.50962104  3897.66517893
0.31500001 54224.95460911  3855.39445525
0.31600002 53468.83378880  2542.44316704
0.31700002 52722.80696779  3269.34141487
0.31800002 51987.21323643  3980.14123383
0.31900002 51262.91586384  2460.62007797
0.32000002 50549.53100461  3164.14804305
0.32100002 49845.95000031  3611.33924852
0.32200002 49153.88390718  2619.65636687
0.32300002 48470.67124680  2826.80968097
0.32400002 47799.02309715  3262.28348085
0.32500002 47136.83738837  2304.99145744
0.32600002 46485.12777994  2280.09562557
0.32700002 45843.87623946  3157.72634490
0.32800002 45213.40695346  3346.92260822
0.32900002 44591.02067413  2869.43231626
0.33000002 43979.88231404  2183.60126029
0.33100002 43377.55938102  3672.34435110
0.33200002 42786.73523101  3633.23579419
0.33300002 42204.84175080  2537.35520622
0.33400002 41633.18758540  2301.27455276
0.33500002 41071.09676500  2483.98004998
0.33600002 40518.13671240  2253.01109859
0.33700002 39974.79156146  2229.39423096
0.33800002 39442.00235654  2406.75109777
0.33900002 38917.79103672  1984.80743687
0.34000002 38403.27324188  2553.62577515
0.34100002 37898.44346571  2333.02829024
0.34200002 37403.45018335  3848.81520614
0.34300002 36917.14352085  2285.90963507
0.34400002 36440.90734993  2074.39874914
0.34500002 35973.67730947  2427.14412302
0.34600002 35516.34335633  1848.62575925
0.34700002 35066.89603269  2196.59047152
0.34800002 34627.65194723  2719.13649794
0.34900002 34197.04963381  1974.87970989
0.35000002 33775.92162008  1778.30235752
0.35100002 33364.46112610  1937.80799398
0.35200002 32960.47474049  2268.83438622
0.35300002 32566.84938156  2075.15974088
0.35400002 32181.23257377  2399.11100201
0.35500002 31805.12576981  2377.75131517
0.35600002 31437.57509610  2188.52689397
0.35700002 31078.55635557  2336.48597748
0.35800002 30728.75585856  1654.74358136
0.35900002 30388.05364588  1969.14596952
0.36000002 30055.70349854  2115.77134799
0.36100002 29731.43532839  2098.74211924
0.36200002 29417.18281426  1922.11881613
0.36300002 29110.00339103  1748.34688648
0.36400002 28811.81572416  1892.93638274
0.36500002 28521.40838623  1878.99047349
0.36600002 28240.11774401  1865.54226654
0.36700002 27966.51046477  1698.12659586
0.36800002 27702.07866525  1993.30316478
0.36900002 27445.41033071  1980.18644916
0.37000002 27196.24678123  1664.81832557
0.37100002 26955.13995260  2406.55500897
0.37200002 26722.78191193  1495.13971880
0.37300002 26497.87053326  1486.53060733
0.37400002 26280.70690167  1921.77678322
0.37500002 26071.43909229  2058.60092825
0.37600002 25869.98531805  1609.24251294
0.37700002 25676.08324828  1601.41738806
0.37800002 25489.46426570  1449.07611215
0.37900002 25311.30972832  1731.29366743
0.38000002 25139.70384821  2011.42780018
0.38100002 24974.75691358  2289.68582231
0.38200002 24818.23015200  1853.54960671
0.38300002 24668.15074798  1420.88555040
0.38400002 24525.37602245  1841.24269211
0.38500002 24388.94639085  1553.33206922
0.38600002 24260.48639658  1689.98556245
0.38700002 24137.88524605  1545.30748666
0.38800002 24021.85715398  1682.01051761
0.38900002 23912.66058706  1538.77978168
0.39000002 23810.42965887  1815.42629535
0.39100002 23713.78385471  1952.11877940
0.39200002 23624.25574416  1810.44492473
0.39300002 23540.09623996  1391.21975369
0.39400002 23463.38267711  1529.22603843
0.39500002 23391.17837864  1667.32327382
0.39600002 23325.32800405  1389.02334845
0.39700002 23264.65279098  1388.89983742
0.39800002 23210.86703926  1805.92159555
0.39900002 23161.47677390  1667.62640673
0.40000002 23118.02137383  1668.65886182
0.40100002 23079.49244430  1530.86280636
0.40200002 23046.67089822  1671.80558617
0.40300002 23018.80089028  2092.40910006
0.40400002 22995.84962291  1536.69772386
0.40500002 22977.39926344  1679.18841773
0.40600002 22964.58556928  2383.37962623
0.40700002 22955.82104512  1545.38594598
0.40800002 22951.41979790  1689.68360558
0.40900002 22951.27487911  1552.65381914
0.41000002 22956.14684918  2122.86978046
0.41100002 22964.79519746  1844.99173358
0.41200002 22976.55624385  1992.75681745
0.41300002 22993.85936809  1999.08622818
0.41400002 23013.92031503  1432.61660749
0.41500002 23037.64614868  1868.81394413
0.41600002 23064.10856137  1875.45807653
0.41700002 23095.46518820  2027.32003028
0.41800002 23130.52396073  2035.25489974
0.41900002 23166.80006979  1605.45932091
0.42000002 23206.83885694  1465.51194326
0.42100002 23250.70137482  1766.12336012
0.42200002 23296.65072161  2217.25883749
0.42300002 23345.15104672  1930.17718000
0.42400002 23396.14193160  2237.25617822
0.42500002 23450.13688879  1798.15658184
0.42600002 23505.21470526  2258.26360982
0.42700002 23563.54613132  1664.05770665
0.42800002 23623.38557526  1824.19792056
0.42900002 23686.01522534  2291.62208164
0.43000002 23750.36664288  1996.09965909
0.43100002 23814.87223341  2314.80569078
0.43200002 23882.33413410  2016.50497817
0.43300002 23950.51212825  2182.84977881
0.43400002 24020.62141543  1724.08018379
0.43500002 24091.40310200  1733.13562129
0.43600002 24164.03971922  2059.13874225
0.43700002 24236.95393365  2070.07833357
0.43800002 24310.31595277  2401.25157203
0.43900002 24385.54773436  1931.33547209
0.44000002 24460.64256681  2265.30021546
0.44100002 24536.78432763  1952.14665362
0.44200002 24613.18495670  1799.10083967
0.44300002 24689.97634422  2137.65825319
0.44400002 24766.85383020  1983.82508581
0.44500002 24843.44957984  1662.02685566
0.44600002 24919.88862104  2339.23005572
0.44700002 24997.49041060  2015.79772224
0.44800002 25073.50621873  2026.44086863
0.44900002 25150.11217863  2546.44897877
0.45000002 25226.51168402  2901.17511371
0.45100002 25301.53233937  2058.53276869
0.45200002 25376.48078683  2069.19834142
0.45300002 25450.28499846  2079.79738864
0.45400002 25523.69889207  1916.19178514
0.45500002 25596.61170517  2100.96998833
0.45600002 25667.95860568  2111.44637497
0.45700002 25738.69075601  2829.19702199
0.45800002 25807.94304145  2309.94005140
0.45900002 25875.94490638  2678.16042474
0.46000002 25943.23797452  2152.76998916
0.46100002 26008.31224640  2343.08896133
0.46200002 26072.62207976  2172.89242711
0.46300002 26135.43966531  2546.63736169
0.46400002 26196.06770482  2375.32855171
0.46500002 26256.22022068  2202.37185649
0.46600002 26313.56764056  2027.59205064
0.46700002 26369.15130674  2221.33741136
0.46800002 26423.81953076  1858.91579209
0.46900002 26475.54586971  2799.78910842
0.47000002 26525.78379899  2248.85605707
0.47100002 26574.17222492  2445.88692751
0.47200002 26620.56950913  2833.09424429
0.47300002 26664.81587787  2275.04219853
0.47400002 26706.21996359  2473.66374137
0.47500002 26745.92206764  2100.62481876
0.47600002 26784.04503013  2491.31806656
0.47700002 26818.80782819  2499.78119615
