# SAXS profile: number of points = 501, q_min = 0, q_max = 0.5, delta_q = 0.001
#    q    intensity    error
0.00000000 1664650.74656090 274.66737318
0.00100000 1664569.20029463 699.11908073
0.00200000 1664324.49614976 898.73525638
0.00300000 1663916.86091206 1098.18516732
0.00400000 1663346.15819313 1372.26063265
0.00500000 1662612.91443265 1795.62201866
0.00600000 1661717.02916838 1919.28324683
0.00700000 1660659.03327918 2192.07001503
0.00800000 1659438.80109981 2912.31521889
0.00900000 1658057.49265324 3233.21224889
0.01000000 1656514.59976698 3006.57412840
0.01100000 1654811.27476876 2978.66042427
0.01200000 1652947.45844974 3867.89722236
0.01300000 1650924.41428393 4853.71799207
0.01400000 1648742.05759276 4080.63677344
0.01500000 1646401.86934356 6717.31992604
0.01600000 1643903.19054790 5030.34398795
0.01700000 1641248.35698136 5760.78199143
0.01800000 1638437.24399506 6070.41026216
0.01900000 1635470.49258143 6378.33520887
0.02000000 1632349.42600059 5656.09101695
0.02100000 1629075.91532404 5375.95076431
0.02200000 1625648.47645049 7851.88249799
0.02300000 1622070.57718455 8175.23608113
0.02400000 1618341.41210025 6675.65862931
0.02500000 1614463.81848413 8185.33193354
0.02600000 1610437.64202592 9783.40912278
0.02700000 1606264.97671782 8770.20717456
0.02800000 1601945.79455144 7665.31097846
0.02900000 1597482.53945550 10783.00763642
0.03000000 1592876.63195113 8888.25201484
0.03100000 1588128.26137359 10672.22240749
0.03200000 1583239.02149675 7837.03351737
0.03300000 1578212.67972143 8853.77354140
0.03400000 1573047.31535187 8258.49878665
0.03500000 1567746.18103690 11852.16167595
0.03600000 1562310.62000803 11272.07164428
0.03700000 1556742.29476471 12422.80408675
0.03800000 1551042.80875529 14517.76136183
0.03900000 1545214.24080343 12052.67163643
0.04000000 1539256.31090338 10413.06942579
0.04100000 1533173.09710897 10624.89005560
0.04200000 1526965.55834406 14773.39246236
0.04300000 1520634.31460904 12043.42433073
0.04400000 1514183.18696652 12264.88438403
0.04500000 1507613.35882357 17684.30552070
0.04600000 1500924.82432492 13755.97665441
0.04700000 1494121.91935443 11833.44615164
0.04800000 1487205.03030489 10930.95748134
0.04900000 1480177.80055705 13321.60082510
0.05000000 1473039.92839886 13522.50717239
0.05100000 1465796.09316693 18293.13609489
0.05200000 1458444.41322431 12754.09698800
0.05300000 1450991.04387277 12928.33080360
0.05400000 1443435.89406614 13099.18134952
0.05500000 1435781.39622070 13266.62071996
0.05600000 1428028.67097285 18314.46855986
0.05700000 1420183.14735875 16062.27214639
0.05800000 1412243.25531601 13748.18873244
0.05900000 1404211.78815265 15165.48802037
0.06000000 1396092.73084592 20438.79853446
0.06100000 1387887.33269108 16779.55863637
0.06200000 1379597.52862413 13037.19725490
0.06300000 1371226.84299598 17112.91180071
0.06400000 1362773.79375236 13287.04511048
0.06500000 1354244.35743876 14747.72174237
0.06600000 1345640.00093702 14876.05090639
0.06700000 1336961.79166487 15000.71200450
0.06800000 1328213.01991979 16496.40647959
0.06900000 1319396.51068758 13853.66401083
0.07000000 1310512.74076287 15352.65747698
0.07100000 1301564.99570475 18273.97339561
0.07200000 1292555.56548367 15568.83251560
0.07300000 1283486.93873507 17096.04682500
0.07400000 1274361.76276266 14336.57050295
0.07500000 1265181.40005514 20192.29609134
0.07600000 1255947.34513549 17407.43101965
0.07700000 1246664.59462464 17503.17172923
0.07800000 1237333.31162665 17594.88051646
0.07900000 1227955.63600983 17682.56198792
0.08000000 1218535.77094647 20727.29443614
0.08100000 1209074.71130717 22307.42947024
0.08200000 1199574.11132157 26882.45709618
0.08300000 1190037.32271293 16493.91806689
0.08400000 1180466.06298002 16556.03731041
0.08500000 1170862.78380170 19635.36980614
0.08600000 1161229.84018944 24246.48020156
0.08700000 1151570.00026983 16720.79718909
0.08800000 1141883.38994227 15244.14397165
0.08900000 1132175.35669609 24454.98885328
0.09000000 1122445.78549731 24514.21710683
0.09100000 1112697.19213198 18426.26636739
0.09200000 1102931.54532553 16924.48535825
0.09300000 1093154.05618710 18496.16749986
0.09400000 1083361.37218541 16981.69030710
0.09500000 1073559.06341883 17005.17636384
0.09600000 1063748.66532950 20120.80695054
0.09700000 1053934.26099110 21689.96811090
0.09800000 1044115.74757755 18606.14349665
0.09900000 1034296.24652981 17065.88887022
0.10000000 1024475.47980560 20177.04552364
0.10100000 1014657.51187782 21733.96492661
0.10200000 1004843.92450435 24839.74298212
0.10300000 995036.46608732 17074.82656127
0.10400000 985238.10154900 15517.50082942
0.10500000 975451.46999071 17060.64701283
0.10600001 965673.73910646 18598.87709033
0.10700001 955912.61696837 18582.94214833
0.10800001 946166.32286742 20110.76613899
0.10900001 936439.03028342 24721.99156304
0.11000001 926730.60038307 23145.09783400
0.11100001 917043.71802541 21568.86926328
0.11200001 907380.08668535 18456.11183204
0.11300001 897741.16809131 16886.51216683
0.11400001 888129.45857294 15320.23388173
0.11500001 878546.53746129 15286.71047165
0.11600001 868993.28491127 16775.91615521
0.11700001 859472.71304233 19776.46805848
0.11800001 849983.85944968 16689.43386634
0.11900001 840529.81908184 16642.49120171
0.12000001 831111.13611661 19610.06818040
0.12100001 821732.89742461 16541.48400440
0.12200001 812393.18995329 16487.52056685
0.12300001 803094.76897342 22406.34511002
0.12400001 793837.74912334 19349.79604659
0.12500001 784623.61617744 19278.20315788
0.12600001 775456.58573073 17726.93838516
0.12700001 766334.97351583 17656.35862188
0.12800001 757260.70790512 20514.19354397
0.12900001 748235.87394087 20426.84032135
0.13000001 739261.31919835 15979.13416765
0.13100001 730337.34719701 18798.88420299
0.13200001 721466.32973614 17271.90474809
0.13300001 712649.19687710 15756.67448577
0.13400001 703886.09746397 15679.06356021
0.13500001 695179.60392866 17017.99750654
0.13600001 686529.78860226 15519.00660309
0.13700001 677937.97920392 18243.31188061
0.13800001 669403.50593084 15352.77013250
0.13900001 660930.25568107 22207.25763814
0.14000001 652516.82136972 15180.80456510
0.14100001 644166.00975978 16464.88398599
0.14200001 635876.87258520 15003.51551629
0.14300001 627652.03865287 13557.28467437
0.14400001 619488.08076991 16168.63967077
0.14500001 611391.86611443 21423.17199923
0.14600001 603360.10106222 19956.13628405
0.14700001 595395.46462575 15861.33592591
0.14800001 587495.22313284 17069.67451345
0.14900001 579663.50279657 15650.91531393
0.15000001 571899.37382262 14248.87357109
0.15100001 564203.87250969 15436.61868024
0.15200001 556578.23462823 17882.85952244
0.15300001 549021.84879163 19023.60795834
0.15400001 541533.54074611 13849.72095816
0.15500001 534117.52316808 18747.52594795
0.15600001 526770.25834730 16127.07222042
0.15700001 519497.06153920 14774.49712748
0.15800001 512291.95637097 13439.98010974
0.15900001 505161.02817573 14548.63829817
0.16000001 498099.35539091 12029.10000049
0.16100001 491112.58264904 14320.84358605
0.16200001 484197.65281366 15390.22312119
0.16300001 477354.75871628 12917.22038066
0.16400001 470585.33820196 12811.68643738
0.16500001 463887.90252801 12705.89025010
0.16600001 457264.05462263 11454.46510910
0.16700001 450712.54581551 13629.54802898
0.16800001 444234.48610651 15765.88265633
0.16900001 437830.61257977 12281.14926275
0.17000001 431498.29092887 16601.89752742
0.17100001 425239.90542822 14262.54710156
0.17200001 419054.37497105 13049.35385283
0.17300001 412941.64855636 10777.77753630
0.17400001 406902.82058770 13885.55940832
0.17500001 400935.38593709 13760.10309522
0.17600001 395039.94315774 12585.97318343
0.17700001 389219.35998739 11431.37314274
0.17800001 383469.09424945 10296.14566691
0.17900001 377790.90992857 12240.42605984
0.18000001 372185.57231711 10104.83876571
0.18100001 366652.27730026 14013.45070036
0.18200001 361187.97204470 10906.07133107
0.18300001 355795.55056536 11783.94919139
0.18400001 350473.53278478 11670.76919307
0.18500001 345222.44362362 11558.04795855
0.18600001 340041.29983479 11445.79069318
0.18700001 334929.15388060 9445.00258566
0.18800001 329884.70826392 12157.90149748
0.18900001 324912.69621198 10186.01350751
0.19000001 320004.65051085 14669.01387251
0.19100001 315167.40506503 9076.82169475
0.19200001 310396.03568777 11681.75535509
0.19300001 305693.47466502 9785.24858641
0.19400001 301055.40340545 11447.63225544
0.19500001 296484.38431071 11331.63370383
0.19600001 291977.57849692 12079.11299323
0.19700001 287537.47788333 11101.82254572
0.19800001 283160.64830384 10988.04947671
0.19900001 278848.13821665 14221.25572115
0.20000001 274597.66225099 11590.76787141
0.20100001 270411.38615397 9012.81192648
0.20200001 266285.95365165 10540.92997350
0.20300001 262222.80075388 12036.02712348
0.20400001 258220.72736085 9528.34528998
0.20500001 254278.43925926 8642.92455895
0.20600001 250395.60699613 7774.78396473
0.20700001 246572.26108830 8462.36040056
0.20800001 242806.67377971 9134.38749938
0.20900001 239101.57485459 8284.86996035
0.21000001 235450.63436093 10432.81810172
0.21100001 231857.61071888 8110.37960635
0.21200001 228319.56252038 8753.77244086
0.21300001 224836.69861807 10104.16171358
0.21400001 221408.53345169 7854.46809553
0.21500001 218035.43197750 7770.78316306
0.21600001 214713.98220391 6988.94045116
0.21700001 211445.64344130 11062.83658790
0.21800001 208229.24422277 10260.49649420
0.21900001 205063.41955723 8120.51179842
0.22000001 201947.23164798 7364.00615023
0.22100001 198882.84211133 7947.35874655
0.22200001 195866.70737205 9172.43833995
0.22300001 192898.70412895 7129.53644173
0.22400001 189977.80342890 7052.92628581
0.22500001 187106.07452791 8880.05471701
0.22600001 184278.88890430 8157.10540308
0.22700001 181498.37308646 10552.31591026
0.22800001 178762.28458164 7368.58171892
0.22900001 176069.86972849 6074.41079290
0.23000001 173421.86467041 7210.88147401
0.23100001 170817.98487126 5944.46615465
0.23200001 168254.52687930 6468.54559180
0.23300001 165733.90524856 6398.98638428
0.23400001 163253.37053973 6330.14974206
0.23500001 160812.85748121 9677.71822094
0.23600001 158412.45986806 6194.71953613
0.23700001 156051.21043317 6685.23417115
0.23800001 153727.92788747 8266.71971315
0.23900001 151442.45367309 6542.31430813
0.24000001 149193.44063464 7011.34607426
0.24100001 146982.18450344 5868.99890483
0.24200001 144806.54721580 7389.47845396
0.24300001 142665.44555244 5743.71110963
0.24400001 140559.04021583 7748.31745842
0.24500001 138486.11591661 7154.19308668
0.24600001 136446.81542674 6066.42570085
0.24700001 134440.83596104 6501.55913464
0.24800001 132466.51036225 6431.91171491
0.24900001 130522.80252535 7831.36852200
0.25000001 128611.33034720 6779.10354331
0.25100001 126729.47657580 5269.41188531
0.25200001 124879.18718042 7582.66460433
0.25300001 123056.57326710 6094.99236228
0.25400001 121264.03019529 8349.02887395
0.25500001 119497.91938895 5965.33641813
0.25600001 117760.94924389 7263.49569302
0.25700001 116050.23052912 4940.25854736
0.25800001 114366.26936881 7109.00764032
0.25900001 112709.31897673 5714.36274249
0.26000001 111077.18919545 6523.00824414
0.26100001 109469.84806659 6023.03132561
0.26200001 107888.56539383 5107.44492741
0.26300001 106329.95542472 5052.79972087
0.26400001 104796.12851697 5831.90482792
0.26500001 103285.53385322 4121.09299575
0.26600001 101797.42201810 4484.68563922
0.26700001 100331.93453466 4840.01275098
0.26800001 98888.74126107  4389.17698857
0.26900001 97466.47035232  4736.87068328
0.27000001 96066.05419109  4295.59381643
0.27100001 94685.89927075  4635.82184768
0.27200001 93326.79620489  5350.42547963
0.27300001 91987.76015805  3780.69712141
0.27400001 90666.73433772  6358.00504632
0.27500001 89367.13407535  5549.69928872
0.27600001 88084.20032170  5123.85817520
0.27700001 86821.75987628  3982.51431400
0.27800001 85576.41835691  4655.78526105
0.27900001 84349.44231370  4251.21209381
0.28000001 83139.53909347  3854.76491251
0.28100001 81947.25758885  3813.00607608
0.28200001 80772.31424704  3771.66339228
0.28300001 79613.68970125  4748.16067851
0.28400001 78470.87561685  5702.87115538
0.28500001 77344.81490969  4313.52053168
0.28600001 76234.26157185  6235.58172041
0.28700001 75139.98342002  4544.46641234
0.28800001 74059.42166587  3852.57129741
0.28900001 72995.62772997  4127.90294352
0.29000001 71945.75081118  3768.51860587
0.29100001 70911.16359918  4658.86366899
0.29200001 69890.31207994  3686.01523357
0.29300001 68884.09321638  3341.56752010
0.29400001 67890.93712243  3605.00893185
0.29500001 66912.86758886  3565.11775390
0.29600001 65946.93987208  3231.72994141
0.29700001 64995.05765396  2905.27921466
0.29800001 64056.37842379  3160.22157914
0.29900001 63130.97063118  3409.07257547
0.30000001 62217.40519230  3370.93917290
0.30100001 61317.60706436  3333.22527781
0.30200001 60429.30982650  3570.46594013
0.30300001 59554.03417100  3530.36331279
0.30400001 58690.73802894  4296.16222711
0.30500001 57839.91104709  3451.30765557
0.30600001 56999.89014945  3412.29858534
0.30700001 56172.43224873  2595.16649275
0.30800001 55356.35366891  2565.76711403
0.30900001 54552.15933405  2536.67552913
0.31000001 53759.16416377  3009.43815237
0.31100001 52977.00912049  3223.12138749
0.31200001 52206.98887581  2941.34189252
0.31300001 51447.22580120  2665.48089496
0.31400001 50699.85165007  2395.56810389
0.31500001 49961.98387225  2605.01796244
0.31600002 49236.13473159  3043.53181254
0.31700002 48520.20999022  3471.62118917
0.31800002 47814.81107651  3431.90822751
0.31900002 47120.72087394  2487.97417995
0.32000002 46437.16506980  2459.54456438
0.32100002 45763.62727790  2431.42163240
0.32200002 45101.41484144  2403.68001779
0.32300002 44447.85440864  2592.19899185
0.32400002 43805.73395764  2349.08259471
0.32500002 43173.40218531  2744.53330688
0.32600002 42551.39620825  2295.86069113
0.32700002 41939.59808125  2476.11398797
0.32800002 41338.66931738  2244.06977016
0.32900002 40745.61755858  2016.90816466
0.33000002 40164.03683665  2193.55897571
0.33100002 39591.20671214  2365.97062516
0.33200002 39029.86163510  2144.49584909
0.33300002 38477.36617540  2313.25936401
0.33400002 37935.25945242  2096.87156553
0.33500002 37402.35841655  2073.58684881
0.33600002 36878.83650922  1864.22527382
0.33700002 36364.93031185  2949.92328660
0.33800002 35861.48517699  2917.69057217
0.33900002 35366.65661260  2344.80944446
0.34000002 34881.57598169  2141.03123515
0.34100002 34405.97736733  1765.02672253
0.34200002 33940.60915150  1920.86886590
0.34300002 33483.80011162  2073.31700110
0.34400002 33037.11716395  2564.50634131
0.34500002 32599.23466852  2199.47046725
0.34600002 32171.32317586  2344.32443085
0.34700002 31751.44522778  1823.16807133
0.34800002 31341.75722130  2461.11160236
0.34900002 30940.73047993  2274.14379798
0.35000002 30549.17769020  1769.25570972
0.35100002 30167.48768530  2070.69645279
0.35200002 29793.08314426  2208.56135809
0.35300002 29429.14109818  2031.49370623
0.35400002 29073.46997539  2167.42728932
0.35500002 28727.18324149  1994.24115508
0.35600002 28389.26270025  2280.36763441
0.35700002 28060.16342345  1958.88010137
0.35800002 27740.14078006  1941.94864729
0.35900002 27429.40821923  1629.30692540
0.36000002 27127.05705989  1909.60927218
0.36100002 26832.62554001  1894.11512659
0.36200002 26548.32536107  1590.11202282
0.36300002 26271.26384706  1434.41107399
0.36400002 26003.10418544  2277.87203454
0.36500002 25742.72883071  2261.24140760
0.36600002 25491.61756025  2245.30178106
0.36700002 25248.14366430  1951.17663480
0.36800002 25013.80046869  1799.86809798
0.36900002 24787.43280222  1650.84310283
0.37000002 24568.49750310  1914.13173114
0.37100002 24357.68175961  2174.65393051
0.37200002 24155.52721614  1756.95235529
0.37300002 23960.87809555  2150.72851974
0.37400002 23773.99895822  2005.93125712
0.37500002 23595.10931521  1729.99349694
0.37600002 23424.05892305  1722.01977330
0.37700002 23260.29939877  1846.40265374
0.37800002 23104.22164528  1838.86508786
0.37900002 22956.30698375  1308.50956006
0.38000002 22815.04475951  1825.43181768
0.38100002 22680.50515353  1299.59300686
0.38200002 22554.30952289  1425.31965782
0.38300002 22434.42562062  1421.44527466
0.38400002 22321.97648895  1675.82246430
0.38500002 22215.97915536  1672.19683024
0.38600002 22117.76952806  1283.93658193
0.38700002 22025.41475071  1794.63087891
0.38800002 21939.76948633  2048.29697628
0.38900002 21860.78802191  1662.51300783
0.39000002 21788.79399547  1533.49539405
0.39100002 21722.32020073  1404.99973715
0.39200002 21662.76096680  1532.42378339
0.39300002 21608.74120037  1532.49199853
0.39400002 21562.04470170  1788.57169274
0.39500002 21519.91631719  1406.11139878
0.39600002 21484.09818979  2174.94278329
0.39700002 21453.28401394  1536.91333957
0.39800002 21429.24707563  1667.30264771
0.39900002 21409.79641509  1413.04663034
0.40000002 21395.95226337  2187.84320235
0.40100002 21387.14010992  1418.60907070
0.40200002 21384.00608197  1551.19587468
0.40300002 21385.53054819  1425.55953389
0.40400002 21391.99001207  1689.43249125
0.40500002 21402.89974467  1564.12398745
0.40600002 21419.39895065  1438.41980468
0.40700002 21439.83239946  1443.32958552
0.40800002 21464.54705958  1316.85002450
0.40900002 21493.25026122  1586.20194443
0.41000002 21526.94317171  1592.56333130
0.41100002 21564.34200168  1865.74695839
0.41200002 21604.88457549  1338.42266287
0.41300002 21650.58502937  1478.95153343
0.41400002 21699.05783945  1620.91969741
0.41500002 21751.15169572  2035.90789519
0.41600002 21805.84167181  2045.93319180
0.41700002 21865.25126889  1782.23671538
0.41800002 21928.07309182  1378.17945912
0.41900002 21992.10286378  1801.15330989
0.42000002 22059.78598036  1393.07555067
0.42100002 22130.99293176  1961.24868655
0.42200002 22204.37154797  1549.75418563
0.42300002 22280.04937118  1700.41344858
0.42400002 22358.05919364  2137.98951170
0.42500002 22438.81410811  1720.60834734
0.42600002 22520.52654182  1442.43979336
0.42700002 22605.44575146  1451.26968601
0.42800002 22691.63170992  2044.28919762
0.42900002 22780.48437937  2057.07783694
0.43000002 22870.65182239  2217.88156558
0.43100002 22960.97580026  1636.65843260
0.43200002 23054.08429452  2246.04426883
0.43300002 23147.69490822  1657.60651093
0.43400002 23243.00966283  1668.26709761
0.43500002 23338.77362647  1831.62704100
0.43600002 23436.25172465  1689.87101069
0.43700002 23533.74514236  1546.16712912
0.43800002 23631.52798425  2489.81790641
0.43900002 23730.96929588  2036.11726208
0.44000002 23830.08944142  1733.99654038
0.44100002 23930.02842311  1586.56095964
0.44200002 24029.90743249  2395.18113684
0.44300002 24130.12983368  1767.77339539
0.44400002 24230.11760626  1779.09646955
0.44500002 24329.56533358  1790.41279775
0.44600002 24428.72511876  2129.32992589
0.44700002 24528.67908447  2472.49096889
0.44800002 24627.00319557  2156.21736698
0.44900002 24725.42765208  1835.86309017
0.45000002 24823.54321623  2015.17533380
0.45100002 24920.01708600  2027.49268620
0.45200002 25016.18128855  2039.81951894
0.45300002 25111.10255599  2052.07939813
0.45400002 25205.16708723  2236.32855580
0.45500002 25298.48936921  1903.45843035
0.45600002 25390.15903213  2262.64412938
0.45700002 25480.82407877  2100.63923661
0.45800002 25569.84603443  2288.62917778
0.45900002 25657.37951362  2478.50297848
0.46000002 25743.85587914  1958.20649026
0.46100002 25827.92533041  1968.86284125
0.46200002 25911.01542207  2159.42412762
0.46300002 25992.14877757  1809.05364066
0.46400002 26070.96177452  2545.82953794
0.46500002 26149.02820157  2558.94402109
0.46600002 26223.97267156  2020.68830998
0.46700002 26297.00153749  2215.25951451
0.46800002 26368.72563549  2411.55191729
0.46900002 26437.48018633  2982.14790636
0.47000002 26504.15721671  2059.77067572
0.47100002 26568.88818341  2069.18510980
0.47200002 26631.31458843  1889.49185961
0.47300002 26691.25973933  2656.84812038
0.47400002 26748.23042356  2477.55496041
0.47500002 26803.26569695  2105.12858762
0.47600002 26856.23917645  2113.72040457
0.47700002 26905.78831129  2507.88864736
