# SAXS profile: number of points = 501, q_min = 0, q_max = 0.5, delta_q = 0.001
#    q    intensity    error
0.00000000 1646666.22097350 246.99993315
0.00100000 1646585.12962817 543.37310568
0.00200000 1646341.78254355 814.93920816
0.00300000 1645936.41854455 1185.07426357
0.00400000 1645368.89686804 1604.23473540
0.00500000 1644639.72212631 2072.24613190
0.00600000 1643748.81886967 2416.31086211
0.00700000 1642696.72258368 2168.35976393
0.00800000 1641483.27787621 2437.60277056
0.00900000 1640109.67096687 2706.18107278
0.01000000 1638575.37876861 3244.37939005
0.01100000 1636881.53533944 3535.66427027
0.01200000 1635028.14919611 4463.62704301
0.01300000 1633016.39651296 4458.13495911
0.01400000 1630846.22074929 5504.10623903
0.01500000 1628519.13231288 5080.97991907
0.01600000 1626034.45911826 5804.94327855
0.01700000 1623394.46197436 6136.43134154
0.01800000 1620599.11487345 5542.44922226
0.01900000 1617649.00205459 6794.12611520
0.02000000 1614545.47987814 5085.81849168
0.02100000 1611290.39595476 5848.98440250
0.02200000 1607882.26599766 5547.19406971
0.02300000 1604324.50391932 6930.68217240
0.02400000 1600616.39387807 9003.46762610
0.02500000 1596760.68278439 6850.10364199
0.02600000 1592757.33242670 10966.13473533
0.02700000 1588608.31436891 9341.01731632
0.02800000 1584313.65105369 8270.11763776
0.02900000 1579875.71723757 7109.44105399
0.03000000 1575296.08873753 9522.66529413
0.03100000 1570574.74648844 9046.51095603
0.03200000 1565713.40930762 10075.36625295
0.03300000 1560715.78485667 9551.58104366
0.03400000 1555580.19445523 13883.55387611
0.03500000 1550309.47354913 11720.34016125
0.03600000 1544905.16489232 9431.64646754
0.03700000 1539368.92723362 15793.92592385
0.03800000 1533702.37279091 10766.59115527
0.03900000 1527907.48868161 10084.18989230
0.04000000 1521984.16368867 11232.24364851
0.04100000 1515936.34887012 12415.51927291
0.04200000 1509764.95213659 12659.37971097
0.04300000 1503470.62245363 10915.19722567
0.04400000 1497057.22580845 15157.70511526
0.04500000 1490525.99616285 12341.55582168
0.04600000 1483876.81714880 15691.99807082
0.04700000 1477113.99306651 12762.26549364
0.04800000 1470238.00188447 12967.49977997
0.04900000 1463252.36298200 13169.27187983
0.05000000 1456156.92804270 12253.56112008
0.05100000 1448956.21875922 12432.04493609
0.05200000 1441648.50606455 11461.10615732
0.05300000 1434239.82773699 16264.28040474
0.05400000 1426730.04374862 11770.52340983
0.05500000 1419121.72396865 14304.74764491
0.05600000 1411415.81979828 13274.36640464
0.05700000 1403617.78335378 17096.06539927
0.05800000 1395726.35286071 13587.39667953
0.05900000 1387743.75162215 16236.60265232
0.06000000 1379674.37222533 15148.82531477
0.06100000 1371519.33569569 17857.18258525
0.06200000 1363280.60635239 18036.20326512
0.06300000 1354961.79807457 16909.92403060
0.06400000 1346561.21003331 14441.86965301
0.06500000 1338084.72625999 18545.85517350
0.06600000 1329534.30478725 20042.73058244
0.06700000 1320910.22508589 18862.59889698
0.06800000 1312216.63178688 17655.87560715
0.06900000 1303455.79826058 16423.54382702
0.07000000 1294628.40553087 19302.91043039
0.07100000 1285737.46887235 19440.35143989
0.07200000 1276785.65527116 15378.88393819
0.07300000 1267775.15091686 19701.22676836
0.07400000 1258708.78242980 21240.71169893
0.07500000 1249587.71825636 18518.89085259
0.07600000 1240413.68778221 14326.77876553
0.07700000 1231191.38839509 14404.93991965
0.07800000 1221921.23558541 17375.72078488
0.07900000 1212605.14643085 23282.01990349
0.08000000 1203247.64984303 17543.35155769
0.08100000 1193849.14968227 16152.77975306
0.08200000 1184411.73822019 16220.51951608
0.08300000 1174938.91217329 16284.65408699
0.08400000 1165431.83508229 16345.18225425
0.08500000 1155893.48037522 16402.12925652
0.08600000 1146325.80578654 19447.41820825
0.08700000 1136731.69121265 21006.80264004
0.08800000 1127111.53225278 21065.71552713
0.08900000 1117470.35445859 16594.43554315
0.09000000 1107807.98622116 18145.89566672
0.09100000 1098127.04434950 28792.89245557
0.09200000 1088429.51053929 19738.67010109
0.09300000 1078720.76108153 16730.95979060
0.09400000 1068997.11813586 15233.20964936
0.09500000 1059264.42031955 21354.77171737
0.09600000 1049523.78598510 18324.68616470
0.09700000 1039779.61695605 19870.18941418
0.09800000 1030031.77656245 22943.95890170
0.09900000 1020283.47304262 18365.10337834
0.10000000 1010534.23651113 15309.59440311
0.10100000 1000788.10711589 18374.47051083
0.10200000 991046.79594394 15311.67371754
0.10300000 981311.84190077 19901.00508991
0.10400000 971586.35003344 19893.23145281
0.10500000 961872.94224225 18352.53660146
0.10600001 952168.98540465 16810.54422831
0.10700001 942481.65377462 15268.20350963
0.10800001 932809.63641641 16776.58210048
0.10900001 923156.94085725 16755.29926516
0.11000001 913523.13684260 24336.25751098
0.11100001 903911.40647733 19741.42604676
0.11200001 894323.15149724 21222.28938411
0.11300001 884759.76598735 15129.39271069
0.11400001 875224.04043397 16607.37694918
0.11500001 865717.10947305 18076.17409697
0.11600001 856240.34429282 18032.42249998
0.11700001 846796.30882146 20983.61352082
0.11800001 837384.41459896 19431.50625596
0.11900001 828007.36538414 17884.95993471
0.12000001 818665.97840292 17830.54584952
0.12100001 809365.23072493 25179.35351400
0.12200001 800103.26877120 20666.66840599
0.12300001 790882.42530311 19123.53794482
0.12400001 781703.55515610 17588.33081973
0.12500001 772567.49001966 14601.52624940
0.12600001 763478.79669215 21816.40764354
0.12700001 754435.57086776 17382.19637195
0.12800001 745439.75453017 18751.53790895
0.12900001 736493.58695351 15797.78818474
0.13000001 727598.06272377 14297.30260642
0.13100001 718752.99068689 17077.57186372
0.13200001 709960.81105462 19829.20638751
0.13300001 701222.68709462 14094.57667506
0.13400001 692538.95807384 16828.69747459
0.13500001 683911.65323613 18137.33789896
0.13600001 675341.06123501 15266.08540902
0.13700001 666828.61406400 15183.68825820
0.13800001 658373.75873273 15099.80286858
0.13900001 649979.81826735 25934.19597188
0.14000001 641645.66413677 16284.96772380
0.14100001 633374.41248280 14839.96318437
0.14200001 625164.92219180 20114.68232024
0.14300001 617019.42246653 18658.66821547
0.14400001 608935.17740426 13244.34073328
0.14500001 600918.21772469 14476.12054786
0.14600001 592966.05513790 20919.84341214
0.14700001 585080.78496915 18184.31165471
0.14800001 577259.85352990 18062.46166911
0.14900001 569507.48541159 17939.48663686
0.15000001 561822.78357477 15270.34397806
0.15100001 554206.38611012 17690.26867935
0.15200001 546659.74508315 15055.01008999
0.15300001 539182.46369318 12455.11549906
0.15400001 531773.21023635 17309.21881003
0.15500001 524435.97761326 14726.16294635
0.15600001 517167.51701418 17051.01384068
0.15700001 509972.93207772 14503.63087282
0.15800001 502846.61186443 14391.47071082
0.15900001 495793.92268946 17848.58205928
0.16000001 488810.63385756 12985.25510136
0.16100001 481902.17277102 12881.24568622
0.16200001 475065.19206328 12776.87894369
0.16300001 468300.18657958 12672.20364707
0.16400001 461608.33401326 11424.80680619
0.16500001 454988.45455699 13595.05566400
0.16600001 448441.82029613 11233.46812878
0.16700001 441967.58240127 14478.85868308
0.16800001 435566.64540892 11041.61498246
0.16900001 429239.49337975 10945.60759801
0.17000001 422983.69374405 14104.39193390
0.17100001 416801.59333716 12904.17793907
0.17200001 410692.40731455 13854.70901502
0.17300001 404655.41405775 14786.10952794
0.17400001 398692.46389475 13605.38097294
0.17500001 392800.43410000 10369.93194999
0.17600001 386980.04134817 10274.32058304
0.17700001 381234.43998219 11196.85603111
0.17800001 375558.95306920 13108.88587604
0.17900001 369955.24342587 17979.82567975
0.18000001 364424.00062521 17809.40175178
0.18100001 358964.54022593 12739.65213439
0.18200001 353574.06637163 10676.16943841
0.18300001 348254.78111597 10573.01565414
0.18400001 343006.08555774 10470.26125627
0.18500001 337827.64272719 9425.39167736
0.18600001 332718.91300207 10266.04254568
0.18700001 327679.03356688 10164.60410147
0.18800001 322706.54171807 13723.09633492
0.18900001 317805.98841470 13586.20664664
0.19000001 312969.02211358 11656.53177938
0.19100001 308202.72174114 10651.48656666
0.19200001 303501.99592070 9665.02151678
0.19300001 298869.52085627 11306.23450824
0.19400001 294301.31288963 11190.80795144
0.19500001 289799.82885401 15336.20766767
0.19600001 285362.30575357 9275.70218686
0.19700001 280991.01766881 9179.97698106
0.19800001 276682.54870166 15692.05149120
0.19900001 272438.15487101 8990.45953563
0.20000001 268255.36017518 8087.89949152
0.20100001 264136.38528294 11204.66599326
0.20200001 260077.88828092 11087.12090143
0.20300001 256081.30247426 9403.30587130
0.20400001 252145.74527410 7753.48203365
0.20500001 248269.16371442 7671.51752138
0.20600001 244451.62196807 8349.24554297
0.20700001 240693.35888455 7509.63315217
0.20800001 236992.48022504 11144.57190939
0.20900001 233351.63328678 17641.38431041
0.21000001 229764.52098251 10908.07114929
0.21100001 226234.82413730 11510.82839626
0.21200001 222759.83043155 7828.89461062
0.21300001 219339.52738669 9153.03891056
0.21400001 215973.67048293 7661.66632260
0.21500001 212662.22969235 7579.28222457
0.21600001 209402.08055246 10224.05706635
0.21700001 206194.63567140 10788.10384838
0.21800001 203038.71457828 8670.76871602
0.21900001 199933.02664316 7257.56921030
0.22000001 196876.54558374 7831.74935363
0.22100001 193871.36322748 8392.69171095
0.22200001 190913.85981638 7024.67580410
0.22300001 188004.08880923 7580.32521923
0.22400001 185141.17506078 6873.36644915
0.22500001 182326.79457607 9889.40580545
0.22600001 179556.62849487 6113.90348937
0.22700001 176832.54352265 6047.67327446
0.22800001 174152.65097155 7776.78699690
0.22900001 171515.78425008 7692.48328740
0.23000001 168922.93986320 7609.13418599
0.23100001 166373.87881313 7526.75463347
0.23200001 163864.60227117 6299.77493225
0.23300001 161397.74539105 7364.57947050
0.23400001 158970.69499178 6164.08898984
0.23500001 156583.00991037 6651.64657559
0.23600001 154235.00448874 5483.05466891
0.23700001 151925.84931358 5423.75307703
0.23800001 149654.12255197 6438.12065670
0.23900001 147419.70026129 7960.66419065
0.24000001 145221.31354045 5774.72580608
0.24100001 143060.14846014 6231.70036169
0.24200001 140934.18066001 6164.46135366
0.24300001 138842.24138825 5589.78890270
0.24400001 136784.72453567 5026.83886447
0.24500001 134759.99515429 6464.43727335
0.24600001 132768.65401551 6394.80252316
0.24700001 130809.96038868 5839.35690799
0.24800001 128882.57308546 5776.51719896
0.24900001 126985.39959491 5714.34325210
0.25000001 125119.94152126 6123.99582747
0.25100001 123283.52935118 5592.14115593
0.25200001 121478.35685805 5071.11424695
0.25300001 119700.39459536 5016.64377483
0.25400001 117952.05587798 4511.66635078
0.25500001 116229.68934144 6694.83042281
0.25600001 114535.91450319 4856.89568430
0.25700001 112867.90668184 4367.98819525
0.25800001 111226.39359074 9506.52030999
0.25900001 109611.19083219 5129.80397366
0.26000001 108020.61440262 6343.51088094
0.26100001 106454.12666819 7948.93001443
0.26200001 104913.51720872 4138.83844972
0.26300001 103394.76736020 4913.31957744
0.26400001 101900.76589747 5265.72232692
0.26500001 100429.32341744 5609.98227156
0.26600001 98979.93539900  4360.56126034
0.26700001 97552.70245200  3921.61882414
0.26800001 96147.32705525  6207.27172842
0.26900001 94762.49858437  4221.66951171
0.27000001 93399.11348709  4935.67638579
0.27100001 92055.45433903  4131.44898625
0.27200001 90732.49189626  4458.59486278
0.27300001 89429.01150905  5145.74556575
0.27400001 88143.31778682  3999.50323385
0.27500001 86878.54032245  5035.48043540
0.27600001 85629.90742031  4625.29966821
0.27700001 84401.42103162  3519.53942359
0.27800001 83189.61714479  4525.93133496
0.27900001 81995.77992342  3788.20521175
0.28000001 80818.61537601  3747.15527926
0.28100001 79658.54424479  3706.51223914
0.28200001 78515.53137962  4332.87980426
0.28300001 77388.38087663  4285.76873579
0.28400001 76276.61043462  4239.07282554
0.28500001 75181.11645317  3225.27004850
0.28600001 74100.82874403  3509.04491126
0.28700001 73036.41015084  3470.69037464
0.28800001 71985.27632855  3120.56187655
0.28900001 70950.43622518  3394.97853407
0.29000001 69929.37438347  3662.90080359
0.29100001 68923.01872410  3018.82836301
0.29200001 67930.10237863  2985.52814086
0.29300001 66951.34776782  2952.55457632
0.29400001 65985.30421680  4379.77477471
0.29500001 65034.04772761  3465.01422695
0.29600001 64094.42938629  3997.56975006
0.29700001 63168.63267777  3106.00181580
0.29800001 62255.54284985  3071.37735189
0.29900001 61355.39094226  3313.19126773
0.30000001 60466.83494184  3003.08549955
0.30100001 59591.55141115  2969.44714739
0.30200001 58727.40639788  3469.90897129
0.30300001 57876.07553760  2639.14916945
0.30400001 57036.26377863  2609.40919141
0.30500001 56208.62990756  3353.96910537
0.30600001 55391.38410384  2805.85069462
0.30700001 54586.40775356  2774.08137337
0.30800001 53792.53116551  2493.28393756
0.30900001 53010.07881916  3943.95005087
0.31000001 52238.49547400  2924.31111509
0.31100001 51477.56003010  3854.63987755
0.31200001 50728.46789479  3334.38235259
0.31300001 49989.23354401  2354.49301140
0.31400001 49262.08768099  2327.63375313
0.31500001 48544.27244436  2300.99862281
0.31600002 47837.98363237  2729.63547530
0.31700002 47141.34946076  2698.37097090
0.31800002 46454.94633306  2445.15621601
0.31900002 45779.55870829  3515.87027527
0.32000002 45114.43587581  2606.71222833
0.32100002 44459.07307552  2576.84799747
0.32200002 43814.65057871  3608.79386579
0.32300002 43178.61534301  2937.87312705
0.32400002 42553.68162529  2281.94128521
0.32500002 41938.48563087  2871.10886224
0.32600002 41333.32253900  2230.13952319
0.32700002 40737.91807666  3206.88906285
0.32800002 40153.27167028  2774.18967107
0.32900002 39576.13816103  1959.01893174
0.33000002 39010.28122940  2711.60477666
0.33100002 38452.96566493  2106.45355887
0.33200002 37906.79299982  2272.13328001
0.33300002 37369.24520422  2059.41920073
0.33400002 36841.99000102  2962.09613635
0.33500002 36323.48217684  2013.77394725
0.33600002 35814.21075666  2172.49012738
0.33700002 35314.38105563  3222.79056776
0.33800002 34824.75081271  1947.92252896
0.33900002 34343.55770578  1751.52152594
0.34000002 33871.82802389  1905.79849402
0.34100002 33409.32433650  2228.06794552
0.34200002 32956.90946452  2204.32299393
0.34300002 32512.95999983  1677.66881544
0.34400002 32078.80039338  1826.08579888
0.34500002 31653.26606195  2628.48733827
0.34600002 31237.37505229  1951.08653817
0.34700002 30829.50048851  1609.30000172
0.34800002 30431.55569646  2230.32882262
0.34900002 30042.11838824  2050.37467711
0.35000002 29661.92287357  2186.38043856
0.35100002 29291.47771556  2010.56712562
0.35200002 28928.13480186  2144.44273443
0.35300002 28575.01394411  1517.33331230
0.35400002 28230.12964409  2104.55626465
0.35500002 27894.42965451  1489.56261410
0.35600002 27566.80750172  1623.82287280
0.35700002 27247.92270560  1755.85622231
0.35800002 26937.92457115  1885.78949892
0.35900002 26637.13641066  1869.92706460
0.36000002 26344.48761161  1711.86488609
0.36100002 26059.67628724  1981.05668519
0.36200002 25784.79675157  1825.17692451
0.36300002 25517.15104754  1811.20746715
0.36400002 25258.23293928  1521.17715082
0.36500002 25006.83150997  1510.16262642
0.36600002 24764.64582801  1499.62319915
0.36700002 24529.96289246  1489.45941738
0.36800002 24304.28427060  1748.81485753
0.36900002 24086.48499279  1737.83997455
0.37000002 23876.05230788  1594.44284865
0.37100002 23673.51162449  1453.08021234
0.37200002 23479.54240486  1839.15264369
0.37300002 23293.01595570  1437.41208272
0.37400002 23114.16553494  1560.20624752
0.37500002 22943.14804177  1552.79233302
0.37600002 22779.89986889  1417.02373847
0.37700002 22623.80323023  1411.04667431
0.37800002 22475.36049221  1661.04159586
0.37900002 22334.97913130  1400.40325787
0.38000002 22201.11574931  1903.19073777
0.38100002 22073.87958267  1264.83336001
0.38200002 21955.01841011  2018.10538786
0.38300002 21842.17419060  2012.97486877
0.38400002 21736.84632105  1255.30293451
0.38500002 21637.91798627  1628.68616398
0.38600002 21546.59987185  1876.17027272
0.38700002 21461.07659182  1748.64860354
0.38800002 21382.29156938  1621.95380384
0.38900002 21309.99116607  1495.96145073
0.39000002 21244.68611159  1744.40125927
0.39100002 21184.84033743  1619.36927211
0.39200002 21131.65103040  1370.28197599
0.39300002 21084.18986952  1495.29081639
0.39400002 21043.87631119  1246.84973051
0.39500002 21008.18231597  1372.67469756
0.39600002 20978.64459391  1249.27834476
0.39700002 20954.04171513  1250.95634966
0.39800002 20936.20055265  2130.15382615
0.39900002 20922.91783304  1506.45015535
0.40000002 20915.23974939  1635.46724969
0.40100002 20912.53627251  1765.43639577
0.40200002 20915.40727453  1770.07100151
0.40300002 20922.86897808  1775.09628820
0.40400002 20935.27944267  1907.72742960
0.40500002 20952.06523012  1658.77508286
0.40600002 20974.48291244  1536.59069097
0.40700002 21000.82198120  1542.30043938
0.40800002 21031.37034403  1677.35702126
0.40900002 21065.77298144  1425.09960972
0.41000002 21105.21682313  1431.25034668
0.41100002 21148.28757055  1437.66065717
0.41200002 21194.54739417  1444.30250061
0.41300002 21245.88009721  1583.24305986
0.41400002 21300.00034655  1458.51759284
0.41500002 21357.72286695  2132.35515207
0.41600002 21418.07448922  1741.61080961
0.41700002 21483.11006033  1616.38927753
0.41800002 21551.44317812  1896.31157510
0.41900002 21621.05274790  1770.76430396
0.42000002 21694.21888941  1917.98598290
0.42100002 21770.88552430  1378.09711899
0.42200002 21849.83220686  1940.92068691
0.42300002 21930.95216028  1673.77034818
0.42400002 22014.48229006  1964.79263749
0.42500002 22100.60685196  1835.89749819
0.42600002 22187.75842301  2131.68899150
0.42700002 22278.18358599  1859.33729019
0.42800002 22369.75798052  1583.44339369
0.42900002 22464.07882433  2173.39972925
0.43000002 22559.65384693  1750.17802838
0.43100002 22655.36179798  1468.06751408
0.43200002 22753.83662753  1921.22028669
0.43300002 22852.84121001  1487.72003327
0.43400002 22953.49688397  1647.48731692
0.43500002 23054.64422688  1809.32856467
0.43600002 23157.41898252  1821.56266349
0.43700002 23260.30857380  1833.84281486
0.43800002 23363.42736651  1692.32994149
0.43900002 23468.20207849  1858.68169270
0.44000002 23572.68653565  1871.19994588
0.44100002 23677.95163964  2197.78757534
0.44200002 23783.19727026  2054.51159356
0.44300002 23888.75516026  2386.48675361
0.44400002 23994.05762834  2242.24479163
0.44500002 24098.82541936  2257.09609574
0.44600002 24203.33657167  2109.68393225
0.44700002 24308.53689450  1796.88713240
0.44800002 24412.23154499  1808.58025972
0.44900002 24515.94863224  1985.79193332
0.45000002 24619.34744787  1832.04882716
0.45100002 24721.11233749  2011.30979510
0.45200002 24822.57473627  2192.70224325
0.45300002 24922.85445558  1697.24646886
0.45400002 25022.14370011  2049.31366616
0.45500002 25120.73502337  2061.91002844
0.45600002 25217.69853425  2074.40797974
0.45700002 25313.63410964  2782.47479320
0.45800002 25407.91103648  1924.26823355
0.45900002 25500.75103997  2111.46228618
0.46000002 25592.53105190  2831.55776978
0.46100002 25681.86253988  2313.67910587
0.46200002 25770.19960702  2147.68853704
0.46300002 25856.55155037  2159.53928784
0.46400002 25940.56699079  1990.29009670
0.46500002 26023.88264716  2000.97643158
0.46600002 26104.02165211  2742.88020510
0.46700002 26182.32404515  2021.79915859
0.46800002 26259.19070567  2216.80098444
0.46900002 26333.17797329  2784.73370266
0.47000002 26405.07321635  2611.72591562
0.47100002 26474.98531966  2061.87195442
0.47200002 26542.56253048  2071.51439088
0.47300002 26607.63961541  2837.70489948
0.47400002 26669.80424612  2090.24600686
0.47500002 26729.96904648  2099.37186842
0.47600002 26788.06167080  2108.35449373
0.47700002 26842.69501910  1924.62132409
