# SAXS profile: number of points = 501, q_min = 0, q_max = 0.5, delta_q = 0.001
#    q    intensity    error
0.00000000 1682732.95097188 277.65093691
0.00100000 1682650.89116647 605.75433521
0.00200000 1682404.65478481 1135.62317794
0.00300000 1681994.45536423 1412.87539284
0.00400000 1681420.16243340 1261.06516974
0.00500000 1680682.31197840 2117.65979691
0.00600000 1679780.79516973 1940.14689741
0.00700000 1678716.14724416 2618.79729854
0.00800000 1677488.23645687 3170.45290076
0.00900000 1676098.23705116 2514.14746305
0.01000000 1674545.63535927 2763.00041765
0.01100000 1672831.57771475 3613.31636519
0.01200000 1670956.05175567 3584.20088816
0.01300000 1668920.21342065 3504.73260276
0.01400000 1666724.12844548 3750.12945525
0.01500000 1664369.15380971 5192.83199112
0.01600000 1661854.68502667 5085.27556351
0.01700000 1659183.08180869 5823.73287839
0.01800000 1656354.19825216 6608.85354841
0.01900000 1653368.67762985 5952.12750804
0.02000000 1650227.82736535 6237.86146961
0.02100000 1646933.59012953 5434.88109384
0.02200000 1643484.44201548 6237.02374081
0.02300000 1639883.78432817 5903.58189230
0.02400000 1636130.93156123 9203.23690968
0.02500000 1632228.72529711 7638.83078326
0.02600000 1628176.88617663 11209.99837405
0.02700000 1623977.56879897 10913.12976216
0.02800000 1619630.81394728 11272.63098203
0.02900000 1615139.08409058 13082.62718181
0.03000000 1610503.67414984 7488.84242902
0.03100000 1605724.83506998 10790.47138817
0.03200000 1600804.33953973 10301.17639939
0.03300000 1595745.73790999 9765.96436622
0.03400000 1590547.06128402 8350.37245703
0.03500000 1585211.82320318 11984.20193682
0.03600000 1579741.19686083 9644.32045254
0.03700000 1574136.87769120 9869.83867958
0.03800000 1568400.51965372 10092.65781106
0.03900000 1562534.07950830 9375.20491122
0.04000000 1556537.55541331 10529.97705032
0.04100000 1550414.79775901 9767.61367877
0.04200000 1544166.83544390 9959.87655068
0.04300000 1537794.29809749 14209.21997398
0.04400000 1531300.97522861 10336.28206283
0.04500000 1524688.07800867 10520.34822709
0.04600000 1517955.63925257 14982.22285590
0.04700000 1511108.04440533 13055.97411087
0.04800000 1504145.64118282 14372.11227021
0.04900000 1497071.98382553 12350.84444146
0.05000000 1489886.95575425 12537.39931649
0.05100000 1482595.00512625 16189.93821017
0.05200000 1475194.58724527 18764.47602421
0.05300000 1467691.59553071 13077.13272581
0.05400000 1460086.00499172 15659.42313380
0.05500000 1452380.28003652 17079.99289000
0.05600000 1444575.67845109 13586.23488982
0.05700000 1436677.44746692 14998.91325168
0.05800000 1428683.95891216 13908.23898942
0.05900000 1420598.27837748 12785.38510255
0.06000000 1412424.29634254 14216.05120684
0.06100000 1404163.26953415 15670.46282030
0.06200000 1395817.07312355 18466.66074062
0.06300000 1387389.15089940 15982.72376564
0.06400000 1378878.38438732 13444.06487651
0.06500000 1370290.55587457 17635.64027906
0.06600000 1361626.84923779 15052.78552262
0.06700000 1352888.95121623 19319.25512749
0.06800000 1344079.63981143 16693.46990786
0.06900000 1335202.02735791 22431.39510983
0.07000000 1326256.41405273 22599.41035375
0.07100000 1317246.24414315 18494.13813399
0.07200000 1308173.77858313 21486.75531981
0.07300000 1299041.48267320 15861.29724663
0.07400000 1289852.10624345 20315.17162539
0.07500000 1280606.94178059 21898.37973088
0.07600000 1271307.33609478 17620.32050432
0.07700000 1261958.54621174 16241.40725128
0.07800000 1252560.86121863 23748.55504242
0.07900000 1243115.97417522 17900.87086774
0.08000000 1233628.54222862 16487.44624033
0.08100000 1224099.27127022 16562.06391735
0.08200000 1214530.08683572 18145.08034879
0.08300000 1204923.90655196 16700.24612859
0.08400000 1195283.12626323 19811.81874775
0.08500000 1185609.58302455 16823.80077291
0.08600000 1175906.03813775 18414.68942183
0.08700000 1166175.13287884 18472.21497221
0.08800000 1156417.10417250 16981.98597231
0.08900000 1146636.91420720 17027.55897576
0.09000000 1136835.03868675 20173.13870914
0.09100000 1127013.56194920 20218.62425126
0.09200000 1117174.71566710 17143.04681741
0.09300000 1107323.53214426 21858.56755171
0.09400000 1097456.62129367 17202.63334726
0.09500000 1087580.07312367 23491.73068365
0.09600000 1077694.91321876 17248.50789688
0.09700000 1067805.49834240 21975.43818901
0.09800000 1057911.47262930 15709.98610719
0.09900000 1048016.25172195 18864.29341804
0.10000000 1038119.44843873 15727.51038347
0.10100000 1028224.93073537 20451.39483419
0.10200000 1018334.66305308 17306.59841263
0.10300000 1008450.06429964 23597.73261467
0.10400000 998574.54645047 18873.05981580
0.10500000 988710.34310236 17292.54471446
0.10600001 978854.77191761 17281.68181137
0.10700001 969015.73902353 17267.86128198
0.10800001 959191.25945920 21955.88896230
0.10900001 949385.23131242 23497.28558090
0.11000001 939598.21032153 17208.74203205
0.11100001 929832.59173463 18745.42593178
0.11200001 920089.80292551 26512.38891943
0.11300001 910371.82127136 17124.09476433
0.11400001 900680.46077930 21751.43415197
0.11500001 891018.19402357 17054.08903665
0.11600001 881385.19900299 20108.80426221
0.11700001 871784.90398028 16973.65287987
0.11800001 862215.92692206 16929.61052247
0.11900001 852681.68156765 16883.09809026
0.12000001 843182.97107473 22955.65746883
0.12100001 833724.64204660 24411.45866910
0.12200001 824304.50740633 16729.26076595
0.12300001 814925.88166341 18189.14653570
0.12400001 805588.10074566 21146.68864095
0.12500001 796293.58091678 18059.93926619
0.12600001 787045.99898420 14993.22698718
0.12700001 777843.78637578 19414.98182290
0.12800001 768688.88720330 16361.54373523
0.12900001 759583.42082714 19255.44062552
0.13000001 750528.34841544 22121.82411225
0.13100001 741523.60742586 14682.16811911
0.13200001 732572.14738228 18999.25953799
0.13300001 723674.60701875 24727.96248758
0.13400001 714830.85047952 24608.05318792
0.13500001 706043.88870174 17283.95521033
0.13600001 697313.59921618 15762.77465351
0.13700001 688641.52618111 14254.88026411
0.13800001 680026.60271566 15596.41086874
0.13900001 671473.59679456 22561.51391626
0.14000001 662979.94157046 14022.02642550
0.14100001 654549.11923217 16730.27627662
0.14200001 646180.14192793 15246.62116790
0.14300001 637875.80961023 19289.36539245
0.14400001 629632.12284586 17802.84911323
0.14500001 621456.62884440 19053.86113918
0.14600001 613345.39208776 14876.69318689
0.14700001 605301.68942914 13437.69813927
0.14800001 597322.65007863 17355.21041683
0.14900001 589412.08428922 17240.30427887
0.15000001 581569.25285609 21076.07071793
0.15100001 573795.49148540 19623.80673475
0.15200001 566091.68127567 14290.98516815
0.15300001 558457.47086199 16770.47864137
0.15400001 550891.34273565 12808.22432304
0.15500001 543397.70917302 16530.15909315
0.15600001 535973.17155795 17671.03630025
0.15700001 528622.82438124 13781.19768205
0.15800001 521340.90941998 16164.17565950
0.15900001 514133.38071041 14807.04206336
0.16000001 506995.55539444 13468.33756479
0.16100001 499932.48950721 15792.86808902
0.16200001 492941.75621615 13257.66915928
0.16300001 486023.45081157 16738.64843615
0.16400001 479178.69934803 16603.54271626
0.16500001 472406.39589714 15291.79575714
0.16600001 465708.32401050 13999.19288070
0.16700001 459082.25304533 13882.64798756
0.16800001 452530.03217881 12618.80054312
0.16900001 446052.65698176 18198.94926417
0.17000001 439647.07221151 13532.33752166
0.17100001 433315.70955742 14533.40958484
0.17200001 427057.26700013 11082.13660198
0.17300001 420872.48261702 10984.77231505
0.17400001 414761.58445936 11976.24131685
0.17500001 408722.56226503 12948.33138407
0.17600001 402755.75840504 11762.48247975
0.17700001 396864.26924257 11655.90413817
0.17800001 391043.56703234 13649.37635195
0.17900001 385294.96650976 13523.85396327
0.18000001 379620.11802284 12368.02402939
0.18100001 374017.36432820 14294.94433987
0.18200001 368484.00941188 11126.37518978
0.18300001 363023.03730977 13025.26719398
0.18400001 357632.74978044 9924.30927524
0.18500001 352313.75822896 11795.46518275
0.18600001 347065.29898268 10708.70030603
0.18700001 341886.00631043 12533.54158349
0.18800001 336774.91516421 10502.32622559
0.18900001 331736.55491627 12290.83994036
0.19000001 326762.84075280 12170.28257887
0.19100001 321860.23942135 10196.53286666
0.19200001 317023.78671639 12848.97468275
0.19300001 312256.91626623 10904.01203126
0.19400001 307554.72299427 9895.57367994
0.19500001 302920.17272543 9796.43884887
0.19600001 298350.04776811 10579.49319381
0.19700001 293847.24866083 9599.99006742
0.19800001 289408.13220647 9502.71647009
0.19900001 285033.62206918 9406.10997282
0.20000001 280721.65169730 9310.13401855
0.20100001 276474.42537389 10052.61058170
0.20200001 272288.50081515 10778.54081420
0.20300001 268165.28016667 8205.85796095
0.20400001 264103.49562923 9745.41944934
0.20500001 260101.92783402 11252.00992995
0.20600001 256160.36746860 9544.53574303
0.20700001 252278.71698081 9445.31561023
0.20800001 248455.37988416 10125.79948583
0.20900001 244692.87884153 10790.95646701
0.21000001 240985.00856860 8389.89346993
0.21100001 237335.56111914 8301.99832041
0.21200001 233741.48467986 9708.45302514
0.21300001 230203.02900431 8867.42109646
0.21400001 226719.83581636 7311.71505075
0.21500001 223292.14350566 10128.53210827
0.21600001 219916.60137235 9305.77142703
0.21700001 216594.59234560 7790.90785502
0.21800001 213325.07049734 8409.27467660
0.21900001 210106.40554927 10400.26756643
0.22000001 206937.94317141 6859.99314049
0.22100001 203821.63002768 8823.43878110
0.22200001 200754.29446161 7386.75461399
0.22300001 197735.24682413 9301.46645043
0.22400001 194763.97116536 9859.92650649
0.22500001 191842.23960441 11055.86879120
0.22600001 188965.59812452 8364.56259653
0.22700001 186135.98736286 10185.36171015
0.22800001 183351.27397342 8187.55152647
0.22900001 180610.73654633 9346.60605828
0.23000001 177915.15542895 8014.18855530
0.23100001 175263.99150203 6709.10591199
0.23200001 172653.91498368 7844.53099828
0.23300001 170087.05606549 6567.06154527
0.23400001 167560.38641282 5906.50390040
0.23500001 165074.64837609 6428.00711179
0.23600001 162629.33660551 6937.76782773
0.23700001 160223.43463312 5719.97688695
0.23800001 157856.11653548 6790.97045456
0.23900001 155527.06572546 6718.76955713
0.24000001 153234.88444997 5539.44133488
0.24100001 150980.88614335 6028.66706887
0.24200001 148762.98265749 5964.65207179
0.24300001 146580.06191170 8047.24577961
0.24400001 144432.10520443 6369.45614081
0.24500001 142318.18449452 5776.69538190
0.24600001 140238.29233479 5715.41187447
0.24700001 138192.26120136 6682.97806784
0.24800001 136178.25612774 6103.50972838
0.24900001 134195.07084719 6038.77847380
0.25000001 132244.81993133 6472.72301775
0.25100001 130324.46251142 7389.39737398
0.25200001 128436.23013683 5848.98619714
0.25300001 126575.87259260 4822.54097393
0.25400001 124746.14781700 5248.69441772
0.25500001 122943.04520214 6609.41842277
0.25600001 121169.85213706 6539.53722924
0.25700001 119423.07023352 5546.00764405
0.25800001 117703.44966953 6401.89093042
0.25900001 116011.41774342 5429.33460728
0.26000001 114344.27324071 5371.89421102
0.26100001 112702.60528845 5757.97637663
0.26200001 111087.09627243 5697.10200190
0.26300001 109494.94409420 6937.59998608
0.26400001 107927.70876595 4719.13928909
0.26500001 106384.16971662 4669.20142980
0.26600001 104863.44703853 4619.75937789
0.26700001 103365.83665111 4570.83751301
0.26800001 101890.89087891 4522.42740567
0.26900001 100437.04181493 4474.47042459
0.27000001 99005.46857286  5231.94423432
0.27100001 97594.56150149  5176.41578700
0.27200001 96205.06674022  5121.47697028
0.27300001 94835.87650034  5846.63206293
0.27400001 93485.18573390  4241.89050342
0.27500001 92156.05896947  3815.26102189
0.27600001 90844.22876193  4906.95124880
0.27700001 89553.07098069  4107.79956029
0.27800001 88279.32432592  4802.83686726
0.27900001 87024.24014023  4751.52373654
0.28000001 85786.56661484  3615.90395395
0.28100001 84566.81403183  4292.61168342
0.28200001 83364.74199180  5308.25019757
0.28300001 82179.40802571  3850.92724235
0.28400001 81010.00294999  4155.81334803
0.28500001 79857.75350738  3768.48756638
0.28600001 78721.27186512  4066.74109704
0.28700001 77601.43491867  4022.85857660
0.28800001 76495.44407006  4642.50872036
0.28900001 75406.73477002  4264.25105309
0.29000001 74332.01443421  4866.88887545
0.29100001 73272.92686307  3851.22521822
0.29200001 72227.85042179  5396.50409971
0.29300001 71197.75616235  3453.80331492
0.29400001 70180.96558360  5589.91417334
0.29500001 69179.42906996  3685.88015533
0.29600001 68190.41034359  3645.45950954
0.29700001 67215.51623428  3304.98708969
0.29800001 66254.21368006  2971.50162422
0.29900001 65306.56014151  3526.55441459
0.30000001 64370.77141673  4359.51070058
0.30100001 63449.06517144  4311.36418250
0.30200001 62539.01737196  3410.87816894
0.30300001 61642.38609974  3091.98223314
0.30400001 60757.87604909  2779.67296084
0.30500001 59886.12980688  3023.65083710
0.30600001 59025.33062196  2989.92826421
0.30700001 58177.26646413  2956.56882168
0.30800001 57340.93028818  3455.07791809
0.30900001 56516.60386240  3416.42886523
0.31000001 55703.74833048  2598.57998265
0.31100001 54901.90716088  2826.35031446
0.31200001 54112.37711263  2540.57622572
0.31300001 53333.28233880  3014.39726051
0.31400001 52566.85160219  3974.05416928
0.31500001 51809.91714465  2701.36920782
0.31600002 51065.45573136  2670.97878849
0.31700002 50330.97480659  2880.94513434
0.31800002 49607.17059872  2848.44387065
0.31900002 48894.87825516  3285.73597432
0.32000002 48193.42667674  2552.56496480
0.32100002 47501.94839179  2294.34421596
0.32200002 46822.10820324  3175.94374981
0.32300002 46151.11992909  2915.82789519
0.32400002 45491.72636030  2439.49394158
0.32500002 44842.06391240  4166.27635538
0.32600002 44203.05120407  3035.42366992
0.32700002 43574.41817065  2787.01991817
0.32800002 42956.76530631  2543.89976190
0.32900002 42347.19280021  2515.42337145
0.33000002 41749.10347846  2280.12739445
0.33100002 41159.95664401  2664.69571932
0.33200002 40582.43500570  2229.80199698
0.33300002 40013.88412865  3407.98267262
0.33400002 39455.87189610  2577.45495367
0.33500002 38907.23376999  2745.29454482
0.33600002 38368.05779879  2327.40649629
0.33700002 37838.67807814  2685.78949718
0.33800002 37319.74392253  1897.70906833
0.33900002 36809.68235269  2065.02327778
0.34000002 36309.33428150  2228.66704374
0.34100002 35818.85059084  2940.01139573
0.34200002 35338.46025699  2909.06218613
0.34300002 34866.75856774  2158.94979276
0.34400002 34405.36782744  1958.52565633
0.34500002 33952.88302262  2467.01659726
0.34600002 33510.51578718  2093.06691520
0.34700002 33076.12870354  2071.88880012
0.34800002 32652.21434708  1709.34350203
0.34900002 32236.84241003  2030.92116802
0.35000002 31831.21846907  2178.68785130
0.35100002 31435.46082524  1825.77165120
0.35200002 31047.16232632  1808.34205534
0.35300002 30669.33350918  2117.10419241
0.35400002 30299.75165671  1936.15422257
0.35500002 29939.77054838  2078.41896991
0.35600002 29588.23598579  1584.45011209
0.35700002 29245.64435647  1570.49117633
0.35800002 28912.15183842  2023.99528532
0.35900002 28588.01752000  1852.50362304
0.36000002 28272.35548793  1684.04293440
0.36100002 27964.66732278  1518.48150755
0.36200002 27667.30687225  1506.48493055
0.36300002 27377.04982890  1943.22308890
0.36400002 27095.95686231  1631.85407933
0.36500002 26822.55282263  1472.55821971
0.36600002 26558.53748734  1608.25231373
0.36700002 26302.24891396  1451.88420882
0.36800002 26055.13967565  1730.58245923
0.36900002 25816.05320401  1576.07012276
0.37000002 25584.43003654  1993.28303857
0.37100002 25361.05628853  1839.69111032
0.37200002 25146.28934221  1688.32194641
0.37300002 24939.28370910  1539.00327059
0.37400002 24739.93066672  1809.10751570
0.37500002 24548.64259879  1661.45220979
0.37600002 24365.29266116  1653.42883831
0.37700002 24189.34641172  2057.30400978
0.37800002 24020.94967708  1911.82747537
0.37900002 23860.98866166  1360.07641814
0.38000002 23707.54639797  1896.84087716
0.38100002 23560.95034499  1755.05527434
0.38200002 23422.75898065  1749.32883734
0.38300002 23290.99817729  2012.34233785
0.38400002 23166.63758548  1337.87338394
0.38500002 23048.76100409  2001.78498804
0.38600002 22938.74654246  2130.55087980
0.38700002 22834.61120292  1461.87187847
0.38800002 22737.27939085  1459.39234684
0.38900002 22646.55216169  1854.75270991
0.39000002 22562.94266893  1455.64831525
0.39100002 22484.78152463  1586.52625954
0.39200002 22413.83118699  1717.68403439
0.39300002 22348.28933780  1584.94075493
0.39400002 22290.14898542  1848.96794594
0.39500002 22236.68672116  1981.28888072
0.39600002 22189.36954097  1321.37701877
0.39700002 22147.27398067  1454.41155122
0.39800002 22112.00566436  1455.74396188
0.39900002 22081.25225528  1324.87519809
0.40000002 22056.27733904  1990.02771720
0.40100002 22036.27446971  1594.54489618
0.40200002 22022.00273702  1597.47615423
0.40300002 22012.45959395  1600.74613752
0.40400002 22007.99665419  1470.68444610
0.40500002 22007.88575573  1474.30833663
0.40600002 22013.45915834  1478.31391982
0.40700002 22022.97889422  1617.36764662
0.40800002 22036.87150138  2027.94319600
0.40900002 22054.88209997  1898.92543878
0.41000002 22077.76424793  1361.09423038
0.41100002 22104.49413305  1502.66358236
0.41200002 22134.31029302  1919.70882267
0.41300002 22169.40941176  2478.09670147
0.41400002 22207.30589627  2073.60728632
0.41500002 22248.87220717  1665.99562981
0.41600002 22293.01287794  1394.42802159
0.41700002 22341.96325582  1540.92527877
0.41800002 22394.46091718  1829.73951594
0.41900002 22448.14183403  1979.92620358
0.42000002 22505.49214142  2131.83284411
0.42100002 22566.52256200  1714.15313503
0.42200002 22629.63096106  1723.02018302
0.42300002 22695.11994938  1443.40969718
0.42400002 22763.01601751  1741.37080786
0.42500002 22833.77814059  2188.61773848
0.42600002 22905.51466532  1760.51794060
0.42700002 22980.49177213  1917.95193419
0.42800002 23056.66947866  1780.43610151
0.42900002 23135.71228521  1939.92956704
0.43000002 23216.16360387  1500.92504812
0.43100002 23296.74168376  2415.40629223
0.43200002 23380.08372345  1974.09746274
0.43300002 23464.09882140  2138.51806792
0.43400002 23549.82022330  1843.95101087
0.43500002 23636.05944369  2009.53786913
0.43600002 23724.10855114  2332.67308383
0.43700002 23812.11437383  1564.45598850
0.43800002 23900.65621532  1888.62994364
0.43900002 23990.71412127  2058.40336915
0.44000002 24080.62890403  1752.22704524
0.44100002 24171.36274334  1762.81756841
0.44200002 24262.15878655  2095.88668610
0.44300002 24353.29946105  1784.12280307
0.44400002 24444.28245579  2610.64949000
0.44500002 24534.79864818  2133.79153955
0.44600002 24625.08197289  2146.44537189
0.44700002 24716.21758646  2325.30186073
0.44800002 24805.74437027  1670.66696251
0.44900002 24895.60041372  1848.49841832
0.45000002 24985.03652889  1690.23780128
0.45100002 25073.01261607  1869.94536953
0.45200002 25160.78028343  1709.67510129
0.45300002 25247.21204819  2235.13578856
0.45400002 25332.91535888  2593.45733278
0.45500002 25418.05357724  1912.45444179
0.45600002 25501.49105520  1922.94002415
0.45700002 25584.08186577  2460.67711047
0.45800002 25665.00937746  2473.85037114
0.45900002 25744.53564765  1954.01034827
0.46000002 25823.14433113  1964.23756664
0.46100002 25899.29683356  2333.26776232
0.46200002 25974.57620614  2345.11472392
0.46300002 26048.11066997  1812.94858855
0.46400002 26119.27646640  2550.54746783
0.46500002 26189.76375262  1830.66457307
0.46600002 26257.30427730  2758.98637770
0.46700002 26322.91762763  2587.01646706
0.46800002 26387.36646456  2784.52697815
0.46900002 26448.84638267  2051.10813419
0.47000002 26508.35179011  1872.81514274
0.47100002 26566.06939485  2068.96558253
0.47200002 26621.49314217  1888.79502796
0.47300002 26674.53839884  2086.21574705
0.47400002 26724.68338158  3237.02742802
0.47500002 26772.92101754  2102.74531638
0.47600002 26819.26093609  2110.81003202
0.47700002 26862.17347105  1926.01792916
