# SAXS profile: number of points = 501, q_min = 0, q_max = 0.5, delta_q = 0.001
#    q    intensity    error
0.00000000 1682732.95097188 353.37391970
0.00100000 1682650.87935188 605.75433095
0.00200000 1682404.60733348 832.79030700
0.00300000 1681994.35364356 1211.03597776
0.00400000 1681419.97859850 2269.91705736
0.00500000 1680682.02298628 1815.13665667
0.00600000 1679780.38092778 2116.52336614
0.00700000 1678715.57353102 2417.35052635
0.00800000 1677487.48827840 2264.60820479
0.00900000 1676097.30105143 4274.04830039
0.01000000 1674544.47129303 4420.79759510
0.01100000 1672830.14467853 3312.20383067
0.01200000 1670954.34689435 3584.19723123
0.01300000 1668918.26274524 3855.20135697
0.01400000 1666721.84807995 4500.14918931
0.01500000 1664366.54371825 4393.92787107
0.01600000 1661851.71868466 4237.72207209
0.01700000 1659179.71648376 4927.76397901
0.01800000 1656350.41355638 6136.77855837
0.01900000 1653364.48137845 6448.12176833
0.02000000 1650223.20698674 6757.66433830
0.02100000 1646928.49062350 9782.75567784
0.02200000 1643478.85751186 6804.00277922
0.02300000 1639877.65306524 7084.27178371
0.02400000 1636124.28388625 8589.65288207
0.02500000 1632221.49987581 8911.92979634
0.02600000 1628169.04890837 7253.49344465
0.02700000 1623969.20725439 8184.80517944
0.02800000 1619621.81284704 9158.96177168
0.02900000 1615129.38868483 7994.89084107
0.03000000 1610493.33146417 7488.79433553
0.03100000 1605713.86215789 7707.42689300
0.03200000 1600792.60601202 12678.27802355
0.03300000 1595733.29526733 8952.06419914
0.03400000 1590533.90724130 10020.36407796
0.03500000 1585197.83151515 8560.06868547
0.03600000 1579726.50442303 13151.22375709
0.03700000 1574121.31899228 10766.99031985
0.03800000 1568384.16079820 9175.04776529
0.03900000 1562516.93281438 13125.14284347
0.04000000 1556519.49398053 9572.59533156
0.04100000 1550395.94823101 11720.99391209
0.04200000 1544147.03336995 9959.74882730
0.04300000 1537773.59249375 13194.09803604
0.04400000 1531279.29543135 11369.74929661
0.04500000 1524665.48849588 11572.21159539
0.04600000 1517932.04954869 11771.56359147
0.04700000 1511083.52497593 10879.80188582
0.04800000 1504120.09714640 13266.33987409
0.04900000 1497045.40636257 11227.84107035
0.05000000 1489859.34939007 11397.42455357
0.05100000 1482566.44002017 19658.83191046
0.05200000 1475164.88931870 11727.56141660
0.05300000 1467660.79937105 20209.69014947
0.05400000 1460054.07046296 13249.99130735
0.05500000 1452347.29319073 18299.57674787
0.05600000 1444541.63540598 13585.91471497
0.05700000 1436642.26442680 13748.66711233
0.05800000 1428647.68470618 13907.88586001
0.05900000 1420560.79471744 14063.55252455
0.06000000 1412385.71054960 14215.66284082
0.06100000 1404123.38314376 14364.18288082
0.06200000 1395776.06067024 14509.09282887
0.06300000 1387346.96307310 14650.38461504
0.06400000 1378834.75121061 17476.73128892
0.06500000 1370245.86723384 18991.60860825
0.06600000 1361580.91438906 16420.66659583
0.06700000 1352841.76602163 22078.37865472
0.06800000 1344031.23757292 18083.94114804
0.06900000 1335152.36223063 18224.83059771
0.07000000 1326205.56399706 15536.49890978
0.07100000 1317194.01460073 14225.69602399
0.07200000 1308120.08473203 25783.04807792
0.07300000 1298986.73777952 14418.75346495
0.07400000 1289795.91666283 15961.22521671
0.07500000 1280549.54838449 18977.74519659
0.07600000 1271248.57200853 17619.50603405
0.07700000 1261898.47875406 20669.89805117
0.07800000 1252499.34960100 17810.54158657
0.07900000 1243053.25000325 16408.30366965
0.08000000 1233564.51383293 23980.49527386
0.08100000 1224033.91563321 27100.11216361
0.08200000 1214463.37876170 15120.06977510
0.08300000 1204855.84416582 16699.30278387
0.08400000 1195213.70416829 16762.87298779
0.08500000 1185538.80899301 15293.45135396
0.08600000 1175833.78697691 15344.63164050
0.08700000 1166101.59463894 16931.79594924
0.08800000 1156342.20683761 16980.88610490
0.08900000 1146560.67799044 17026.42686788
0.09000000 1136757.32609749 20171.75969918
0.09100000 1126934.59141685 23327.54713828
0.09200000 1117094.41862523 18700.16144645
0.09300000 1107241.81907188 17173.32142082
0.09400000 1097373.64492419 15637.57517510
0.09500000 1087495.70851970 23489.90840811
0.09600000 1077609.09032323 21950.89820175
0.09700000 1067718.37867059 18834.55308521
0.09800000 1057823.06377205 17279.54055916
0.09900000 1047926.44067923 18862.67681920
0.10000000 1038028.33479120 18871.35601397
0.10100000 1028132.41296215 18876.51198978
0.10200000 1018240.89660196 22024.55162945
0.10300000 1008355.03359587 22022.47496969
0.10400000 998478.12585939 18871.23746654
0.10500000 988612.60106956 20434.62342554
0.10600001 978755.78534108 17279.93420328
0.10700001 968915.47182416 20405.36079685
0.10800001 959089.75671926 15681.11826034
0.10900001 949282.47556862 21928.42621771
0.11000001 939494.16329006 21899.60997710
0.11100001 929727.27620469 18743.30277060
0.11200001 919983.21751896 20271.83115237
0.11300001 910263.96184631 21791.72027257
0.11400001 900571.37092836 15534.85687996
0.11500001 890908.04307613 21702.52095126
0.11600001 881273.71936769 20106.26085421
0.11700001 871672.19312666 15428.59854495
0.11800001 862102.17474332 16927.37699834
0.11900001 852566.79842245 18415.44371332
0.12000001 843066.83638865 18361.99656149
0.12100001 833607.39871962 19831.52094977
0.12200001 824186.01433127 21288.72575312
0.12300001 814806.38769879 21217.55933533
0.12400001 805467.55874737 25674.27964478
0.12500001 796171.97640739 16552.41616947
0.12600001 786923.29461740 16489.97841577
0.12700001 777720.11311337 16425.44956303
0.12800001 768564.19606661 29743.43578956
0.12900001 759457.75999586 20733.19782509
0.13000001 750401.65186534 16219.93246959
0.13100001 741395.89399232 16147.60333231
0.13200001 732443.49446861 17534.69808417
0.13300001 723545.01340686 17451.90654611
0.13400001 714700.34739563 15919.95098879
0.13500001 705912.57206693 21600.92572369
0.13600001 697181.44521034 22923.32699937
0.13700001 688508.39173917 18527.76169535
0.13800001 679892.72698293 15593.34042867
0.13900001 671338.91109828 21147.17669686
0.14000001 662844.46193084 19626.82544338
0.14100001 654412.93131680 18120.69492279
0.14200001 646043.22360241 26329.49281975
0.14300001 637738.06728228 15152.65719334
0.14400001 629493.82198732 19168.08778367
0.14500001 621317.48606117 13606.85358660
0.14600001 613205.65399892 17577.54090109
0.14700001 605161.43207519 18808.41819621
0.14800001 597181.81002555 17351.11830890
0.14900001 589270.61304717 17236.16624485
0.15000001 581427.30500194 17120.12780356
0.15100001 573653.01507204 19618.93404118
0.15200001 565948.75612457 12988.52456595
0.15300001 558314.06223173 18055.87762461
0.15400001 550747.61340937 17926.83566246
0.15500001 543253.38053325 13983.34267484
0.15600001 535828.47634805 13880.63733489
0.15700001 528477.87127071 17534.89659635
0.15800001 521195.52783718 14916.61671075
0.15900001 513987.69770589 16036.41692535
0.16000001 506849.53036624 13464.45840973
0.16100001 499786.40128652 13359.29113700
0.16200001 492795.32366886 19278.15397197
0.16300001 485876.84138412 15538.34212100
0.16400001 479032.04896631 15412.85690313
0.16500001 472259.60034590 12935.19106416
0.16600001 465561.33666803 17493.46805122
0.16700001 458935.26588511 13878.20309562
0.16800001 452382.91318245 16055.07034691
0.16900001 445905.55556438 14781.76986493
0.17000001 439499.95031164 14655.12653515
0.17100001 433168.73431811 13410.90464777
0.17200001 426910.35918561 12186.15677842
0.17300001 420725.69296153 19765.69398876
0.17400001 414614.85323454 15237.09657596
0.17500001 408576.06400089 10786.40859904
0.17600001 402609.46579605 12827.13818608
0.17700001 396718.15211554 19066.27529118
0.17800001 390897.69861365 11545.16407386
0.17900001 385149.35750221 12478.83977249
0.18000001 379474.86441767 10302.74305559
0.18100001 373872.42012672 10206.71755159
0.18200001 368339.52370634 17188.56468571
0.18300001 362878.86683948 14021.64007705
0.18400001 357489.13758096 10912.35644017
0.18500001 352170.58272488 9825.55972220
0.18600001 346922.66064795 11677.41730909
0.18700001 341743.80653877 15419.48127952
0.18800001 336633.27060974 14315.33050902
0.18900001 331595.56030653 11340.56869830
0.19000001 326622.53231749 10293.50959234
0.19100001 321720.51953577 11118.66168051
0.19200001 316884.74294106 12843.33923827
0.19300001 312118.50017932 10899.17854128
0.19400001 307417.09752266 12588.73073842
0.19500001 302783.22574679 14242.92361218
0.19600001 298213.96500064 10574.66769864
0.19700001 293712.01945627 8723.24739009
0.19800001 289273.71387460 9498.30284395
0.19900001 284900.11833266 11111.10514008
0.20000001 280589.11157083 9305.73832505
0.20100001 276342.77385337 10047.82373219
0.20200001 272157.81862757 9115.92656578
0.20300001 268035.56024213 10662.45509039
0.20400001 263974.70746677 9740.66716592
0.20500001 259974.27653365 8033.20552459
0.20600001 256033.81096061 10334.80526793
0.20700001 252153.26796164 8653.90056551
0.20800001 248331.08718241 10120.73393653
0.20900001 244569.70522751 11555.91911826
0.21000001 240862.99232819 9910.30828783
0.21100001 237214.80767185 11315.14686085
0.21200001 233621.89097508 8957.06372342
0.21300001 230084.71713629 8862.86372309
0.21400001 226602.83958497 10231.11869095
0.21500001 223176.46579149 10846.37675026
0.21600001 219802.15362440 7870.01648260
0.21700001 216481.62116561 9202.63415085
0.21800001 213213.40367892 7704.46670621
0.21900001 209996.05252355 10394.80509140
0.22000001 206829.10457955 8227.66216920
0.22100001 203714.25269830 6783.68493561
0.22200001 200648.32833352 8725.19297015
0.22300001 197630.77159652 7304.43366360
0.22400001 194661.00589644 7883.77111160
0.22500001 191740.82828922 7150.01582501
0.22600001 188865.66303120 9646.31419548
0.22700001 186037.71441210 6998.73914715
0.22800001 183254.48976946 6924.27122339
0.22900001 180515.62878526 8718.90528265
0.23000001 177821.62361705 8009.97541464
0.23100001 175172.08530059 7924.78551378
0.23200001 172563.64467081 6634.20963312
0.23300001 169998.46148489 8950.41942048
0.23400001 167473.51447845 11216.53916268
0.23500001 164989.45144702 7008.75222896
0.23600001 162545.88019977 7512.05820873
0.23700001 160141.69234177 5717.05868701
0.23800001 157776.08499220 5656.27291450
0.23900001 155448.85543463 6155.77496638
0.24000001 153158.45406421 5536.67837631
0.24100001 150906.17851729 6025.68399322
0.24200001 148690.10054455 8129.63163182
0.24300001 146508.91219721 6970.89437209
0.24400001 144362.82712209 6366.40097724
0.24500001 142250.75032928 6298.86352254
0.24600001 140172.65485045 6232.07652946
0.24700001 138128.42278417 5652.21532771
0.24800001 136116.33259550 7117.52336812
0.24900001 134134.97277841 8048.09874744
0.25000001 132186.53979521 7962.91753397
0.25100001 130268.07077787 4924.13330836
0.25200001 128381.66400601 5359.29281748
0.25300001 126523.25916842 5302.59004262
0.25400001 124695.36255934 5246.55762790
0.25500001 122894.24693933 5662.96716689
0.25600001 121122.84209212 5136.21436192
0.25700001 119377.92555796 6005.90371898
0.25800001 117660.22365690 6856.64985802
0.25900001 115970.03460080 6331.96418880
0.26000001 114304.83179852 5817.54468965
0.26100001 112665.10729361 5313.28671137
0.26200001 111051.49807119 4380.98180620
0.26300001 109461.15706227 5635.06063220
0.26400001 107895.80696840 5575.51608892
0.26500001 106354.20044114 4667.88607824
0.26600001 104835.30883302 4198.65431744
0.26700001 103339.64083932 4985.10450999
0.26800001 101866.52827100 4521.34607126
0.26900001 100414.58230784 5693.50708628
0.27000001 98984.82265779  4426.10655460
0.27100001 97575.80935876  4777.31185228
0.27200001 96188.24818143  4332.79984438
0.27300001 94820.78294658  4676.56123624
0.27400001 93471.93838216  4241.28940481
0.27500001 92144.63689264  4196.26696268
0.27600001 90834.61254215  3774.17832974
0.27700001 89545.29576862  4107.44291130
0.27800001 88273.27752172  5171.93157477
0.27900001 87020.01469753  5116.77710638
0.28000001 85784.13853965  3977.38177163
0.28100001 84566.17957867  3934.86452203
0.28200001 83365.79701164  4600.54172583
0.28300001 82182.23383692  5601.54132345
0.28400001 81014.55683292  5887.73319650
0.28500001 79863.97697166  4111.39772910
0.28600001 78729.23397559  3389.29368307
0.28700001 77610.99989965  4358.63396067
0.28800001 76506.69453683  5638.16112076
0.28900001 75419.61284075  4264.97930802
0.29000001 74346.48263793  4543.31376906
0.29100001 73289.04329225  3531.06627296
0.29200001 72245.62004173  3492.71466625
0.29300001 71217.06949978  4711.00937041
0.29400001 70201.77464623  3417.07154266
0.29500001 69201.78312046  4916.09490559
0.29600001 68214.28190250  3038.94640261
0.29700001 67240.87148185  3005.66709752
0.29800001 66281.06213525  4459.05866623
0.29900001 65334.80129868  4116.09267667
0.30000001 64400.44409697  3198.44820749
0.30100001 63480.10008039  4601.03787164
0.30200001 62571.49515304  3981.42442507
0.30300001 61676.20864509  4218.65287104
0.30400001 60793.00159282  3615.66394090
0.30500001 59922.56602796  3850.62427525
0.30600001 59062.98126376  2991.83545756
0.30700001 58216.28734829  5648.14446593
0.30800001 57381.17335195  3457.50276401
0.30900001 56558.04417265  4470.91360352
0.31000001 55746.39366449  2860.62632633
0.31100001 54945.69397793  3085.75031990
0.31200001 54157.29288424  3559.75902982
0.31300001 53379.30728419  5028.33098424
0.31400001 52613.93846584  2486.00871022
0.31500001 51858.04005171  3195.49257928
0.31600002 51114.56606928  3159.64705117
0.31700002 50381.14951012  3604.77141813
0.31800002 49658.31860185  2376.15065761
0.31900002 48946.98368082  2584.40086072
0.32000002 48246.34300725  3484.59228869
0.32100002 47555.76993446  2986.02693557
0.32200002 46876.80258340  2952.53555052
0.32300002 46206.60203681  2470.20506185
0.32400002 45548.02490343  2442.51295110
0.32500002 44899.13086525  3073.79464458
0.32600002 44260.83590245  2605.19292458
0.32700002 43632.88799869  2576.08582943
0.32800002 43015.98565410  3608.82628734
0.32900002 42406.98601544  2518.97508860
0.33000002 41809.54419440  2075.84396755
0.33100002 41220.94186399  2258.08330224
0.33200002 40643.99704848  2030.16774871
0.33300002 40076.01803139  2208.58945830
0.33400002 39518.46637230  3177.28484680
0.33500002 38970.31138939  3338.97643796
0.33600002 38431.57842287  2136.98801940
0.33700002 37902.56490158  2498.15817097
0.33800002 37384.02168273  2661.36862963
0.33900002 36874.32354758  2444.76776698
0.34000002 36374.31447480  2232.65552820
0.34100002 35884.09742602  1840.85428513
0.34200002 35403.91540255  2003.68468710
0.34300002 34932.47046011  1982.76711722
0.34400002 34471.20251158  1783.88481446
0.34500002 34018.98916164  1942.14418322
0.34600002 33576.69673630  2097.20057747
0.34700002 33142.45539439  2595.05438029
0.34800002 32718.53624972  2055.37854455
0.34900002 32303.31283349  2204.70120530
0.35000002 31897.69878924  2015.29670495
0.35100002 31501.89887071  2162.29044090
0.35200002 31113.55077918  1976.95511014
0.35300002 30735.71968124  1958.48015085
0.35400002 30366.05452309  1778.69172794
0.35500002 30005.89834759  1922.77805718
0.35600002 29654.25382180  1905.58244085
0.35700002 29311.41102515  1574.02284660
0.35800002 28977.82495814  2184.63832707
0.35900002 28653.44751617  2166.20073483
0.36000002 28337.48408576  1687.92231952
0.36100002 28029.58459604  1826.40781879
0.36200002 27731.88862382  2114.00196993
0.36300002 27441.28627153  2247.44145209
0.36400002 27159.86982825  1487.00294353
0.36500002 26886.09617934  1476.04675016
0.36600002 26621.65526729  1612.07441107
0.36700002 26364.93984733  1746.41369821
0.36800002 26117.39383358  1445.59781716
0.36900002 25877.81656794  1723.46266506
0.37000002 25645.69923523  1855.33819906
0.37100002 25421.79955061  1560.39013033
0.37200002 25206.57804131  1692.36972986
0.37300002 24998.96933959  1682.93069566
0.37400002 24799.00401120  1813.42725422
0.37500002 24607.14844465  1526.62756182
0.37600002 24423.15706549  1519.24255723
0.37700002 24246.60739155  1649.73924507
0.37800002 24077.57128479  1642.57199086
0.37900002 23916.87613242  1363.26200413
0.38000002 23762.85301717  1765.46124855
0.38100002 23615.48328992  1759.11743360
0.38200002 23476.54990056  1753.34621239
0.38300002 23344.05731511  1613.54131806
0.38400002 23218.95152388  1609.07341683
0.38500002 23100.24900998  1738.75582535
0.38600002 22989.48978839  1467.99393998
0.38700002 22884.53182582  1731.44375997
0.38800002 22786.37671845  2260.29474567
0.38900002 22694.83472702  1593.17747331
0.39000002 22610.36207968  1723.92713844
0.39100002 22531.38382902  1457.32997510
0.39200002 22459.57138503  1456.39097546
0.39300002 22393.14968648  1588.12225101
0.39400002 22334.13886743  1455.62756965
0.39500002 22279.74906750  1720.44230450
0.39600002 22231.53650217  1853.44328600
0.39700002 22188.54122940  1324.65597415
0.39800002 22152.33454214  1458.39901368
0.39900002 22120.69348302  1858.13834061
0.40000002 22094.77984961  1461.90117801
0.40100002 22073.81810384  1464.15642420
0.40200002 22058.59017887  1333.44183949
0.40300002 22048.12340937  1603.33961030
0.40400002 22042.65602810  1473.00055887
0.40500002 22041.64622940  1610.80358276
0.40600002 22046.23416534  1480.51492552
0.40700002 22054.76699144  2024.62770574
0.40800002 22067.67607877  1489.23719074
0.40900002 22084.68857231  1494.02925271
0.41000002 22106.61853955  1771.73502680
0.41100002 22132.39023343  1367.78178123
0.41200002 22161.19948529  1647.46364780
0.41300002 22195.36721653  1791.83208029
0.41400002 22232.27108378  2214.33430487
0.41500002 22272.90503176  2362.70987772
0.41600002 22316.03150764  1814.62818803
0.41700002 22364.08399710  1963.11938629
0.41800002 22415.56825922  1549.70038503
0.41900002 22468.31124368  1981.70514559
0.42000002 22524.70464844  1849.16571574
0.42100002 22584.78482044  2144.42542031
0.42200002 22646.98957199  1868.03702336
0.42300002 22711.53793672  1588.89926934
0.42400002 22778.52120887  2178.19619381
0.42500002 22848.34571801  1752.01123268
0.42600002 22919.14878289  1614.76870402
0.42700002 22993.21068052  1919.01345433
0.42800002 23068.49868152  1781.34955260
0.42900002 23146.64445967  2239.43795759
0.43000002 23226.19554741  1501.57361330
0.43100002 23305.91449971  1963.29033049
0.43200002 23388.40153863  1670.98442711
0.43300002 23471.55017256  1680.79778751
0.43400002 23556.46076545  1844.47096534
0.43500002 23641.88113152  1855.41491913
0.43600002 23729.09194733  1555.44205086
0.43700002 23816.32243400  1721.20570387
0.43800002 23903.99832710  1574.07836443
0.43900002 23993.32163901  1741.91523354
0.44000002 24082.48862203  2070.97370719
0.44100002 24172.45290116  1602.63370330
0.44200002 24262.52337425  2740.81608286
0.44300002 24352.93900336  2270.66814028
0.44400002 24443.19019620  2121.05792979
0.44500002 24533.04390251  2133.63892932
0.44600002 24622.63812423  2146.23235381
0.44700002 24713.12432106  2158.93864300
0.44800002 24802.03141741  1837.45858464
0.44900002 24891.21557705  1680.15713108
0.45000002 24980.07108167  2027.88226652
0.45100002 25067.45125502  2719.31724102
0.45200002 25154.59034404  2051.10539386
0.45300002 25240.48685912  1718.87723657
0.45400002 25325.66007002  1728.47638170
0.45500002 25410.24373808  1738.06075406
0.45600002 25493.18158175  1922.31344828
0.45700002 25575.25848765  2284.12644379
0.45800002 25655.69119118  2119.67330667
0.45900002 25734.80059540  2130.84159029
0.46000002 25812.94224420  1784.96504078
0.46100002 25888.73981463  2511.72565586
0.46200002 25963.59903267  3065.39246508
0.46300002 26036.72469072  2355.80296167
0.46400002 26107.56797432  2185.20354302
0.46500002 26177.68952295  2561.74881813
0.46600002 26244.89458435  2389.99143860
0.46700002 26310.23781543  2401.07241684
0.46800002 26374.38612731  2040.98196720
0.46900002 26435.59904794  2609.19374970
0.47000002 26494.86162506  2620.60688754
0.47100002 26552.29909615  2443.87372464
0.47200002 26607.54891978  2265.36682240
0.47300002 26660.41774558  2274.66694987
0.47400002 26710.34003378  2474.04536289
0.47500002 26758.40594040  2483.71535711
0.47600002 26804.64491224  3068.59589500
0.47700002 26847.44627582  3079.93918275
