# SAXS profile: number of points = 501, q_min = 0, q_max = 0.5, delta_q = 0.001
#    q    intensity    error
0.00000000 1664650.74656090 274.66737318
0.00100000 1664569.12473236 798.99319885
0.00200000 1664324.19357362 823.84050191
0.00300000 1663916.17723043 1098.18471609
0.00400000 1663344.94225417 1372.25962950
0.00500000 1662611.00796974 1645.98496304
0.00600000 1661714.28777676 1919.28008052
0.00700000 1660655.30321562 1992.78644668
0.00800000 1659433.92489563 2688.28307183
0.00900000 1658051.34428440 3481.90797184
0.01000000 1656507.01023739 4099.85502737
0.01100000 1654802.06927366 3872.23701069
0.01200000 1652936.54303195 3223.22640023
0.01300000 1650911.58482146 3813.60592914
0.01400000 1648727.22469441 3709.63642001
0.01500000 1646384.84620424 4741.58856821
0.01600000 1643883.85648370 6287.85603214
0.01700000 1641226.53517034 4431.31184374
0.01800000 1638412.79689843 7471.16269004
0.01900000 1635443.30987637 6378.22919632
0.02000000 1632319.33977305 5655.98676817
0.02100000 1629042.80755331 6988.59396126
0.02200000 1625612.22295821 5608.36242401
0.02300000 1622030.96753032 7007.17409869
0.02400000 1618298.37505811 9102.92877477
0.02500000 1614417.20324401 9444.34107031
0.02600000 1610387.31348025 7174.27580969
0.02700000 1606210.77878181 9444.51981181
0.02800000 1601887.63506303 6968.21153208
0.02900000 1597420.20105697 10782.58685221
0.03000000 1592810.11841391 8147.22413018
0.03100000 1588057.40019403 10671.74622034
0.03200000 1583163.66818503 10971.32472584
0.03300000 1578132.73654071 10463.02052562
0.03400000 1572962.68322926 14864.49804237
0.03500000 1567656.67296846 11851.48499492
0.03600000 1562216.19404588 11271.39036093
0.03700000 1556642.75311554 13309.29615466
0.03800000 1550938.09840280 9072.98829555
0.03900000 1545104.15269292 11124.75041458
0.04000000 1539140.92241906 11358.86053381
0.04100000 1533052.24290689 12555.69845157
0.04200000 1526839.08405422 16741.79133335
0.04300000 1520502.15247110 13045.90907377
0.04400000 1514045.13428434 11241.78564415
0.04500000 1507469.44708207 13522.00156862
0.04600000 1500774.91311902 13754.60271814
0.04700000 1493965.94738920 11832.21085361
0.04800000 1487042.90692712 13115.71904935
0.04900000 1480009.35977293 12210.07778648
0.05000000 1472865.22480059 11267.41949440
0.05100000 1465614.96993929 12574.97702787
0.05200000 1458256.83321749 13911.77083720
0.05300000 1450796.83990714 18802.32792172
0.05400000 1443235.04941340 14288.02765550
0.05500000 1435573.86412087 14470.58522538
0.05600000 1427814.39059301 14649.37633109
0.05700000 1419962.04754958 13589.03742937
0.05800000 1412015.30656367 12496.33604657
0.05900000 1403976.78805905 16426.52918751
0.06000000 1395850.76732887 15326.44214130
0.06100000 1387638.24322948 15486.04351812
0.06200000 1379341.34237599 14338.25392422
0.06300000 1370963.49167322 17109.62517605
0.06400000 1362503.15081183 13284.40634168
0.06500000 1353966.62905881 18765.97835659
0.06600000 1345354.95436412 16224.98150877
0.06700000 1336669.35308642 17724.23645140
0.06800000 1327913.40535399 15118.29482763
0.06900000 1319089.50950212 16620.52859788
0.07000000 1310198.36791491 19535.05858041
0.07100000 1301243.07667651 15458.76847497
0.07200000 1292226.19056129 24054.79166419
0.07300000 1283150.16386273 19940.15448073
0.07400000 1274017.52370820 18632.50715743
0.07500000 1264829.78032920 14419.06017161
0.07600000 1255588.26673921 15952.24967677
0.07700000 1246297.92481152 18956.19232521
0.07800000 1236959.23776391 21986.95148236
0.07900000 1227574.04312654 14730.88920845
0.08000000 1218146.87171127 19240.63074128
0.08100000 1208678.24978733 14866.74316991
0.08200000 1199170.22688226 17915.60403031
0.08300000 1189625.91765136 17987.14471906
0.08400000 1180047.31285984 18054.72473422
0.08500000 1170436.64449820 16608.49676512
0.08600000 1160796.23330825 21207.74817828
0.08700000 1151129.06522454 16714.39481193
0.08800000 1141435.35456201 22857.24404857
0.08900000 1131719.97421069 18333.86444335
0.09000000 1121983.19857936 15315.07138004
0.09100000 1112227.33257570 16883.61170171
0.09200000 1102454.61667234 15379.24262520
0.09300000 1092670.11198901 15406.64930304
0.09400000 1082870.27288552 16973.99232522
0.09500000 1073061.10782559 27813.74522216
0.09600000 1063243.68539464 18564.23561965
0.09700000 1053422.44664794 23227.96604060
0.09800000 1043597.15482777 23246.12771677
0.09900000 1033770.96770590 24810.50439159
0.10000000 1023943.66413475 24820.39558586
0.10100000 1014118.91918773 17067.62221265
0.10200000 1004298.92436772 15516.41911132
0.10300000 994484.96701601 18616.75945829
0.10400000 984680.20546705 17059.58536229
0.10500000 974887.26062165 17050.77899050
0.10600001 965103.44979418 15489.91109805
0.10700001 955336.27991644 26309.96238698
0.10800001 945584.01471665 18552.35924185
0.10900001 935850.75836037 20073.99971163
0.11000001 926136.48336793 20046.22512607
0.11100001 916444.05978048 16935.88702197
0.11200001 906774.71817623 18443.79863599
0.11300001 897130.26229803 18409.11384907
0.11400001 887513.08260297 18371.52167489
0.11500001 877925.01405072 21386.25434931
0.11600001 868366.61651228 27431.70270742
0.11700001 858840.91925413 24322.37597874
0.11800001 849347.26097660 22741.27398372
0.11900001 839888.25325261 16629.78819769
0.12000001 830464.99389463 24116.70455872
0.12100001 821082.35345814 16528.38855373
0.12200001 811738.10945136 17971.88258993
0.12300001 802435.35909595 14925.29838238
0.12400001 793174.14595545 14872.01593740
0.12500001 783956.00861641 17780.12311323
0.12600001 774785.06189076 16235.62173700
0.12700001 765659.74390440 17640.80133090
0.12800001 756581.76852777 16103.84370208
0.12900001 747553.52857696 17492.75339317
0.13000001 738575.69081314 17415.61561026
0.13100001 729648.43909170 15891.74375252
0.13200001 720774.30780864 14379.44811863
0.13300001 711954.42126115 17172.34145037
0.13400001 703188.46925164 14239.56717368
0.13500001 694479.35053167 15584.11736069
0.13600001 685827.14427864 16912.49817535
0.13700001 677232.91840389 15420.59427919
0.13800001 668696.37643241 20913.48015911
0.13900001 660221.36805014 15251.11432117
0.14000001 651805.92893577 16542.83525656
0.14100001 643453.53263182 17817.22915889
0.14200001 635162.86563672 19073.94175470
0.14300001 626936.66566675 17604.38240228
0.14400001 618771.66786316 16149.94129302
0.14500001 610674.38603566 18723.27755907
0.14600001 602641.74043787 19932.37650528
0.14700001 594676.42036926 14521.99887051
0.14800001 586775.81856714 19671.66024555
0.14900001 578943.66134574 20841.97279179
0.15000001 571179.44656700 15524.65809019
0.15100001 563483.81263625 14132.17468774
0.15200001 555858.38142323 16584.03559231
0.15300001 548302.47841940 16465.52420393
0.15400001 540814.80331229 13831.33924743
0.15500001 533399.33718611 16226.00860296
0.15600001 526052.86849956 13627.40020163
0.15700001 518780.68726496 18442.65430270
0.15800001 511576.89687781 17081.55339298
0.15900001 504447.06301966 13317.40309231
0.16000001 497387.15630778 12011.90039182
0.16100001 490402.17172833 13108.45066907
0.16200001 483488.96924264 13003.43644162
0.16300001 476648.25484382 11725.54762270
0.16400001 469881.01940568 13955.46693518
0.16500001 463185.94112779 18453.32876574
0.16600001 456564.77460557 16011.72740138
0.16700001 450015.97356124 13608.48368301
0.16800001 443540.72700712 15741.26114473
0.16900001 437139.96338081 13376.48351106
0.17000001 430810.91452688 11050.30047941
0.17100001 424556.04236805 17525.67425654
0.17200001 418374.05340735 14113.84935819
0.17300001 412265.08364995 11836.13111055
0.17400001 406230.19839054 15995.31481702
0.17500001 400266.92429102 11623.75203037
0.17600001 394375.59297936 11517.73973693
0.17700001 388559.46734268 12449.44592165
0.17800001 382813.81497316 12334.26170101
0.17900001 377140.19510135 11201.06432358
0.18000001 371539.88415158 11096.03916431
0.18100001 366011.50737259 10991.32608559
0.18200001 360552.63443727 15835.47245252
0.18300001 355165.45796581 14703.85065438
0.18400001 349849.18621420 10679.14691368
0.18500001 344603.62587417 11537.32993931
0.18600001 339428.42197953 14281.45152949
0.18700001 334322.04853647 13199.03509981
0.18800001 329283.85535519 13069.27683652
0.18900001 324318.03413480 9243.06440955
0.19000001 319416.48749015 9151.28279898
0.19100001 314585.77175706 9966.07772016
0.19200001 309821.08241507 8969.32075973
0.19300001 305125.40194233 15094.55434734
0.19400001 300494.38156188 10547.35329123
0.19500001 295930.46872141 9570.39181070
0.19600001 291430.90182890 9472.96191161
0.19700001 286998.15426099 14490.53749343
0.19800001 282628.88452579 10123.76712215
0.19900001 278324.01310513 10019.66494531
0.20000001 274081.30788320 9089.90700555
0.20100001 269902.81602217 15538.30585277
0.20200001 265785.51008642 9711.80299757
0.20300001 261730.44986686 12814.32343115
0.20400001 257736.66301627 8717.94303859
0.20500001 253802.72424155 8626.75500473
0.20600001 249928.33379727 8536.30264434
0.20700001 246113.53742569 9214.49127678
0.20800001 242356.77472421 9117.46229611
0.20900001 238660.36649862 9021.36228010
0.21000001 235018.23754223 7438.32756984
0.21100001 231434.22339243 9567.49124733
0.21200001 227905.32155264 10194.20551498
0.21300001 224431.50012812 10085.95209258
0.21400001 221012.67617768 10691.48871555
0.21500001 217648.91866608 11988.10300690
0.21600001 214336.85727050 9069.66454420
0.21700001 211078.02602393 9663.15248825
0.21800001 207871.30110083 8877.14433323
0.21900001 204715.02386832 8106.71532848
0.22000001 201608.70443723 8019.99464172
0.22100001 198554.05675227 10578.96064397
0.22200001 195547.71995121 7195.17869582
0.22300001 192589.58765352 7118.11149626
0.22400001 189678.80078853 7681.99179519
0.22500001 186817.10600373 6966.41021230
0.22600001 184000.00133019 8771.28047819
0.22700001 181229.55136623 8677.27132976
0.22800001 178503.71903385 6744.76334265
0.22900001 175821.52282369 6672.42710670
0.23000001 173183.93266415 6000.82355060
0.23100001 170590.26322106 6530.19558493
0.23200001 168037.12920581 6460.18773784
0.23300001 165526.92655920 6971.99447641
0.23400001 163056.78175502 5747.75182871
0.23500001 160626.69550151 6823.42234763
0.23600001 158236.80830210 6187.85068132
0.23700001 155886.00542733 6121.64372267
0.23800001 153573.24900233 6606.72148457
0.23900001 151298.29967054 5991.41295034
0.24000001 149059.78005889 5927.36243441
0.24100001 146859.04165413 5864.08181063
0.24200001 144693.95520825 6856.32339186
0.24300001 142563.33951867 5739.60032052
0.24400001 140467.45651941 7227.05097979
0.24500001 138405.03305733 5617.86055755
0.24600001 136376.18062692 5558.01150437
0.24700001 134380.68132680 5498.85774002
0.24800001 132416.90864139 6429.50330324
0.24900001 130483.62531467 6361.07703502
0.25000001 128582.57430538 4841.13415162
0.25100001 126711.14349895 7184.52217628
0.25200001 124871.23064117 5212.74976973
0.25300001 123058.88379282 5157.39806376
0.25400001 121276.58359561 5102.71249620
0.25500001 119520.76934941 6425.43686422
0.25600001 117794.04591512 4995.05675336
0.25700001 116093.42525553 6739.22365494
0.25800001 114419.60801989 6223.28277465
0.25900001 112772.79922265 6597.20906667
0.26000001 111150.63354379 4351.54750913
0.26100001 109553.25713202 4305.44320901
0.26200001 107981.93159142 4685.87614313
0.26300001 106433.08873930 5057.70061621
0.26400001 104909.01809610 4170.13366664
0.26500001 103408.08774768 4951.17947564
0.26600001 101929.65024003 6123.42402793
0.26700001 100473.68989542 4442.94677742
0.26800001 99040.02190379  4395.89158022
0.26900001 97627.06785119  5140.06536560
0.27000001 96235.93414013  5476.78727109
0.27100001 94865.01873474  5031.64083180
0.27200001 93515.15333037  4212.39028111
0.27300001 92184.91447899  4167.68018083
0.27400001 90872.99366675  4123.36228277
0.27500001 89582.10253593  4079.56914255
0.27600001 88307.86311992  4036.11107491
0.27700001 87054.12139204  4356.18844062
0.27800001 85817.31453806  3950.60026173
0.27900001 84598.74832365  3908.46235753
0.28000001 83397.18286181  3866.71056639
0.28100001 82213.12158273  3477.61520754
0.28200001 81046.23034367  4816.57769729
0.28300001 79895.65115045  3743.91039011
0.28400001 78760.69468148  3703.72184270
0.28500001 77642.28348458  4330.11035489
0.28600001 76539.37446672  3954.02427210
0.28700001 75452.54507900  3259.55010170
0.28800001 74379.30944978  3869.21186072
0.28900001 73322.77669063  4146.40321812
0.29000001 72280.00333880  3786.02675409
0.29100001 71252.30392114  4057.10637731
0.29200001 70238.35149496  3395.67326376
0.29300001 69238.81977352  3358.77530620
0.29400001 68252.18215395  3926.20696426
0.29500001 67280.54261916  3285.98185707
0.29600001 66320.88853715  4431.89358629
0.29700001 65375.03359941  3798.94338230
0.29800001 64442.30873429  4624.38029368
0.29900001 63522.79452033  3716.08365536
0.30000001 62614.87892005  3392.47430049
0.30100001 61720.58961792  3075.53712626
0.30200001 60837.63205363  3871.09871083
0.30300001 59967.62987737  3007.97645705
0.30400001 59109.36267035  3515.52951125
0.30500001 58263.52587024  4011.44394608
0.30600001 57428.18485349  3437.93844902
0.30700001 56605.34451785  3138.20044864
0.30800001 55793.74728055  3103.24837066
0.30900001 54993.77444540  2812.93169606
0.31000001 54204.83601855  3034.38686398
0.31100001 53426.74090521  2750.40875202
0.31200001 52660.52048419  2966.89386455
0.31300001 51904.45443565  2933.63990360
0.31400001 51160.52547734  2900.80193191
0.31500001 50425.94840149  3107.24708762
0.31600002 49703.25274230  3072.40671374
0.31700002 48990.37130218  2804.20898611
0.31800002 48287.74156407  2310.56854324
0.31900002 47596.32967666  2741.54871919
0.32000002 46915.22686236  3162.55559254
0.32100002 46243.98457814  3350.37684133
0.32200002 45583.93722166  2429.39604926
0.32300002 44932.37663179  2183.71360771
0.32400002 44292.05622037  2591.08541158
0.32500002 43661.34303558  2775.55170820
0.32600002 43040.89245272  2111.15587477
0.32700002 42430.40922943  2296.33385623
0.32800002 41830.69192412  2683.64816747
0.32900002 41238.68046708  2449.57773574
0.33000002 40657.93443108  2018.66654009
0.33100002 40085.78568523  2395.52666599
0.33200002 39524.85708156  2566.54671613
0.33300002 38972.71011257  2343.03944292
0.33400002 38430.79860350  2703.60680979
0.33500002 37898.00144236  2483.07717209
0.33600002 37374.26772253  2644.97705198
0.33700002 36860.05401660  1868.80482714
0.33800002 36356.17280541  2957.93835953
0.33900002 35860.75909259  2194.67856040
0.34000002 35374.81910031  1990.36429094
0.34100002 34898.27498614  1969.30975073
0.34200002 34431.79456735  1771.51591439
0.34300002 33973.73396451  1928.34923115
0.34400002 33525.63929232  2428.93268176
0.34500002 33086.19693548  2232.32581296
0.34600002 32656.54847581  2209.70545727
0.34700002 32234.88587074  2019.19334657
0.34800002 31823.17477028  1999.13193375
0.34900002 31419.93144477  2144.41042267
0.35000002 31026.04720848  2613.63434063
0.35100002 30641.91771837  1617.89333216
0.35200002 30264.98069617  2243.54312527
0.35300002 29898.29246912  1746.35934583
0.35400002 29539.67540408  2359.48168465
0.35500002 29190.41223089  1870.52170435
0.35600002 28849.34621155  1699.37081908
0.35700002 28516.95675736  1684.49671544
0.35800002 28193.49619242  2277.32976281
0.35900002 27879.20005672  1656.02456181
0.36000002 27573.07335751  1941.00659094
0.36100002 27274.87692494  2517.74400820
0.36200002 26986.64034015  1910.24942696
0.36300002 26705.46380480  1749.74207137
0.36400002 26433.21609567  1736.66237975
0.36500002 26168.40266759  1867.63898685
0.36600002 25912.83878253  1711.80221106
0.36700002 25664.79323072  1983.37531482
0.36800002 25425.84472839  1970.24880133
0.36900002 25194.67897857  2097.45712432
0.37000002 24970.88203253  1667.55558112
0.37100002 24754.98846093  1381.32842155
0.37200002 24547.68430041  1373.44300167
0.37300002 24347.90236411  1775.69260353
0.37400002 24155.73754557  1358.76030130
0.37500002 23971.39785383  1622.38428360
0.37600002 23794.78517676  1749.27371514
0.37700002 23625.48229025  1607.47789118
0.37800002 23463.65985882  2401.03642710
0.37900002 23309.97011956  1594.40203171
0.38000002 23162.92583582  1985.64191134
0.38100002 23022.33875085  1846.85210208
0.38200002 22890.13903540  1578.04625986
0.38300002 22764.16115068  1573.45889328
0.38400002 22645.46797506  1569.33100502
0.38500002 22533.20264784  1304.67249512
0.38600002 22428.63906887  1822.77558348
0.38700002 22329.84453640  1689.47611766
0.38800002 22237.76937560  1557.08868545
0.38900002 22152.23527653  1555.08699009
0.39000002 22073.56469902  1941.92194640
0.39100002 22000.46620087  1552.35296868
0.39200002 21934.21714842  1422.32437837
0.39300002 21873.39808982  1421.98967719
0.39400002 21819.90164622  1422.11215717
0.39500002 21771.01775161  1939.79777357
0.39600002 21728.14502793  1423.30220749
0.39700002 21690.37757127  1553.89872283
0.39800002 21659.37870835  1555.57665253
0.39900002 21632.84185940  1427.76763037
0.40000002 21611.95148587  1559.95073216
0.40100002 21596.09763527  1692.91817384
0.40200002 21585.76845989  1304.85976522
0.40300002 21580.15579968  1307.75750342
0.40400002 21579.46034498  1310.95227807
0.40500002 21583.07303990  1708.73197353
0.40600002 21592.41112467  1581.86011394
0.40700002 21605.55692257  2115.61623410
0.40800002 21623.04723343  1459.23141169
0.40900002 21644.51350067  1597.36517204
0.41000002 21670.94721645  1736.81814696
0.41100002 21701.03819315  1475.23664627
0.41200002 21734.24248717  1615.72366305
0.41300002 21772.70477856  1487.29353390
0.41400002 21813.92735607  1901.08385916
0.41500002 21858.74762093  2182.37746588
0.41600002 21906.18784370  1370.23211455
0.41700002 21958.31005325  1652.14332669
0.41800002 22013.91997887  1660.28992348
0.41900002 22070.76291688  1529.50394261
0.42000002 22131.24446546  1956.62341591
0.42100002 22195.19500017  1826.44268311
0.42200002 22261.48695088  1694.98969676
0.42300002 22329.93586259  1562.20238697
0.42400002 22400.86623139  1999.27740589
0.42500002 22474.56904371  1723.35003593
0.42600002 22549.21641382  1588.70511772
0.42700002 22627.22037434  1743.20114024
0.42800002 22706.36286143  1461.15451937
0.42900002 22788.21192342  2057.77563420
0.43000002 22871.55771915  1922.24015960
0.43100002 22955.01683983  2677.47329108
0.43200002 23041.31723337  1795.84035027
0.43300002 23128.16630201  2409.02991618
0.43400002 23216.80637697  1514.89668789
0.43500002 23305.87231738  1676.62453396
0.43600002 23396.78033852  1993.75673103
0.43700002 23487.72043935  1697.45763659
0.43800002 23579.01376798  2018.48156926
0.43900002 23672.01703765  1874.82383823
0.44000002 23764.80782696  1886.45053470
0.44100002 23858.45065356  2372.72302994
0.44200002 23952.14283408  2228.26795345
0.44300002 24046.18305016  2562.36138726
0.44400002 24140.07103991  1772.48480010
0.44500002 24233.46313115  1783.34063634
0.44600002 24326.73554803  1794.21846538
0.44700002 24420.73099294  1641.07320050
0.44800002 24513.31393134  1981.16612582
0.44900002 24606.08399511  3155.73042193
0.45000002 24698.52784350  1837.94103658
0.45100002 24789.42845281  2184.94032738
0.45200002 24880.13698588  1690.60538831
0.45300002 24969.64809702  3060.77960879
0.45400002 25058.37381564  2394.32773156
0.45500002 25146.53507736  2064.02769697
0.45600002 25233.07615836  1902.70019790
0.45700002 25318.74105995  2609.09638988
0.45800002 25402.77651717  2273.67561993
0.45900002 25485.45553210  2110.19581807
0.46000002 25567.23352992  1944.77171063
0.46100002 25646.61148506  2132.77231218
0.46200002 25725.14976517  2679.91760380
0.46300002 25801.79577400  1795.80507098
0.46400002 25876.22591310  2707.30026447
0.46500002 25950.00429148  2358.07700173
0.46600002 26020.77930988  2551.85794787
0.46700002 26089.75861895  2014.65125604
0.46800002 26157.45935477  3128.30149980
0.46900002 26222.32004641  2218.40838107
0.47000002 26285.27679301  2971.28782951
0.47100002 26346.33293403  2238.38455217
0.47200002 26405.20730160  2060.79450153
0.47300002 26461.67779704  2633.99553276
0.47400002 26515.25838105  2455.97592395
0.47500002 26567.03715108  2845.32981374
0.47600002 26616.95661980  2666.22067098
0.47700002 26663.32659773  2294.11272920
