# SAXS profile: number of points = 501, q_min = 0, q_max = 0.5, delta_q = 0.001
#    q    intensity    error
0.00000000 1682732.95097188 277.65093691
0.00100000 1682650.87382833 706.71338379
0.00200000 1682404.58313272 832.79029502
0.00300000 1681994.29614288 1009.19661364
0.00400000 1681419.87419930 1261.06495357
0.00500000 1680681.86881231 1966.39786434
0.00600000 1679780.15819802 2645.65385687
0.00700000 1678715.26600702 2618.79592381
0.00800000 1677487.09022793 3170.45073439
0.00900000 1676096.80361912 3016.97437548
0.01000000 1674543.85105621 3591.89671561
0.01100000 1672829.42288580 5118.85825690
0.01200000 1670953.45072770 4235.86718331
0.01300000 1668917.19246623 4556.14413638
0.01400000 1666720.63667984 4125.13375865
0.01500000 1664365.14083101 6391.16242538
0.01600000 1661850.13182752 6356.57703840
0.01700000 1659177.95601718 6719.67102331
0.01800000 1656348.43039111 5664.71188684
0.01900000 1653362.27170602 5952.10444672
0.02000000 1650220.75379426 5198.19560960
0.02100000 1646925.76801492 6521.82633703
0.02200000 1643475.86474263 7370.98958825
0.02300000 1639874.42127216 10036.03191501
0.02400000 1636120.77394911 7362.54381848
0.02500000 1632217.68117414 7002.21417203
0.02600000 1628164.94107440 7253.47514425
0.02700000 1623964.73886937 9548.91310190
0.02800000 1619617.04977103 11977.06863232
0.02900000 1615124.28618882 8721.67154587
0.03000000 1610487.85987035 10484.27644967
0.03100000 1605708.06108599 12331.83847657
0.03200000 1600786.40717755 7923.89308049
0.03300000 1595726.72824541 8952.02735815
0.03400000 1590526.90287671 10020.31995046
0.03500000 1585190.41399217 12840.04294627
0.03600000 1579718.64376381 10520.92665368
0.03700000 1574113.06519400 12561.42284118
0.03800000 1568375.46841124 11927.49598927
0.03900000 1562507.77014556 14062.57058255
0.04000000 1556509.89361393 10529.78991824
0.04100000 1550385.81846417 11720.91733105
0.04200000 1544136.45115702 12947.58474363
0.04300000 1537762.56047162 16238.77339235
0.04400000 1531267.73384757 15504.08652525
0.04500000 1524653.42877171 13676.14189154
0.04600000 1517919.47737630 14981.86593816
0.04700000 1511070.40484987 10879.70742091
0.04800000 1504106.38291290 12160.70067167
0.04900000 1497031.18856535 12350.50788055
0.05000000 1489844.59432205 13676.77401275
0.05100000 1482551.15203695 15033.06938196
0.05200000 1475149.01100592 15245.66573921
0.05300000 1467644.30144065 13076.71133544
0.05400000 1460037.03985884 18067.95921083
0.05500000 1452329.63026487 13419.52640966
0.05600000 1444523.30057167 16055.87723509
0.05700000 1436623.40739887 17498.07391890
0.05800000 1428628.13781381 17700.70345400
0.05900000 1420540.66697228 14063.35325987
0.06000000 1412364.93917387 14215.45377691
0.06100000 1404101.97978098 14363.96392441
0.06200000 1395753.92477382 17146.83776735
0.06300000 1387324.17864229 19977.46910650
0.06400000 1378811.33992885 14787.75231231
0.06500000 1370221.75447153 14921.71560420
0.06600000 1361556.09398442 15052.00332326
0.06700000 1352816.26788940 22077.96252518
0.06800000 1344005.03820297 15301.49807619
0.06900000 1335125.46071924 21028.22699085
0.07000000 1326177.85746194 21185.69226505
0.07100000 1317165.69266529 21338.08522061
0.07200000 1308091.10257207 18620.67771743
0.07300000 1298956.87778547 15860.26422090
0.07400000 1289765.38816569 14509.86129686
0.07500000 1280518.22373605 18977.28096528
0.07600000 1271216.59139352 23492.08371028
0.07700000 1261865.82390509 14763.83083194
0.07800000 1252465.89579610 17810.06587345
0.07900000 1243018.97978746 17899.47414849
0.08000000 1233529.44099519 19483.59843452
0.08100000 1223998.17043932 19571.73166360
0.08200000 1214426.83520201 16631.57628853
0.08300000 1204818.54084935 22771.07149074
0.08400000 1195175.64359716 18286.18820537
0.08500000 1185499.98720644 16822.24560818
0.08600000 1175794.14681210 18412.93720359
0.08700000 1166061.26291890 18470.41127196
0.08800000 1156301.02638204 23154.92914074
0.08900000 1146518.68891280 17025.80333005
0.09000000 1136714.56659373 20171.00093175
0.09100000 1126890.96977907 20216.42494763
0.09200000 1117050.08523194 20257.70424752
0.09300000 1107196.73070356 21856.06449115
0.09400000 1097327.71519243 18764.30481167
0.09500000 1087448.95302914 17225.19222561
0.09600000 1077561.61895260 21949.93120988
0.09700000 1067670.07601559 18833.70102634
0.09800000 1057773.99184621 17278.73896921
0.09900000 1047876.54153134 18861.77863449
0.10000000 1037977.66526507 18870.43484194
0.10100000 1028080.98762511 17302.60383550
0.10200000 1018188.58478504 17304.11581234
0.10300000 1008301.93582027 17302.46203260
0.10400000 998424.28706687 23587.77489164
0.10500000 988557.99767910 20433.49477341
0.10600001 978700.35356826 20420.58383806
0.10700001 968859.28474493 20404.17749690
0.10800001 959032.68328084 18816.22213149
0.10900001 949224.70377636 18794.65001935
0.11000001 939435.62599351 15641.60390904
0.11100001 929668.02887944 17180.26598243
0.11200001 919923.16134043 18711.23798254
0.11300001 910203.11599162 15564.47401624
0.11400001 900509.85602705 23300.69362180
0.11500001 890845.65848462 21701.00126254
0.11600001 881210.65874473 23197.87168388
0.11700001 871608.36449554 16970.21565594
0.11800001 862037.62735906 20003.58408500
0.11900001 852501.52424483 15345.02815918
0.12000001 843000.81784031 18360.55867743
0.12100001 833540.67447560 16779.17456763
0.12200001 824118.51303005 19766.48346625
0.12300001 814738.16938846 16669.54373106
0.12400001 805398.66011372 16611.34814753
0.12500001 796102.39299961 22569.50390502
0.12600001 786852.98829116 17987.46015997
0.12700001 777649.15747790 17917.03743266
0.12800001 768492.59349376 14870.33238493
0.12900001 759385.55724044 14808.01906412
0.13000001 750328.62371266 20641.54141127
0.13100001 741322.35492535 20549.45664718
0.13200001 732369.25243611 14610.76727486
0.13300001 723470.19889033 24720.97786150
0.13400001 714624.84400005 15918.26915058
0.13500001 705836.43648381 18718.78317811
0.13600001 697104.83030773 18623.15641977
0.13700001 688431.19456104 17100.63167925
0.13800001 679814.88900007 19843.79754566
0.13900001 671260.44508639 15506.11701274
0.14000001 662765.57067106 16820.99097692
0.14100001 654333.51425655 23693.41766868
0.14200001 645963.13279231 18012.68280749
0.14300001 637657.48006525 15150.74244097
0.14400001 629412.72399948 17796.64561055
0.14500001 621236.00551585 17686.58991135
0.14600001 613123.70360414 22982.94311381
0.14700001 605078.87574366 17462.57717779
0.14800001 597098.85118939 18683.22393517
0.14900001 589187.18854418 19885.06855156
0.15000001 581343.44442075 17117.65852863
0.15100001 573568.65716714 13077.36600047
0.15200001 565864.08694491 15583.89768982
0.15300001 558228.93762085 15474.10688106
0.15400001 550662.04654599 14083.18250501
0.15500001 543167.58793990 15252.14658915
0.15600001 535742.28429029 13878.40452953
0.15700001 528391.38395763 15027.45166900
0.15800001 521108.78024232 13671.28949492
0.15900001 513900.55044295 14800.33655134
0.16000001 506762.12335600 19581.28937076
0.16100001 499698.72199332 12142.67951762
0.16200001 492707.44338436 20479.38585102
0.16300001 485788.69514142 15535.52320402
0.16400001 478943.68347268 11853.85672556
0.16500001 472171.01027901 15284.17632432
0.16600001 465472.52245819 15158.11340951
0.16700001 458846.25995428 11562.92629679
0.16800001 452293.83348283 14905.34398620
0.16900001 445816.27917323 12505.14722128
0.17000001 439410.57124252 15779.23435841
0.17100001 433079.28947481 13408.13543529
0.17200001 426820.83245754 14398.80146291
0.17300001 420636.02033471 12076.46071411
0.17400001 414525.16755637 11969.41477846
0.17500001 408486.38210013 15097.65739545
0.17600001 402519.73538482 11755.58942712
0.17700001 396628.52173404 12707.97843656
0.17800001 390808.06682964 14690.47592599
0.17900001 385059.85605379 11436.27826497
0.18000001 379385.31253954 14420.43641078
0.18100001 373783.00288825 15306.41469130
0.18200001 368250.12363039 13141.00628250
0.18300001 362789.69351239 10012.99601395
0.18400001 357399.94528528 10909.63384521
0.18500001 352081.70951760 12770.00420749
0.18600001 346833.92300956 12647.29960005
0.18700001 341655.20038922 15415.48336986
0.18800001 336544.91669558 12403.36349083
0.18900001 331507.54530573 11337.55858513
0.19000001 326534.73825584 9355.22069305
0.19100001 321632.99773955 12968.24308161
0.19200001 316797.53841638 11005.54700461
0.19300001 312031.55188098 11804.15416543
0.19400001 307330.57055938 11686.24549774
0.19500001 302697.05789571 10679.15270721
0.19600001 298128.08320910 10571.62233017
0.19700001 293626.52208745 13953.13298899
0.19800001 289188.71061486 8632.28341980
0.19900001 284815.58379969 10253.36150136
0.20000001 280505.05004620 10148.67319031
0.20100001 276259.20481765 8370.65430159
0.20200001 272074.72088894 11598.54589968
0.20300001 267953.02541966 13118.98074461
0.20400001 263892.62446937 11360.57802037
0.20500001 259892.84118701 10439.89592394
0.20600001 255952.97586963 8742.07430405
0.20700001 252073.02628041 9437.61455005
0.20800001 248251.42805601 9339.21916493
0.20900001 244490.68769766 7701.45702653
0.21000001 240784.62022064 9145.00030829
0.21100001 237137.14477721 9049.15387248
0.21200001 233544.97401843 11192.64340896
0.21300001 230008.58265066 8121.60343735
0.21400001 226527.37737851 8766.60991900
0.21500001 223101.71026113 9397.04448047
0.21600001 219728.31285939 10013.01969040
0.21700001 216408.51312476 8491.87045651
0.21800001 213141.09052137 7701.85367014
0.21900001 209924.54733071 6927.51038946
0.22000001 206758.54016505 7539.45052360
0.22100001 203644.53281275 8137.63591597
0.22200001 200579.45967556 10735.01318943
0.22300001 197562.90394771 9293.35944114
0.22400001 194594.05349666 7224.30457767
0.22500001 191674.87479443 8447.11213163
0.22600001 188800.67745988 10285.86139441
0.22700001 185973.66461481 8268.38951978
0.22800001 183191.45572098 8180.41484207
0.22900001 180453.66018877 9338.47735639
0.23000001 177760.66246455 9855.05159310
0.23100001 175112.26411518 6093.90707941
0.23200001 172504.79008126 6631.94696832
0.23300001 169940.71833265 8350.88729382
0.23400001 167416.91762853 8852.16993827
0.23500001 164933.92035390 6422.52716234
0.23600001 162491.53504695 6354.23177855
0.23700001 160088.52009927 5715.16043786
0.23800001 157724.13262801 5654.41042216
0.23900001 155397.98204907 6153.76038021
0.24000001 153108.79834913 6088.37165434
0.24100001 150857.75922645 6023.75061084
0.24200001 148642.85480865 7585.24523968
0.24300001 146463.05382530 5896.60282593
0.24400001 144318.14024862 7425.16866703
0.24500001 142207.40818325 5247.45361019
0.24600001 140130.52541623 5711.01983350
0.24700001 138087.62671871 5136.85995694
0.24800001 136076.81370882 7115.45692544
0.24900001 134096.88792612 8045.81365619
0.25000001 132149.69339927 5472.97981105
0.25100001 130232.59910474 4922.79247905
0.25200001 128347.55173798 7306.18472834
0.25300001 126490.51003305 4819.28866026
0.25400001 124663.94066023 4768.39595585
0.25500001 122864.25770007 6605.18280646
0.25600001 121094.20012626 6068.63612645
0.25700001 119350.78950866 6928.31365878
0.25800001 117634.42141842 5027.10723717
0.25900001 115945.67758413 5878.44613165
0.26000001 114281.88811998 7606.03142371
0.26100001 112643.64902058 5312.27473917
0.26200001 111031.49729142 5256.23133048
0.26300001 109442.61919971 4767.32071792
0.26400001 107878.70304478 6432.26797341
0.26500001 106338.51310107 5091.48824820
0.26600001 104821.22337784 6716.94431189
0.26700001 103326.91753147 4569.11650945
0.26800001 101855.33167681 6164.79424146
0.26900001 100404.84593517 7319.51361504
0.27000001 98976.57510999  4425.73776548
0.27100001 97569.06732446  4378.89994874
0.27200001 96182.94533790  5120.29933737
0.27300001 94817.07243039  4286.68004744
0.27400001 93469.67952245  4626.74935532
0.27500001 92143.93640520  5340.66280679
0.27600001 90835.33617228  4529.05007589
0.27700001 89547.52531271  4854.37157694
0.27800001 88277.05568667  5172.15293747
0.27900001 87025.25738543  5117.08537644
0.28000001 85790.85912564  3616.08488329
0.28100001 84574.47374143  6081.75069459
0.28200001 83375.61464052  3893.22450990
0.28300001 82193.45449681  3851.58546002
0.28400001 81027.33252457  5195.87794406
0.28500001 79878.28785948  5825.52380932
0.28600001 78745.04901468  3389.97452054
0.28700001 77628.25892669  3688.89503880
0.28800001 76525.45204732  4644.32990458
0.28900001 75439.83433583  4266.12283362
0.29000001 74368.23575497  3895.40837323
0.29100001 73312.19696954  5137.71900682
0.29200001 72270.24855524  4446.78860409
0.29300001 71243.14943055  3456.00534247
0.29400001 70229.34068000  4350.70786107
0.29500001 69230.73244043  3073.84466586
0.29600001 68244.67894566  3040.30059095
0.29700001 67272.67839269  3307.79775315
0.29800001 66314.30718776  3569.03618180
0.29900001 65369.39380129  4118.27200444
0.30000001 64436.43109482  3491.16600199
0.30100001 63517.57608544  4028.28486604
0.30200001 62610.26099668  3414.76379642
0.30300001 61716.38191294  3095.69386331
0.30400001 60834.48329371  2783.17774245
0.30500001 59965.40794148  3302.89482578
0.30600001 59107.17473086  4627.20539287
0.30700001 58261.75392533  3230.03179054
0.30800001 57427.84007004  3194.13661592
0.30900001 56606.05314491  2632.18159586
0.31000001 55795.68026945  2863.15546858
0.31100001 54996.24749986  2573.82450485
0.31200001 54209.09363873  4072.18730694
0.31300001 53432.32857349  3774.99419245
0.31400001 52668.08740105  3732.85087129
0.31500001 51913.42527285  3198.90541677
0.31600002 51171.09268896  2676.50412982
0.31700002 50438.87234521  3127.71462222
0.31800002 49717.14098797  3330.55143248
0.31900002 49006.89219053  3293.26331114
0.32000002 48307.36545391  2325.99975674
0.32100002 47617.88555381  2759.93277738
0.32200002 46939.92511130  2501.66342726
0.32300002 46270.81505214  2473.63788982
0.32400002 45613.16135844  2890.73423797
0.32500002 44965.27581659  3737.96355563
0.32600002 44327.92879035  3261.42751519
0.32700002 43700.98405972  2365.09736931
0.32800002 43084.91159986  2551.48858576
0.32900002 42476.90106138  2523.12804252
0.33000002 41880.31235572  2287.29336762
0.33100002 41292.58917841  2262.00814231
0.33200002 40716.46072294  2237.16604036
0.33300002 40149.31442814  2816.07304735
0.33400002 39592.49283278  2984.28428859
0.33500002 39045.13886565  1967.87509202
0.33600002 38507.11892635  2335.84194469
0.33700002 37978.75129784  2695.73189478
0.33800002 37460.98692798  2095.38040305
0.33900002 36951.89122139  2261.45584985
0.34000002 36452.54543519  2983.27645970
0.34100002 35962.83924968  2582.85123723
0.34200002 35483.26721449  2008.17560311
0.34300002 35012.36463607  2709.95715117
0.34400002 34551.66438455  2860.87794653
0.34500002 34099.88759122  2123.74109976
0.34600002 33658.09414821  2452.66543674
0.34700002 33224.29910357  2428.03189348
0.34800002 32800.77606230  1717.12070819
0.34900002 32385.94698852  1870.28852717
0.35000002 31980.65361437  2020.53779105
0.35100002 31585.15634271  2001.23560066
0.35200002 31197.11670730  1982.26488947
0.35300002 30819.52925638  1963.82049723
0.35400002 30450.08617887  1783.61388241
0.35500002 30090.15285824  1606.81423874
0.35600002 29738.72976364  1592.50905427
0.35700002 29396.04350392  2209.99465530
0.35800002 29062.52681725  2034.52228621
0.35900002 28738.21668376  1862.23652931
0.36000002 28422.31206173  1692.97509815
0.36100002 28114.43851446  2137.25971710
0.36200002 27816.71061085  2120.46795030
0.36300002 27526.09697739  1653.21746277
0.36400002 27244.57642843  1640.80469312
0.36500002 26970.74219601  2221.04072505
0.36600002 26706.16292211  1764.20920620
0.36700002 26449.24577969  1751.99812344
0.36800002 26201.58817616  1450.25797425
0.36900002 25961.78788589  1873.14308470
0.37000002 25729.44783573  1575.02822387
0.37100002 25505.19537728  1565.50896642
0.37200002 25289.70295229  2122.43842081
0.37300002 25081.71732447  1547.79284941
0.37400002 24881.45471867  1819.45646249
0.37500002 24689.19515867  2088.70600937
0.37600002 24504.70236964  1524.31508311
0.37700002 24327.69298130  1793.19433460
0.37800002 24158.12322475  1648.06724447
0.37900002 23996.93381928  1504.60782175
0.38000002 23842.36214275  1498.85016711
0.38100002 23694.44911691  1900.76879820
0.38200002 23554.86717246  1759.19533811
0.38300002 23421.73889445  1888.72911392
0.38400002 23295.92125446  1479.87346780
0.38500002 23176.55254908  1878.69143863
0.38600002 23065.04516603  1338.92593532
0.38700002 22959.36306018  1469.85849275
0.38800002 22860.33980179  1867.46124688
0.38900002 22768.04542097  1465.12379225
0.39000002 22682.71927155  1729.44401279
0.39100002 22602.91757738  1594.86193982
0.39200002 22530.19354681  1460.97046976
0.39300002 22462.83994405  1593.06468431
0.39400002 22402.86078723  1858.31739034
0.39500002 22347.43190221  1327.43751788
0.39600002 22298.29512585  1460.64989142
0.39700002 22254.21875944  1727.14999975
0.39800002 22216.96984168  1861.55999123
0.39900002 22184.24473739  1730.37117150
0.40000002 22157.18083335  1732.58083735
0.40100002 22135.13467355  1468.22355246
0.40200002 22118.75384312  1337.07873317
0.40300002 22107.12299907  1473.66088894
0.40400002 22100.38090445  1342.59820356
0.40500002 22098.15436001  1345.77766429
0.40600002 22101.47147634  2158.87183610
0.40700002 22108.73326667  1623.66544804
0.40800002 22120.30162781  2035.62085375
0.40900002 22135.98698320  1497.49959037
0.41000002 22156.65388867  1502.55355465
0.41100002 22180.98453489  1370.78490921
0.41200002 22208.46551212  1375.81450367
0.41300002 22241.22591631  1657.41623382
0.41400002 22276.72056611  1802.74369723
0.41500002 22315.81736651  1949.50989751
0.41600002 22357.55263332  2237.54397357
0.41700002 22404.07959286  1685.68302844
0.41800002 22454.09088946  1552.36364720
0.41900002 22505.29036006  1417.83335987
0.42000002 22560.20532015  1567.14473682
0.42100002 22618.69179356  1861.29223589
0.42200002 22679.32827037  2158.50517041
0.42300002 22742.31238471  1591.05224983
0.42400002 22807.70511600  1890.18865106
0.42500002 22875.88800458  1754.12317531
0.42600002 22945.08407764  1763.55924578
0.42700002 23017.49845487  1477.72347083
0.42800002 23091.16939321  2526.05859547
0.42900002 23167.59375499  1643.74085481
0.43000002 23245.50067821  2404.51470410
0.43100002 23323.51001909  1662.49987294
0.43200002 23404.34978137  1520.11259033
0.43300002 23485.79697398  1528.92545546
0.43400002 23568.94749397  2614.38562466
0.43500002 23652.67631966  1701.57361507
0.43600002 23738.13929997  2800.86318873
0.43700002 23823.67221520  2191.30147420
0.43800002 23909.60940777  1889.33742494
0.43900002 23997.16605807  2058.95694536
0.44000002 24084.55235930  1911.83185688
0.44100002 24172.79352652  1923.18754411
0.44200002 24261.07962089  1773.36369893
0.44300002 24349.71266444  2108.19822240
0.44400002 24438.22960477  1957.50228411
0.44500002 24526.28270440  2461.21258603
0.44600002 24614.09018488  1980.44979013
0.44700002 24702.82142877  1992.03561442
0.44800002 24789.94506158  2003.52345483
0.44900002 24877.40419429  2518.83729404
0.45000002 24964.46239470  2195.49974935
0.45100002 25050.03985761  2377.74989597
0.45200002 25135.39594385  2220.33530593
0.45300002 25219.51962049  2060.93924106
0.45400002 25302.95244555  1899.61924488
0.45500002 25385.78371081  2257.30399455
0.45600002 25466.95876176  1745.76010586
0.45700002 25547.28258973  2281.62791622
0.45800002 25625.97513698  2293.65301334
0.45900002 25703.32828556  1773.52973576
0.46000002 25779.74875301  1960.93668183
0.46100002 25853.81027087  1970.83605036
0.46200002 25926.99548190  2160.75590587
0.46300002 25998.37293941  2895.17894775
0.46400002 26067.54179720  1818.21112653
0.46500002 26136.00623949  2923.05107636
0.46600002 26201.52231788  2018.95839789
0.46700002 26265.15675957  1843.81409191
0.46800002 26327.68157069  2037.36773491
0.46900002 26387.21060380  2232.35812289
0.47000002 26444.91637130  2055.16677320
0.47100002 26500.72734718  1876.25158511
0.47200002 26554.36119502  2637.64482252
0.47300002 26605.65277613  2837.49300306
0.47400002 26654.02709537  1899.09952056
0.47500002 26700.54310639  3050.27018905
0.47600002 26745.23584039  1913.62171508
0.47700002 26786.53807279  2880.89230628
