# SAXS profile: number of points = 501, q_min = 0, q_max = 0.5, delta_q = 0.001
#    q    intensity    error
0.00000000 1664650.74656090 299.63713438
0.00100000 1664569.19216608 798.99323121
0.00200000 1664324.46376986 1048.52444538
0.00300000 1663916.78368687 1397.69014809
0.00400000 1663346.02216514 1372.26052043
0.00500000 1662612.69618762 1645.98663438
0.00600000 1661716.71245805 1919.28288103
0.00700000 1660658.60335602 2391.34848822
0.00800000 1659438.24018736 2464.26589072
0.00900000 1658056.79093257 2984.50235126
0.01000000 1656513.72930256 3006.57254851
0.01100000 1654810.22002618 3574.39023088
0.01200000 1652946.21597505 3223.24526247
0.01300000 1650922.92928514 3813.63213485
0.01400000 1648740.36429328 5193.53237776
0.01500000 1646399.91394315 4346.49596635
0.01600000 1643900.96342277 5449.53193736
0.01700000 1641245.86713518 5317.63684806
0.01800000 1638434.44833841 5136.49222667
0.01900000 1635467.35570390 5397.04251735
0.02000000 1632346.01349696 6170.26821013
0.02100000 1629072.12660039 6988.71973997
0.02200000 1625644.30713837 6169.32042588
0.02300000 1622066.07511929 7591.26957710
0.02400000 1618336.50903852 7889.39084130
0.02500000 1614458.54172434 7555.66632034
0.02600000 1610431.93212295 9783.37443512
0.02700000 1606258.81314935 10119.43098632
0.02800000 1601939.21297884 9755.81025444
0.02900000 1597475.48333891 8626.36800610
0.03000000 1592869.10648297 10369.57835984
0.03100000 1588120.21051515 8385.27509735
0.03200000 1583230.46966173 12539.18589725
0.03300000 1578203.67988801 10463.49088003
0.03400000 1573037.77914599 9084.29359372
0.03500000 1567736.17255974 9312.35329503
0.03600000 1562300.03626533 8670.76560198
0.03700000 1556731.07548146 13310.05131092
0.03800000 1551031.06951965 13610.29826491
0.03900000 1545201.81372457 10198.33244287
0.04000000 1539243.38745957 12306.25145300
0.04100000 1533159.61594392 13522.46843962
0.04200000 1526951.42361860 10833.72085318
0.04300000 1520619.62185635 11039.69896712
0.04400000 1514167.79443006 11242.69639578
0.04500000 1507597.40384058 10402.42256985
0.04600000 1500908.16767288 12697.68368879
0.04700000 1494104.61752975 11833.30912118
0.04800000 1487187.17153955 17489.32195105
0.04900000 1480159.20888552 14431.55295839
0.05000000 1473020.67983494 11268.60872547
0.05100000 1465776.12632005 17149.58147684
0.05200000 1458423.85833856 17391.70532116
0.05300000 1450969.76337054 19979.85457303
0.05400000 1443413.95060682 14289.79877740
0.05500000 1435758.68104180 14472.44818003
0.05600000 1428005.35683476 13430.39100775
0.05700000 1420159.16856369 14826.46241188
0.05800000 1412218.50541344 12498.13435648
0.05900000 1404186.28523721 15165.21258887
0.06000000 1396066.65720140 14051.41156120
0.06100000 1387860.51441647 12907.10338724
0.06200000 1379569.95677886 14340.63037105
0.06300000 1371198.56688875 13163.50685760
0.06400000 1362744.79681813 15944.11486843
0.06500000 1354214.81885976 14747.40006723
0.06600000 1345609.51751238 17580.38916886
0.06700000 1336930.74500368 17727.70250839
0.06800000 1328181.21699594 13746.67623938
0.06900000 1319364.14179333 15238.65655117
0.07000000 1310479.57859858 18143.59061533
0.07100000 1301531.13171664 16867.84425710
0.07200000 1292521.03298621 16983.72716907
0.07300000 1283451.69986310 18520.20889680
0.07400000 1274325.85174417 20070.63310556
0.07500000 1265144.92950238 23076.24459576
0.07600000 1255910.16621632 14505.76309984
0.07700000 1246626.67355832 17502.63931743
0.07800000 1237294.83031476 26391.49996828
0.07900000 1227916.37756966 16208.49694416
0.08000000 1218495.95525981 20726.61717128
0.08100000 1209034.20774876 16358.23359834
0.08200000 1199532.98372347 20907.86088741
0.08300000 1189995.51331016 16493.33858854
0.08400000 1180423.75097447 19565.52459078
0.08500000 1170819.87084698 18124.29245156
0.08600000 1161186.21482283 19699.52505939
0.08700000 1151525.90615282 22800.21401247
0.08800000 1141838.78856923 21340.96796061
0.08900000 1132130.02854291 22925.63415480
0.09000000 1122400.06749289 19916.99013327
0.09100000 1112650.86674170 19960.95748714
0.09200000 1102884.59116102 20000.81300048
0.09300000 1093106.68539229 18495.36598597
0.09400000 1083313.30751895 21612.10150072
0.09500000 1073510.68239143 17004.41000833
0.09600000 1063699.73774462 20119.88148523
0.09700000 1053884.75759066 15492.10666491
0.09800000 1044065.83401820 21706.12970981
0.09900000 1034246.01056506 21719.16724316
0.10000000 1024424.90211074 15520.03799684
0.10100000 1014606.34402096 23285.21669043
0.10200000 1004792.47696670 20181.25784913
0.10300000 994984.51037283 17073.93500117
0.10400000 985185.82080772 23275.01611156
0.10500000 975398.81526407 18610.61027086
0.10600001 965620.85333540 17048.03696781
0.10700001 955859.33006886 20130.39843854
0.10800001 946112.90099010 17015.84132510
0.10900001 936385.15597561 15450.35580078
0.11000001 926676.51770871 23143.74711914
0.11100001 916989.39327593 23108.13379833
0.11200001 907325.48424055 23068.75152283
0.11300001 897686.53512181 16885.48452062
0.11400001 888074.39944136 19915.06934516
0.11500001 878491.45288311 18342.90239993
0.11600001 868938.05440479 16774.84993024
0.11700001 859417.43555126 21296.36505591
0.11800001 849928.29057691 15171.22070134
0.11900001 840474.28892245 21179.95307846
0.12000001 831055.38867397 15083.65601495
0.12100001 821677.25766718 21051.37233312
0.12200001 812337.31592601 17985.14902191
0.12300001 803039.02723237 16430.17927127
0.12400001 793781.88628928 20836.77549687
0.12500001 784567.69439063 20759.66217178
0.12600001 775400.74945856 16248.52347059
0.12700001 766279.22700825 17655.07422229
0.12800001 757205.04055616 17582.30187035
0.12900001 748180.22587855 18966.36961995
0.13000001 739205.77641504 18883.01244857
0.13100001 730282.06345600 14459.58553802
0.13200001 721411.03102648 20149.01104640
0.13300001 712594.25264691 21484.71773016
0.13400001 703831.18801593 18528.35689805
0.13500001 695124.92793034 22688.87871739
0.13600001 686475.23937970 15517.77351785
0.13700001 677883.71947165 16838.63238567
0.13800001 669349.40248789 18142.71640997
0.13900001 660876.68346571 18041.93430944
0.14000001 652463.37604811 19319.44147590
0.14100001 644112.93008199 13719.60605780
0.14200001 635824.14076586 13638.42846269
0.14300001 627599.69233910 14911.76939333
0.14400001 619436.09410751 20209.10352352
0.14500001 611340.27860870 22760.19964625
0.14600001 603308.91958310 15963.55476524
0.14700001 595344.69279803 13216.65280363
0.14800001 587444.94904188 14442.33475356
0.14900001 579613.58620564 15649.56756591
0.15000001 571849.97667243 20723.84413242
0.15100001 564154.94371523 19294.09998545
0.15200001 556529.95174099 14049.59929466
0.15300001 548974.05856851 13949.43148649
0.15400001 541486.37108658 17625.38221063
0.15500001 534070.85478973 17496.16202861
0.15600001 526724.22816998 16125.66300647
0.15700001 519451.47867247 13542.10068814
0.15800001 512247.11712646 13438.80375211
0.15900001 505116.76925717 14547.36364125
0.16000001 498055.82815633 18042.07322659
0.16100001 491069.62820792 11932.99252874
0.16200001 484155.36136608 17756.39871631
0.16300001 477313.26494668 14090.28824640
0.16400001 470544.36342843 12810.57089912
0.16500001 463847.68905340 17324.71200407
0.16600001 457224.79855091 12598.82991890
0.16700001 450674.00187897 13628.38246028
0.16800001 444196.49653890 11260.38171894
0.16900001 437793.47282118 17861.97453451
0.17000001 431461.76548211 12173.69428792
0.17100001 425204.37144628 12067.30063148
0.17200001 419019.52227546 13048.26853983
0.17300001 412907.67827657 14009.95818554
0.17400001 406869.67000178 10680.32934194
0.17500001 400903.13947599 12700.61205842
0.17600001 395008.41326556 11536.22125427
0.17700001 389188.74282772 14547.87589401
0.17800001 383439.36535557 14413.48642449
0.17900001 377761.97152225 18359.23268315
0.18000001 372157.52377810 15156.11587176
0.18100001 366625.10215516 16014.18521859
0.18200001 361161.73574780 12888.05714896
0.18300001 355770.20151309 9819.25802562
0.18400001 350449.24075562 9724.96689038
0.18500001 345198.95447114 12520.36667016
0.18600001 340018.79472952 9537.52764275
0.18700001 334907.50873850 11333.27063115
0.18800001 329863.97348904 11221.97290829
0.18900001 324892.75984999 12037.27732117
0.19000001 319985.77345339 12834.62997964
0.19100001 315149.42913356 9983.93438669
0.19200001 310379.05372580 12579.66364191
0.19300001 305677.42371782 9784.73479556
0.19400001 301040.27553393 9685.97132300
0.19500001 296470.30816043 11331.09571334
0.19600001 291964.43487670 10353.05934998
0.19700001 287525.37067200 9393.45430377
0.19800001 283149.46359812 8452.01188784
0.19900001 278837.77230904 11711.18699045
0.20000001 274588.25286718 10762.48707978
0.20100001 270402.99793237 11470.49571441
0.20200001 266278.57745005 10540.63798655
0.20300001 262216.31156941 10430.96536725
0.20400001 258215.20466223 8734.12971053
0.20500001 254273.88422624 11785.59509095
0.20600001 250391.80905903 9329.59924653
0.20700001 246569.56608485 8462.26790804
0.20800001 242804.90461843 10656.70776745
0.20900001 239100.72206995 14310.17889235
0.21000001 235450.67652217 8942.41711704
0.21100001 231858.60281356 11059.65587703
0.21200001 228321.38670810 8024.35551520
0.21300001 224839.42345224 7939.08041742
0.21400001 221412.20913021 7854.59849023
0.21500001 218039.93810104 7770.94376131
0.21600001 214719.44522968 6989.11827266
0.21700001 211451.92373376 8297.37387961
0.21800001 208236.41560334 7524.62323360
0.21900001 205071.45615142 10151.03755945
0.22000001 201956.19761571 10711.75722802
0.22100001 198892.61470327 8610.06169762
0.22200001 195877.28354808 7862.51453339
0.22300001 192909.95168632 7129.95215147
0.22400001 189990.06269898 8977.03088702
0.22500001 187119.08184368 6343.33717446
0.22600001 184292.68810472 7530.19959205
0.22700001 181512.89073900 7449.28938820
0.22800001 178777.62024796 6755.11270052
0.22900001 176085.94324062 12757.42719109
0.23000001 173438.68192117 6610.61567405
0.23100001 170835.52093998 6539.58405086
0.23200001 168272.85367153 5881.13651396
0.23300001 165752.94515073 6399.72151494
0.23400001 163272.97732293 6906.44726740
0.23500001 160833.27386061 7401.54761313
0.23600001 158433.49687813 5632.31108041
0.23700001 156072.83614476 7800.52071946
0.23800001 153750.19703219 9370.30620133
0.23900001 151465.38994561 7088.58058474
0.24000001 149216.96334231 6473.03217597
0.24100001 147006.24618128 5869.95968767
0.24200001 144831.23989642 5279.09894394
0.24300001 142690.64511467 6266.97342988
0.24400001 140584.72231578 9299.67982110
0.24500001 138512.41452734 6133.33000540
0.24600001 136473.63374484 5561.98320638
0.24700001 134468.09119343 7503.31984354
0.24800001 132494.31404361 6433.26172272
0.24900001 130550.93637527 6853.92448394
0.25000001 128639.98077708 5811.95460646
0.25100001 126758.46386569 6228.91120904
0.25200001 124908.59628774 4740.28145338
0.25300001 123086.40119009 5158.55131793
0.25400001 121294.24967736 6495.30737752
0.25500001 119528.45080102 5507.87127350
0.25600001 117791.83213375 4994.96287796
0.25700001 116081.41464611 6289.29134309
0.25800001 114397.75366988 4444.35294036
0.25900001 112741.16081051 4836.59602761
0.26000001 111109.15909324 6524.88567648
0.26100001 109502.17511400 4733.77925416
0.26200001 107921.08281252 4257.48691840
0.26300001 106362.68184349 5054.35488036
0.26400001 104828.99470219 5833.73383122
0.26500001 103318.56769083 4946.89325512
0.26600001 101830.55747468 4893.97682381
0.26700001 100365.30326337 4034.68538211
0.26800001 98922.26389482  5987.27030556
0.26900001 97500.05964998  4738.50312322
0.27000001 96099.71427519  4687.74428418
0.27100001 94719.59664805  5410.38361657
0.27200001 93360.63946892  4205.43020389
0.27300001 92021.45531963  4160.29019188
0.27400001 90700.55664581  4115.53795257
0.27500001 89400.81156793  4071.31315148
0.27600001 88117.92023106  4759.68968654
0.27700001 86855.45547790  4346.24719781
0.27800001 85610.05096475  5015.89312341
0.27900001 84382.93337033  4961.71671700
0.28000001 83172.96619974  5258.61103686
0.28100001 81980.61496919  3814.55819506
0.28200001 80805.47529306  3773.21184739
0.28300001 79646.79034679  4410.83945817
0.28400001 78503.73052633  6376.46581380
0.28500001 77377.48395085  5311.19074977
0.28600001 76266.77804287  5253.25592024
0.28700001 75172.29380691  3572.18757079
0.28800001 74091.49927992  4175.42663956
0.28900001 73027.46591806  3812.03390136
0.29000001 71977.26143677  3770.16913252
0.29100001 70942.38831269  4039.45978173
0.29200001 69921.27947985  3380.34441646
0.29300001 68914.76389619  4558.71184752
0.29400001 67921.34072391  3907.17531009
0.29500001 66942.89586559  4458.39707570
0.29600001 65976.65575498  3527.11218363
0.29700001 65024.30967870  3197.24545825
0.29800001 64085.27486217  4598.75954181
0.29900001 63159.53146729  3126.39695563
0.30000001 62245.57752404  3934.54314155
0.30100001 61345.29148816  3334.73020316
0.30200001 60456.55718485  3297.30078496
0.30300001 59580.90907836  2988.57854085
0.30400001 58717.05551230  4566.71920867
0.30500001 57865.90153540  3718.46300871
0.30600001 57025.36651507  3676.42555328
0.30700001 56197.45548121  3894.48384923
0.30800001 55380.85605585  2823.59307969
0.30900001 54576.16887162  3552.90876175
0.31000001 53782.60748688  3512.54226127
0.31100001 53000.00899866  2480.40053857
0.31200001 52229.43222621  3678.25793868
0.31300001 51469.12968237  2666.61573510
0.31400001 50721.23590892  3115.55206322
0.31500001 49982.83529853  3079.94245692
0.31600002 49256.39867344  2576.35605460
0.31700002 48539.93454721  2546.89048628
0.31800002 47833.91392601  2975.50875665
0.31900002 47139.23166557  2488.95154979
0.32000002 46455.07070793  2684.17411260
0.32100002 45780.93931157  2653.46336814
0.32200002 45118.14742113  2623.16921527
0.32300002 44464.00863937  2377.04601442
0.32400002 43821.25526473  2136.28629531
0.32500002 43188.24849810  2323.09599672
0.32600002 42565.71623970  2296.63332846
0.32700002 41953.33596022  3715.38760857
0.32800002 41351.81230574  2856.99684749
0.32900002 40758.14024509  2017.52803767
0.33000002 40175.92841553  2393.68192835
0.33100002 39602.42115001  2563.86086666
0.33200002 39040.46546779  2730.09987945
0.33300002 38487.33091573  1928.21537019
0.33400002 37944.66843840  2288.06361519
0.33500002 37411.11255382  1885.52016200
0.33600002 36886.91904090  2424.02399957
0.33700002 36372.46101982  2212.90063324
0.33800002 35868.28922136  2006.29285261
0.33900002 35372.86209640  2706.02407853
0.34000002 34887.13918664  2498.26815547
0.34100002 34410.93727986  2118.33739927
0.34200002 33944.86879795  1921.10994060
0.34300002 33487.51279314  2073.54689035
0.34400002 33040.21384626  1709.83114752
0.34500002 32601.78239154  1861.23584488
0.34600002 32173.18299758  2176.99853063
0.34700002 31752.74357574  2651.98926905
0.34800002 31342.47104215  2133.01196780
0.34900002 30940.80828938  1786.83176334
0.35000002 30548.64423472  1608.38619513
0.35100002 30166.38765918  1911.34241261
0.35200002 29791.44637366  1892.94859224
0.35300002 29426.91693848  1718.82629979
0.35400002 29070.69073704  1702.81579057
0.35500002 28723.86322236  1994.01067934
0.35600002 28385.34783246  1672.03899327
0.35700002 28055.78162087  2259.89331660
0.35800002 27735.19134413  2090.95617447
0.35900002 27423.96064409  1777.07273391
0.36000002 27121.06200983  1468.60557739
0.36100002 26826.13166038  2330.65442905
0.36200002 26541.35875859  3323.90722157
0.36300002 26263.75928403  1864.20172228
0.36400002 25995.21707695  1565.56202262
0.36500002 25734.27040135  2119.21726793
0.36600002 25482.70663213  1402.82306655
0.36700002 25238.78522637  2647.04391993
0.36800002 25004.03256204  1383.97326787
0.36900002 24777.21674854  1787.67627309
0.37000002 24557.90419598  1503.31217657
0.37100002 24346.65350150  1358.54332974
0.37200002 24144.08112651  1621.03368362
0.37300002 23949.15397112  1477.90236157
0.37400002 23761.81230994  1737.58260748
0.37500002 23582.63086312  1862.08462116
0.37600002 23411.14745359  1456.29049634
0.37700002 23247.10157061  1449.92179364
0.37800002 23090.62677500  1312.70219434
0.37900002 22942.50265574  1438.49498466
0.38000002 22800.93534660  1303.07351679
0.38100002 22666.09490176  1558.52075928
0.38200002 22539.62725921  1424.39181212
0.38300002 22419.46742786  1937.04207753
0.38400002 22306.81032912  2189.97120781
0.38500002 22200.53222409  1413.95196434
0.38600002 22102.13608890  1539.63487289
0.38700002 22009.55681177  1409.05189384
0.38800002 21923.74760397  1279.25073330
0.38900002 21844.56903899  1533.48881919
0.39000002 21772.37757383  1787.73000728
0.39100002 21705.70134477  1659.18388940
0.39200002 21646.09994487  1403.64141742
0.39300002 21591.96209469  1531.30202430
0.39400002 21545.11900370  1404.20319759
0.39500002 21503.00908800  1532.73456041
0.39600002 21466.99550434  1789.70349999
0.39700002 21436.15124765  1407.71211913
0.39800002 21412.06630878  1537.81467516
0.39900002 21392.58516311  2567.11034120
0.40000002 21378.74373356  1414.52464615
0.40100002 21369.88417856  1546.32489242
0.40200002 21366.75047799  1679.10616587
0.40300002 21368.29652666  1683.39448013
0.40400002 21374.80808286  1558.22358307
0.40500002 21385.80337314  1432.63503585
0.40600002 21402.35358373  1567.93649783
0.40700002 21422.79292765  1573.28998715
0.40800002 21447.63604202  1973.71880028
0.40900002 21476.44736965  1320.80157581
0.41000002 21510.26316870  1458.71856590
0.41100002 21547.79624128  1597.98464497
0.41200002 21588.46722255  1471.14616859
0.41300002 21634.32688421  2418.28517370
0.41400002 21682.96385480  1349.76456392
0.41500002 21735.23702218  1763.16251078
0.41600002 21790.12607829  1771.86418601
0.41700002 21849.76834520  2191.96886425
0.41800002 21912.76602003  2203.54785539
0.41900002 21977.07690683  1523.01150181
0.42000002 22044.95247870  1531.35269650
0.42100002 22116.44211606  1819.96210797
0.42200002 22190.10407267  1548.75838714
0.42300002 22266.02152835  1416.11903631
0.42400002 22344.34617188  1424.45213596
0.42500002 22425.38761973  2006.17527153
0.42600002 22507.42643452  1874.08095088
0.42700002 22592.72452559  1595.49828160
0.42800002 22679.15214754  1605.34386084
0.42900002 22768.38112322  2349.69704326
0.43000002 22858.93926913  1773.39659254
0.43100002 22949.64991470  1933.27860043
0.43200002 23043.09065486  1646.31368985
0.43300002 23137.12775731  1656.84979722
0.43400002 23232.79046584  2425.50343957
0.43500002 23328.97714601  1525.71517765
0.43600002 23426.90929539  1996.32417021
0.43700002 23524.74728316  2009.24876067
0.43800002 23623.02137692  1866.69123766
0.43900002 23722.84367991  1565.70775707
0.44000002 23822.44909253  1733.44059037
0.44100002 23922.80041070  2061.90626511
0.44200002 24023.18178333  2075.24265670
0.44300002 24123.88497643  1767.31589713
0.44400002 24224.31987760  1940.36811415
0.44500002 24324.23264579  1952.74948935
0.44600002 24423.88762771  2128.90826596
0.44700002 24524.30672140  2307.24688569
0.44800002 24623.14426143  1824.20572906
0.44900002 24722.10714196  2002.49077340
0.45000002 24820.69310800  2350.76795567
0.45100002 24917.65289133  2196.24202993
0.45200002 25014.39286013  2039.67369048
0.45300002 25109.83562862  2564.96983102
0.45400002 25204.36944616  2064.23795547
0.45500002 25298.28125996  2076.48302423
0.45600002 25390.47171035  1914.56861006
0.45700002 25481.70059912  1925.65220554
0.45800002 25571.16922674  1936.63259317
0.45900002 25659.28561164  2301.63802845
0.46000002 25746.37403936  2848.57895872
0.46100002 25830.94650715  1790.08467779
0.46200002 25914.57356013  2339.69738477
0.46300002 25996.23376758  1990.27175157
0.46400002 26075.60167685  2000.65063348
0.46500002 26154.17147954  2010.99434037
0.46600002 26229.69148641  1837.38997571
0.46700002 26303.30395161  2215.79042990
0.46800002 26375.56620882  2226.62540488
0.46900002 26444.90150604  2982.98503126
0.47000002 26512.07349371  2435.00150544
0.47100002 26577.39857872  1881.67990856
0.47200002 26640.35600021  2268.16001736
0.47300002 26700.79362907  2467.95447211
0.47400002 26758.33711759  2478.49109299
0.47500002 26813.84292346  2105.95932303
0.47600002 26867.38798253  2499.07021165
0.47700002 26917.43465300  2315.97618732
