# SAXS profile: number of points = 501, q_min = 0, q_max = 0.5, delta_q = 0.001
#    q    intensity    error
0.00000000 1664650.74656090 424.48594037
0.00100000 1664569.18517730 649.18199764
0.00200000 1664324.42535753 748.94601513
0.00300000 1663916.71379159 1297.85508299
0.00400000 1663345.90246802 1247.50947425
0.00500000 1662612.49646612 1795.62156726
0.00600000 1661716.39329535 2442.72319759
0.00700000 1660658.20575050 1992.78992972
0.00800000 1659437.69940493 3136.33738429
0.00900000 1658056.13006992 2735.79273156
0.01000000 1656512.85374233 3553.22022470
0.01100000 1654809.20361409 3574.38803543
0.01200000 1652945.07320118 3545.56733747
0.01300000 1650921.57031526 4507.01608574
0.01400000 1648738.80519313 4451.59497136
0.01500000 1646398.09439780 5927.03340376
0.01600000 1643898.89049553 5868.71930142
0.01700000 1641243.49933137 4874.49341168
0.01800000 1638431.80677452 7471.24937508
0.01900000 1635464.52550239 4906.39379790
0.02000000 1632342.76053088 6170.25591392
0.02100000 1629068.53431406 9139.07489185
0.02200000 1625640.54390339 5608.46013127
0.02300000 1622061.81338872 7591.24963220
0.02400000 1618331.95970175 7889.36866328
0.02500000 1614453.46722494 7555.64257168
0.02600000 1610426.46487047 7174.45022914
0.02700000 1606253.03489412 7420.88936110
0.02800000 1601932.92550957 8362.09025464
0.02900000 1597468.77326525 8626.33177170
0.03000000 1592861.87343681 10369.53127271
0.03100000 1588112.69974650 7622.94130954
0.03200000 1583222.50231118 8620.64692214
0.03300000 1578194.94245204 8048.79457756
0.03400000 1573028.75497862 9910.08161362
0.03500000 1567726.51512989 14391.73007347
0.03600000 1562289.94954504 11271.92250689
0.03700000 1556720.59481827 13309.96170125
0.03800000 1551019.90170798 10888.16021389
0.03900000 1545190.24368940 11125.37026978
0.04000000 1539231.21913115 12306.15416721
0.04100000 1533146.90669310 10624.70855601
0.04200000 1526938.09495799 10833.62628633
0.04300000 1520605.66295535 10035.99784136
0.04400000 1514153.11341723 11242.58738925
0.04500000 1507582.19207087 12482.78113036
0.04600000 1500892.42529102 14813.80892627
0.04700000 1494088.08064690 12908.92161716
0.04800000 1487169.84731067 16396.04832948
0.04900000 1480141.48221474 12211.16779667
0.05000000 1473002.40343410 19156.39714870
0.05100000 1465757.11346267 16006.06842464
0.05200000 1458404.16304049 18550.90181837
0.05300000 1450949.35523288 12927.95935780
0.05400000 1443392.70528904 13098.78941135
0.05500000 1435736.89051802 15678.24757584
0.05600000 1427982.93847100 18313.88204049
0.05700000 1420135.80812174 17297.25495033
0.05800000 1412194.38057460 12497.92085164
0.05900000 1404161.79626990 12637.45675667
0.06000000 1396041.27993925 16605.91180069
0.06100000 1387834.21763938 15488.23059264
0.06200000 1379543.13801174 15644.01991631
0.06300000 1371170.85969699 18428.53721596
0.06400000 1362716.20652639 18601.07708900
0.06500000 1354185.45012875 16087.72390008
0.06600000 1345579.73867196 18932.30780893
0.06700000 1336899.88032661 17727.29324275
0.06800000 1328149.86013702 16495.62203505
0.06900000 1319331.51700617 20779.47236572
0.07000000 1310446.45386948 20934.38308089
0.07100000 1301496.97043524 21084.25190859
0.07200000 1292486.01426972 22644.35603082
0.07300000 1283416.07826382 15670.51104985
0.07400000 1274289.49501451 18636.48473797
0.07500000 1265107.51515921 24517.78479299
0.07600000 1255871.93810355 18856.91803465
0.07700000 1246587.52741901 16043.58223014
0.07800000 1237254.54986925 20526.05394493
0.07900000 1227875.61830177 19154.86054394
0.08000000 1218454.17942310 19245.48466681
0.08100000 1208991.57270514 20818.83585877
0.08200000 1199489.27641431 16427.00641133
0.08300000 1189951.25078715 14993.38646359
0.08400000 1180378.51795661 15049.82681037
0.08500000 1170773.73497571 19633.87645726
0.08600000 1161138.89476527 15152.86328814
0.08700000 1151477.78923012 15199.50753157
0.08800000 1141789.70778048 19815.76130915
0.08900000 1132080.22331734 19868.00885241
0.09000000 1122348.57599220 16852.06466016
0.09100000 1112598.52830981 19960.01853562
0.09200000 1102831.73318011 19999.85442095
0.09300000 1093052.57262145 24659.26719713
0.09400000 1083258.18358155 18523.71580981
0.09500000 1073454.56981167 17003.52118503
0.09600000 1063642.51972734 20118.79920638
0.09700000 1053826.76934353 23236.88135646
0.09800000 1044006.79195886 17053.85174848
0.09900000 1034185.29108511 20166.61412444
0.10000000 1024363.63930672 20174.84282491
0.10100000 1014543.55341695 17074.76880706
0.10200000 1004728.78604548 18627.67256946
0.10300000 994919.67052306 23281.12138540
0.10400000 985119.66855445 15515.63550967
0.10500000 975331.52199248 20160.10350810
0.10600001 965552.36440060 20146.25103117
0.10700001 955789.59233777 18580.55054940
0.10800001 946041.84416325 18561.34185601
0.10900001 936313.14367358 16994.08435751
0.11000001 926603.26268600 15427.94504991
0.11100001 916914.56573665 18484.99851540
0.11200001 907249.46942154 19991.24299983
0.11300001 897609.01584529 18418.93787232
0.11400001 887995.75586023 15317.92750982
0.11500001 878411.27254256 15284.35686195
0.11600001 868856.60695100 16773.27758707
0.11700001 859334.36384892 16731.24085210
0.11800001 849843.97523011 21237.60194126
0.11900001 840388.21897275 18152.38638482
0.12000001 830968.35293677 16590.28394787
0.12100001 821588.65108546 25559.62413933
0.12200001 812246.76622077 17983.14425134
0.12300001 802947.20792758 17921.78252532
0.12400001 793688.33272519 16369.82263376
0.12500001 784472.84321845 19274.49866610
0.12600001 775304.00815493 20677.35887188
0.12700001 766180.84997432 23537.07682043
0.12800001 757104.99056637 17579.97870948
0.12900001 748078.67953468 14587.53493847
0.13000001 739102.60641563 14523.36690062
0.13100001 730176.76236448 23132.00092209
0.13200001 721304.04460096 15829.01800495
0.13300001 712485.12854538 20049.33246245
0.13400001 703720.31514214 17100.40446416
0.13500001 695012.16814113 22685.19823769
0.13600001 686360.78386702 15515.18625087
0.13700001 677767.44385141 15432.76542420
0.13800001 669231.42222893 16744.17097375
0.13900001 660756.22511116 20813.82207254
0.14000001 652341.18753305 13797.01676700
0.14100001 643988.65467099 15088.65489057
0.14200001 635697.84764193 14999.29142256
0.14300001 627471.04246609 18974.72521917
0.14400001 619305.49464260 16163.87417262
0.14500001 611207.25894522 14723.98356255
0.14600001 603173.78546916 18619.97563582
0.14700001 595207.49397507 18499.04978547
0.14800001 587305.61033301 15751.53721227
0.14900001 579472.34413353 13038.12835815
0.15000001 571706.23904436 15538.97631040
0.15100001 564008.78540068 20575.04146225
0.15200001 556381.21153380 16599.63422940
0.15300001 548823.18600784 13945.59781454
0.15400001 541333.12795587 16361.79456460
0.15500001 533915.33320820 14992.34326402
0.15600001 526566.27082443 19841.01802106
0.15700001 519291.03843304 12307.19819172
0.15800001 512084.30366045 13434.53234062
0.15900001 504951.22990491 12118.83008973
0.16000001 497887.85201750 14428.79063254
0.16100001 490899.09195000 13121.73334723
0.16200001 483982.03376128 13016.69741248
0.16300001 477137.35760169 11737.57955111
0.16400001 470366.06697586 13969.87284869
0.16500001 463666.55858131 12699.82763912
0.16600001 457040.85030450 16028.42337693
0.16700001 450487.40767110 13622.73985117
0.16800001 444007.52073374 12381.15030025
0.16900001 437601.65741931 14506.49562842
0.17000001 431267.45855001 12168.21191757
0.17100001 425007.07388958 18640.81114104
0.17200001 418819.73711899 18476.23357551
0.17300001 412704.94861047 12925.91960090
0.17400001 406664.13162098 11742.42735510
0.17500001 400694.97268578 14809.68688989
0.17600001 394797.26819142 12578.24155864
0.17700001 388974.81256479 11424.19078460
0.17800001 383222.61717937 14405.33886017
0.17900001 377542.46205444 11213.01165265
0.18000001 371935.28074987 12117.65201921
0.18100001 366399.72613449 16004.34079354
0.18200001 360933.58560734 11889.15287152
0.18300001 355539.28887927 10794.17332028
0.18400001 350215.36591911 9718.47686336
0.18500001 344962.16058388 9624.44473497
0.18600001 339779.20808165 12390.04940805
0.18700001 334665.09166323 11325.06723693
0.18800001 329619.01286715 10279.16940191
0.18900001 324644.91583802 10177.61859239
0.19000001 319735.11868843 13740.61737486
0.19100001 314896.00170518 12696.60738867
0.19200001 310122.65992874 10773.66171499
0.19300001 305418.08790382 9776.43345576
0.19400001 300778.47994001 12316.87933556
0.19500001 296205.32517982 10450.12436617
0.19600001 291696.90137576 10343.57261158
0.19700001 287255.13786283 9384.62579747
0.19800001 282876.60689796 10977.02724944
0.19900001 278562.49034888 10863.93763704
0.20000001 274309.98471750 12405.66964516
0.20100001 270122.11599516 9003.17055163
0.20200001 265995.16454581 11339.37440053
0.20300001 261930.21372411 14427.11685382
0.20400001 257926.68224724 10310.61961017
0.20500001 253982.74870523 10987.29422832
0.20600001 250098.29025288 10871.77319118
0.20700001 246273.44202555 12293.97080704
0.20800001 242506.53657359 9123.09633715
0.20900001 238799.84005080 9026.63438062
0.21000001 235147.44260864 8930.90029246
0.21100001 231553.00948919 11045.07907477
0.21200001 228013.50040745 10199.04435538
0.21300001 224529.31006019 8648.86943240
0.21400001 221100.15196848 9982.67233332
0.21500001 217725.76828779 9876.04131645
0.21600001 214403.09294293 7676.70310577
0.21700001 211133.66387122 11046.51381602
0.21800001 207916.22629401 7513.05319236
0.21900001 204749.19140396 9459.41309012
0.22000001 201632.33919759 7352.52359649
0.22100001 198566.62453061 7273.49580047
0.22200001 195549.76319756 7195.25387708
0.22300001 192580.88534933 7764.86166445
0.22400001 189659.13809414 9601.49432004
0.22500001 186786.77817173 6965.27928739
0.22600001 183958.79652443 8142.93651322
0.22700001 181177.67899755 9294.41537210
0.22800001 178440.78126730 7355.32935167
0.22900001 175748.25302228 9701.30402561
0.23000001 173099.68215260 7197.48512429
0.23100001 170495.24691815 6526.55836069
0.23200001 167931.36801386 8216.88222552
0.23300001 165410.51443687 6386.50026445
0.23400001 162929.71863769 8040.58199505
0.23500001 160489.04335185 6817.57488403
0.23600001 158088.51480170 8992.07514722
0.23700001 155727.31754723 9451.09134896
0.23800001 153404.01602221 7699.34792832
0.23900001 151118.60914414 7072.35124246
0.24000001 148869.91731072 7534.30687147
0.24100001 146658.75139523 5323.71292746
0.24200001 144483.47319790 6846.34970133
0.24300001 142342.54328915 6772.65853006
0.24400001 140236.70899542 5669.06922931
0.24500001 138164.17864219 6627.73596299
0.24600001 136125.38998452 5547.79053126
0.24700001 134119.91748633 6984.96563312
0.24800001 132146.51297595 5922.80699177
0.24900001 130203.50474500 4882.63165892
0.25000001 128292.84329420 6762.31608995
0.25100001 126411.79912189 6211.87610273
0.25200001 124562.62364775 7563.44286572
0.25300001 122741.16397005 4676.43856850
0.25400001 120949.47429756 6476.84465506
0.25500001 119184.59141208 6865.03279013
0.25600001 117448.85079017 5885.94943583
0.25700001 115739.37077911 7614.49356382
0.25800001 114056.88436563 4431.11016726
0.25900001 112401.43282099 4822.02169617
0.26000001 110770.94826319 5204.01939564
0.26100001 109165.18168346 6435.28776473
0.26200001 107585.54391330 5093.09988985
0.26300001 106028.73667161 4618.61198796
0.26400001 104496.65373952 4569.11640096
0.26500001 102987.88752578 4931.06028807
0.26600001 101501.67003432 5691.19890813
0.26700001 100038.40513251 6032.31611494
0.26800001 98597.33501499  4376.24292173
0.26900001 97177.11877832  5509.94289547
0.27000001 95778.78423329  4282.74853966
0.27100001 94400.95790268  5777.33889704
0.27200001 93044.30001672  4191.18069259
0.27300001 91707.46824990  3769.17712344
0.27400001 90388.97781356  4847.10916464
0.27500001 89091.91056539  5532.60790794
0.27600001 87811.48787551  3648.56749390
0.27700001 86551.82145880  5413.81668847
0.27800001 85309.07853823  5712.29616927
0.27900001 84084.92119597  3531.56685737
0.28000001 82877.83684164  4541.29128467
0.28100001 81688.38270824  3455.41875210
0.28200001 80516.21927428  3417.91366996
0.28300001 79360.62638349  4394.99169713
0.28400001 78220.72417163  4012.72333993
0.28500001 77097.82399629  4299.74584779
0.28600001 75990.28915974  4252.79673412
0.28700001 74899.12753865  3559.20670910
0.28800001 73821.83399285  3520.19432057
0.28900001 72761.26381790  4431.16117625
0.29000001 71714.62365766  3756.41216500
0.29100001 70683.28783631  4024.70659991
0.29200001 69665.94781634  3980.36411690
0.29300001 68662.99964912  3633.64611343
0.29400001 67673.25084602  4192.35808836
0.29500001 66698.51970786  3849.83873978
0.29600001 65736.19359580  3514.25707599
0.29700001 64787.54173134  3185.60357773
0.29800001 63852.57040486  3722.92429369
0.29900001 62930.78340129  3681.45100325
0.30000001 62020.72726640  2800.23596864
0.30100001 61124.33767283  3599.61241596
0.30200001 60239.63052710  4380.62613931
0.30300001 59368.08085785  3790.05846139
0.30400001 58508.34261349  2676.75680129
0.30500001 57661.11623401  3440.63896857
0.30600001 56824.75700039  2878.45820213
0.30700001 56000.92909499  2587.24304668
0.30800001 55188.43899688  3069.58112233
0.30900001 54387.80967151  3287.74325030
0.31000001 53598.68439593  2750.41661999
0.31100001 52820.05079559  2471.97849427
0.31200001 52053.76056460  3910.27867875
0.31300001 51297.51872028  3140.94721995
0.31400001 50553.76645422  2627.53213586
0.31500001 49819.54634342  3306.02525188
0.31600002 49097.21815011  2568.03011693
0.31700002 48384.85149428  2769.54903067
0.31800002 47683.06496527  2966.12519661
0.31900002 46992.48367819  2481.20325569
0.32000002 46312.38211804  3121.91782640
0.32100002 45642.28009066  2865.87890259
0.32200002 44983.49627262  2615.34059713
0.32300002 44333.30709794  2800.97847508
0.32400002 43694.79069380  2769.15749134
0.32500002 43065.64058077  2105.90992412
0.32600002 42447.04293826  2498.43306565
0.32700002 41838.56891188  2058.45768794
0.32800002 41240.76060987  2442.27795897
0.32900002 40651.04498011  2414.67218616
0.33000002 40072.63336320  2387.52760884
0.33100002 39502.90582593  2163.96928362
0.33200002 38944.39135883  2917.90866074
0.33300002 38394.94485182  2115.94551098
0.33400002 37855.81550307  2472.93126485
0.33500002 37325.87778219  2633.71406103
0.33600002 36805.13143308  2232.59937846
0.33700002 36294.00529717  2760.15923356
0.33800002 35793.33558920  2548.12768127
0.33900002 35301.19132186  2340.46909548
0.34000002 34818.56803435  1959.06682323
0.34100002 34345.68884627  2290.51409763
0.34200002 33882.65786288  1917.58911256
0.34300002 33428.26049114  2414.85765225
0.34400002 32983.92085735  2048.30158225
0.34500002 32548.27309944  2027.10654464
0.34600002 32122.61217289  1839.18024706
0.34700002 31704.78700196  1985.98795186
0.34800002 31297.11976044  1638.40429706
0.34900002 30898.07284654  2757.65313216
0.35000002 30508.41801334  1766.89511293
0.35100002 30128.45457401  1749.86072454
0.35200002 29755.81201372  2205.79844905
0.35300002 29393.46155742  2029.03074741
0.35400002 29039.45272423  2010.25621005
0.35500002 28694.52341860  1838.74514775
0.35600002 28357.91374171  3492.70261143
0.35700002 28030.23719470  2257.83571297
0.35800002 27711.37487056  1790.70912895
0.35900002 27401.73365464  2071.57116241
0.36000002 27100.36655516  2347.97586955
0.36100002 26806.92161352  1601.17750382
0.36200002 26523.62463818  1444.21142996
0.36300002 26247.20592487  1576.40726252
0.36400002 25979.86850460  2560.31616240
0.36500002 25719.88403847  1553.22387066
0.36600002 25469.39747329  1962.92655625
0.36700002 25226.35760190  2227.99200894
0.36800002 24992.41164669  1798.32906522
0.36900002 24766.22422853  1924.33571371
0.37000002 24547.44126929  1639.27820561
0.37100002 24336.58257935  1901.17392116
0.37200002 24134.34781675  2160.50691890
0.37300002 23939.61356215  1477.31362290
0.37400002 23752.50385596  1469.68624571
0.37500002 23573.29344036  1595.44057562
0.37600002 23401.80877675  1852.72128862
0.37700002 23237.65718173  1976.36283693
0.37800002 23081.09797485  1443.37653023
0.37900002 22932.40468567  1699.29126771
0.38000002 22790.38971598  1432.71791737
0.38100002 22654.96097298  2206.81985292
0.38200002 22527.89791226  2070.76447419
0.38300002 22407.02679295  1677.83824574
0.38400002 22293.55786766  1544.94363342
0.38500002 22186.35770982  1413.04918948
0.38600002 22086.87934806  1410.35774759
0.38700002 21993.15397675  1536.00194650
0.38800002 21906.16891261  1406.04751827
0.38900002 21825.58850199  1532.15638543
0.39000002 21752.01658172  1530.90699955
0.39100002 21683.92218866  1402.51615361
0.39200002 21622.69384582  1911.98679390
0.39300002 21566.93696069  2166.83025910
0.39400002 21518.34287711  1274.96187587
0.39500002 21474.39406777  1275.57906806
0.39600002 21436.49240310  1787.16045632
0.39700002 21403.61733288  1277.79601531
0.39800002 21377.52447923  1791.22286098
0.39900002 21355.82577318  1537.61952852
0.40000002 21339.79597164  2053.74206162
0.40100002 21328.59862571  1414.72601387
0.40200002 21323.11863997  1675.67735771
0.40300002 21322.26812883  1679.76836278
0.40400002 21326.26167402  1943.35568712
0.40500002 21334.63977696  2078.84739836
0.40600002 21348.46289380  1694.32083784
0.40700002 21366.32545371  1438.38109770
0.40800002 21388.39402895  1705.83144660
0.40900002 21414.47359917  1712.08724537
0.41000002 21445.37031895  2115.37142849
0.41100002 21479.91438107  1991.18815747
0.41200002 21517.62274538  1732.92182991
0.41300002 21560.32667676  1472.78598507
0.41400002 21606.06028042  1344.97731619
0.41500002 21655.20091775  1891.79844181
0.41600002 21707.03971416  1765.10801799
0.41700002 21763.37886777  1501.02031163
0.41800002 21823.30165961  1508.75403173
0.41900002 21884.34322387  1516.58505728
0.42000002 21948.92970190  1524.68247399
0.42100002 22017.00512056  1811.77943722
0.42200002 22087.38245835  1821.87782841
0.42300002 22159.96439600  1550.31118261
0.42400002 22234.80529473  2126.20335706
0.42500002 22312.55235219  1710.92659544
0.42600002 22391.10888892  2151.22588844
0.42700002 22473.03256795  2452.70689069
0.42800002 22556.03564001  2177.22144332
0.42900002 22641.78723611  1752.47441512
0.43000002 22728.92498655  2057.19509802
0.43100002 22816.13930813  1626.33448695
0.43200002 22906.19107752  1636.53289908
0.43300002 22996.73173513  1646.79603759
0.43400002 23088.96519442  1807.86606039
0.43500002 23181.80879641  1819.30844056
0.43600002 23276.15943975  2288.62848537
0.43700002 23370.74655841  1996.09555815
0.43800002 23465.48378065  2008.76283424
0.43900002 23561.99477245  2021.61924728
0.44000002 23658.19969575  1877.98798085
0.44100002 23755.20049295  1732.46685405
0.44200002 23852.29210125  2218.97883934
0.44300002 23949.74920304  1914.06404702
0.44400002 24046.89034019  2568.20801004
0.44500002 24143.55560414  2745.84670899
0.44600002 24240.08485076  1787.82754289
0.44700002 24337.20387374  2453.19026673
0.44800002 24432.99856989  1810.11878483
0.44900002 24528.91304396  1986.84205072
0.45000002 24624.57128177  1832.43755878
0.45100002 24718.41655875  1843.49959432
0.45200002 24812.21453571  1854.58906337
0.45300002 24904.71467674  1696.01114986
0.45400002 24996.52404254  1876.61413143
0.45500002 25087.55317222  2745.58194929
0.45600002 25176.99348512  2416.23617928
0.45700002 25265.55091336  2082.89211601
0.45800002 25352.39809718  2094.61523006
0.45900002 25437.92067110  1755.21660949
0.46000002 25522.58560829  1941.37556631
0.46100002 25604.72771174  2306.73002888
0.46200002 25685.90062953  1962.27447159
0.46300002 25765.25227007  1972.58780729
0.46400002 25842.36175195  2163.00578115
0.46500002 25918.81680942  2174.07045702
0.46600002 25992.14993659  2184.90022722
0.46700002 26063.84508770  3110.45942019
0.46800002 26134.04978360  2206.23658730
0.46900002 26201.42409163  2031.92053461
0.47000002 26266.90939797  2041.33296062
0.47100002 26330.39836936  2050.61152220
0.47200002 26391.73051913  2621.49071672
0.47300002 26450.60544109  2444.82957680
0.47400002 26506.67810426  2832.90135667
0.47500002 26560.70658605  2275.72144816
0.47600002 26612.99323080  2284.99170710
0.47700002 26661.66078633  2293.96940279
