# SAXS profile: number of points = 501, q_min = 0, q_max = 0.5, delta_q = 0.001
#    q    intensity    error
0.00000000 1664650.74656090 299.63713438
0.00100000 1664569.18921203 649.18199921
0.00200000 1664324.44939689 823.84062854
0.00300000 1663916.76118214 1098.18510150
0.00400000 1663345.98717567 1372.26049156
0.00500000 1662612.63646446 1496.35143205
0.00600000 1661716.59834412 2093.76299916
0.00700000 1660658.46562647 3786.30145899
0.00800000 1659438.04800115 3360.36218908
0.00900000 1658056.55999793 2984.50193558
0.01000000 1656513.39544107 3553.22138665
0.01100000 1654809.84921021 3872.25521575
0.01200000 1652945.83010073 3223.24451002
0.01300000 1650922.48428854 3813.63110691
0.01400000 1648739.84969270 5193.53075677
0.01500000 1646399.31075162 4346.49437393
0.01600000 1643900.26852290 5449.52963377
0.01700000 1641245.04142446 7090.17889701
0.01800000 1638433.56796920 5603.44305460
0.01900000 1635466.46526445 5887.67954062
0.02000000 1632344.87677313 6170.26391332
0.02100000 1629070.89156590 6988.71444168
0.02200000 1625643.12564107 6730.16284592
0.02300000 1622064.64988964 6423.37630594
0.02400000 1618335.06326857 6675.63244038
0.02500000 1614456.82617991 6926.02010063
0.02600000 1610430.05891968 8478.91464802
0.02700000 1606256.90300706 6746.27930162
0.02800000 1601937.10492023 6968.42672597
0.02900000 1597473.24270265 7188.62992222
0.03000000 1592866.67793177 8888.19647141
0.03100000 1588117.74939404 8385.26210263
0.03200000 1583227.89843843 7836.97845823
0.03300000 1578200.72001965 8853.70644747
0.03400000 1573034.84740971 9084.27666294
0.03500000 1567733.04848403 10158.91062330
0.03600000 1562296.73340721 10404.89672534
0.03700000 1556727.83773790 10648.01890257
0.03800000 1551027.52970860 14517.61834994
0.03900000 1545198.25131416 12052.54691840
0.04000000 1539239.62984723 9466.32416222
0.04100000 1533155.73652534 9658.88158796
0.04200000 1526947.31538249 11818.57276936
0.04300000 1520615.33915002 10036.06170424
0.04400000 1514163.25111579 11242.66266167
0.04500000 1507592.76466816 14563.34678338
0.04600000 1500903.44600823 12697.64374350
0.04700000 1494099.61035058 11833.26946432
0.04800000 1487181.77895144 14210.02255905
0.04900000 1480153.96631931 13321.38631695
0.05000000 1473015.35421496 15775.99517827
0.05100000 1465770.55749575 12576.31196917
0.05200000 1458418.09697054 12753.86685235
0.05300000 1450963.86243129 17629.21175038
0.05400000 1443407.73092119 11908.11433542
0.05500000 1435752.46485941 21708.57828136
0.05600000 1427998.98264042 13430.33105845
0.05700000 1420152.34904556 13590.85861477
0.05800000 1412211.63250601 22496.53235624
0.05900000 1404179.45921436 13901.37729550
0.06000000 1396059.53704562 14051.33989683
0.06100000 1387853.05597814 12907.03402376
0.06200000 1379562.59389592 13036.86712171
0.06300000 1371190.88945509 13163.43315423
0.06400000 1362736.85000122 19930.02736333
0.06500000 1354206.73067699 17428.64143909
0.06600000 1345601.55732715 24341.93331097
0.06700000 1336922.37340098 16363.93061624
0.06800000 1328172.96696864 16495.90902191
0.06900000 1319355.26427916 16623.87710823
0.07000000 1310470.78872608 15352.16600884
0.07100000 1301522.02071841 19679.01387498
0.07200000 1292511.68275684 15568.30394813
0.07300000 1283442.37422262 18520.07432780
0.07400000 1274316.44437741 15769.66673820
0.07500000 1265135.17700431 17307.05003264
0.07600000 1255900.12860616 20307.90603161
0.07700000 1246616.49585120 17502.49642242
0.07800000 1237284.17645321 17594.18181427
0.07900000 1227905.96483435 22102.30840370
0.08000000 1218485.16365381 17765.51451947
0.08100000 1209023.22045877 17845.18357124
0.08200000 1199521.63528354 19414.25857808
0.08300000 1189984.23096845 16493.18221528
0.08400000 1180412.28446727 16555.28306674
0.08500000 1170808.24792977 22655.14066099
0.08600000 1161174.08607913 19699.31929525
0.08700000 1151513.51794518 22799.96872595
0.08800000 1141826.26133664 19816.39569615
0.08900000 1132117.47073797 18340.30388739
0.09000000 1122386.62418749 18384.69376782
0.09100000 1112637.19965021 16889.83348419
0.09200000 1102871.10729086 21539.07373744
0.09300000 1093092.69322788 16953.86846866
0.09400000 1083299.09437904 21611.81794856
0.09500000 1073496.11660321 21641.68272794
0.09600000 1063684.81414268 17024.27625063
0.09700000 1053869.81542915 17041.07571664
0.09800000 1044050.51411572 20155.39612266
0.09900000 1034229.84507656 23270.17260844
0.10000000 1024408.78754302 20175.73201947
0.10100000 1014589.49316242 23284.82996320
0.10200000 1004775.39432605 18628.53668702
0.10300000 994967.09992911 15521.48748904
0.10400000 985167.78750397 18619.67205979
0.10500000 975380.38539099 15508.54885738
0.10600001 965601.95517244 20147.28574267
0.10700001 955839.78505155 17033.06577115
0.10800001 946092.78822117 18562.34137847
0.10900001 936364.84582811 16995.02275166
0.11000001 926655.63642241 20057.46219446
0.11100001 916967.75848699 23107.58860162
0.11200001 907303.29852062 21530.30828748
0.11300001 897663.61777463 19955.06316263
0.11400001 888051.05354869 16850.76953450
0.11500001 878467.27452411 16813.86442612
0.11600001 868913.16960764 18299.31221368
0.11700001 859391.64575778 15211.23284628
0.11800001 849901.99572475 15170.75133820
0.11900001 840446.99192362 15128.04656718
0.12000001 831027.77916010 21116.41686315
0.12100001 821648.70457855 18043.40640254
0.12200001 812307.56376858 17984.49030911
0.12300001 803008.60666512 22403.94118151
0.12400001 793750.49482837 23812.51596684
0.12500001 784535.63558278 16310.49663232
0.12600001 775367.44208967 32495.65102929
0.12700001 766244.83103008 23539.04231855
0.12800001 757169.75481291 19046.60607997
0.12900001 748144.01800818 16047.68994264
0.13000001 739168.48524217 17429.59370355
0.13100001 730243.31466909 15904.70014320
0.13200001 721371.19841742 20147.89852158
0.13300001 712552.97287612 17186.77851601
0.13400001 703788.78960178 19952.41312588
0.13500001 695081.14795870 17015.58730428
0.13600001 686430.28547403 18337.98594109
0.13700001 677837.60989351 22449.98269826
0.13800001 669302.09732859 22327.91901977
0.13900001 660827.45807247 15265.11500135
0.14000001 652413.00984457 15178.38938986
0.14100001 644060.99749791 16462.19987245
0.14200001 635770.78140014 15001.01229466
0.14300001 627544.46616850 13554.96110859
0.14400001 619379.38250310 16165.80264587
0.14500001 611281.58487122 13387.06734018
0.14600001 603248.63076181 18622.28611011
0.14700001 595282.81160012 14536.80694507
0.14800001 587381.31284800 19691.95944227
0.14900001 579548.56468678 14343.82765275
0.15000001 571783.02781111 15541.06342918
0.15100001 564085.84907458 19291.73694863
0.15200001 556458.72614615 14047.80120443
0.15300001 548901.12441630 13947.57822959
0.15400001 541411.46486137 20140.50744329
0.15500001 533993.98479796 17493.64376756
0.15600001 526645.36293386 14882.99865891
0.15700001 519370.43659634 14770.89591394
0.15800001 512163.93607173 13436.62149703
0.15900001 505031.35881809 15756.97913886
0.16000001 497968.18694528 16836.30519533
0.16100001 490979.76436887 11930.80883735
0.16200001 484063.08588852 13018.87730954
0.16300001 477218.70835259 11739.58077967
0.16400001 470447.58409136 15136.65173273
0.16500001 463748.39796441 18475.73704717
0.16600001 457122.81918632 14886.20530963
0.16700001 450569.62465292 15896.09710828
0.16800001 444089.94459318 14634.98481508
0.16900001 437684.18083091 17857.51542110
0.17000001 431350.15961425 12170.54532821
0.17100001 425089.95104475 15354.24975678
0.17200001 418902.71680367 11957.57861583
0.17300001 412788.08794220 14005.90048530
0.17400001 406747.41257178 13880.25610952
0.17500001 400778.33714838 12696.65832049
0.17600001 394880.65245641 13629.30636323
0.17700001 389058.19140066 11426.63962112
0.17800001 383306.09617270 13379.29991884
0.17900001 377625.94851239 12235.08130971
0.18000001 372018.70492117 11110.33914727
0.18100001 366483.24548528 14006.99030409
0.18200001 361017.08378664 12882.89524349
0.18300001 355622.62707227 9815.18497086
0.18400001 350298.71134901 13609.10557881
0.18500001 345045.41359093 12514.79774217
0.18600001 339862.36553169 11439.76776425
0.18700001 334748.14003575 14159.84699249
0.18800001 329701.88104008 9347.04876910
0.18900001 324727.65173848 11105.68621417
0.19000001 319817.60891358 15576.71737812
0.19100001 314978.32015544 13607.06407365
0.19200001 310204.76514816 12572.59972553
0.19300001 305500.01230712 12446.07108950
0.19400001 300860.13132399 15840.28666272
0.19500001 296286.74902807 10452.99699967
0.19600001 291777.92939600 12933.05733165
0.19700001 287335.90990314 9387.26462015
0.19800001 282957.09433591 9290.89663160
0.19900001 278642.60442762 11702.98993904
0.20000001 274389.73046024 9100.13584080
0.20100001 270201.49402904 10643.23735283
0.20200001 266074.15227545 11342.74164760
0.20300001 262008.76827778 12026.20303236
0.20400001 258004.80541426 14280.56665466
0.20500001 254060.42590713 10990.65454424
0.20600001 250175.44268536 8544.74264881
0.20700001 246350.17998234 11529.18896815
0.20800001 242582.69066439 9125.96125418
0.20900001 238875.54265595 8277.03794429
0.21000001 235222.50822181 8189.27201087
0.21100001 231627.58864808 7365.75766721
0.21200001 228087.47847861 10931.09292285
0.21300001 224602.65078124 9372.66906020
0.21400001 221172.90723668 7846.10925516
0.21500001 217797.86327372 8467.98132443
0.21600001 214474.44882226 7679.25800315
0.21700001 211204.43036229 7597.02371932
0.21800001 207986.29117117 7515.58498681
0.21900001 204818.52534669 6759.01165602
0.22000001 201700.92564506 9360.94040180
0.22100001 198634.48124164 7275.98139191
0.22200001 195616.82718254 9160.73645012
0.22300001 192647.17757601 8414.82911442
0.22400001 189724.66596317 8324.17011275
0.22500001 186851.45356546 6334.26457540
0.22600001 184022.62826612 7519.16494652
0.22700001 181240.68193938 7438.11793853
0.22800001 178502.92463809 8584.20605179
0.22900001 175809.48716120 6671.97035329
0.23000001 173160.01854726 6599.99441905
0.23100001 170554.62224988 5935.30113499
0.23200001 167989.88587170 6458.37146778
0.23300001 165468.07317390 8711.89446463
0.23400001 162986.27178740 6319.79298745
0.23500001 160544.61679128 6251.60767353
0.23600001 158143.13908090 6746.38663228
0.23700001 155780.94939276 6117.51817200
0.23800001 153456.53632912 5501.41708761
0.23900001 151170.10795525 7618.97380132
0.24000001 148920.32687457 6460.16408539
0.24100001 146708.06968824 5858.05349974
0.24200001 144531.74793806 6321.81895385
0.24300001 142389.70205427 5732.60967587
0.24400001 140282.77179989 6186.47052902
0.24500001 138209.13635784 6629.89258471
0.24600001 136169.22695001 5045.07009716
0.24700001 134162.56664452 6488.10202985
0.24800001 132188.01556683 5430.94487648
0.24900001 130243.82958407 6349.38699260
0.25000001 128331.99043521 7247.54950270
0.25100001 126449.71485764 7647.67911639
0.25200001 124599.30215978 5201.39811474
0.25300001 122776.69421795 5613.35072521
0.25400001 120983.79237681 4627.63027735
0.25500001 119217.68753502 7782.53101049
0.25600001 117480.69269006 4981.76900922
0.25700001 115769.93972062 6272.41563083
0.25800001 114086.15986672 7091.59603285
0.25900001 112429.44460305 4384.74854698
0.26000001 110797.68032040 4771.50232876
0.26100001 109190.56038324 4720.30814871
0.26200001 107609.68219568 4669.72237984
0.26300001 106051.52884663 4619.60481515
0.26400001 104518.18023816 4570.05764716
0.26500001 103008.09312974 9042.05084279
0.26600001 101520.51089902 4879.07598468
0.26700001 100055.91180412 4424.47262935
0.26800001 98613.56014754  5570.68027634
0.26900001 97191.96763904  4723.52985078
0.27000001 95792.26568556  5840.93367658
0.27100001 94413.10212197  4622.46569864
0.27200001 93055.09937245  4953.78844952
0.27300001 91716.87588093  5277.38928794
0.27400001 90397.09314663  3728.88026877
0.27500001 89098.67210973  4426.42223989
0.27600001 87816.83994556  5838.06379587
0.27700001 86555.81318465  4331.25309674
0.27800001 85311.66402567  3927.32263929
0.27900001 84086.19287538  4237.94432149
0.28000001 82877.74756852  4541.28639295
0.28100001 81686.90959906  4146.42772749
0.28200001 80513.36175166  4101.35084174
0.28300001 79356.40272092  4394.75779069
0.28400001 78215.16388278  3678.06825567
0.28500001 77090.89046866  4299.35916493
0.28600001 75982.00882103  3598.12819803
0.28700001 74889.51923412  4205.79559926
0.28800001 73810.81180571  4799.54826484
0.28900001 72748.92590995  3797.49411225
0.29000001 71700.95186023  4068.67070590
0.29100001 70668.23804299  4642.90345920
0.29200001 69649.57205848  3673.31860424
0.29300001 68645.32596846  4843.61442961
0.29400001 67654.23582555  4789.92012319
0.29500001 66678.18092660  4736.81819725
0.29600001 65714.51839994  4098.61470662
0.29700001 64764.61497496  3473.97411171
0.29800001 63828.28602959  3435.23851673
0.29900001 62905.22902966  4529.17670454
0.30000001 61993.91886654  3358.83068320
0.30100001 61096.29728704  2767.66239812
0.30200001 60210.28823733  3010.21350293
0.30300001 59337.51426127  2705.79077841
0.30400001 58476.56560875  2942.83330358
0.30500001 57628.08135739  2645.12905953
0.30600001 56790.49961415  3138.24315725
0.30700001 55965.48682788  2844.16617525
0.30800001 55151.81807999  2556.28688903
0.30900001 54350.01081256  2780.00318468
0.31000001 53559.64893670  2998.26928943
0.31100001 52779.92989460  2964.12100322
0.31200001 52012.50852342  3174.58360803
0.31300001 51255.13276064  2896.94024079
0.31400001 50510.29273474  2625.27258919
0.31500001 49774.92227635  2831.19771313
0.31600002 49051.54817676  2798.88147149
0.31700002 48338.09245470  2766.87254311
0.31800002 47635.32528898  2963.15554990
0.31900002 46943.73224142  3379.94888142
0.32000002 46262.66567763  2450.30220364
0.32100002 45591.50278117  2642.48362632
0.32200002 44931.77479874  2612.33351049
0.32300002 44280.59969365  2582.44469641
0.32400002 43641.15359446  3191.25950770
0.32500002 43011.14227173  2523.89394802
0.32600002 42391.67227346  2495.17394817
0.32700002 41782.28793618  2261.25753018
0.32800002 41183.63268919  2032.41236945
0.32900002 40593.09250471  2210.29399155
0.33000002 40013.86107671  3774.70776342
0.33100002 39443.37210895  2357.13602885
0.33200002 38884.10395104  3107.61773493
0.33300002 38333.90102968  2112.58138579
0.33400002 37794.05365978  2278.98154361
0.33500002 37263.36739565  3380.53285022
0.33600002 36741.98956825  2600.23072488
0.33700002 36230.23264367  2204.24745843
0.33800002 35728.94358731  2180.18024095
0.33900002 35236.17649290  1976.74959487
0.34000002 34753.01519044  1955.37849229
0.34100002 34279.54117645  3341.22703670
0.34200002 33816.00693360  2609.75045870
0.34300002 33361.11843086  3270.72420586
0.34400002 32916.31074145  1703.41916154
0.34500002 32480.23319647  1685.72418273
0.34600002 32054.11938890  1835.25869253
0.34700002 31635.95854202  1651.39711411
0.34800002 31227.86218996  1961.73439568
0.34900002 30828.49316485  1780.34556459
0.35000002 30438.55115461  1762.84877361
0.35100002 30058.27071298  1745.78444569
0.35200002 29685.41112795  1729.02685304
0.35300002 29322.81236017  2024.15383309
0.35400002 28968.57986897  1851.09234130
0.35500002 28623.47874827  2292.74075633
0.35600002 28286.73917206  1666.23044985
0.35700002 27958.89239173  1651.53185180
0.35800002 27639.97982596  1637.25428254
0.35900002 27330.27151462  2213.75209754
0.36000002 27028.88928376  1756.33730885
0.36100002 26735.45848493  1742.08255739
0.36200002 26452.16946103  1872.41690399
0.36300002 26175.79656244  1857.95812801
0.36400002 25908.54350010  1560.34210620
0.36500002 25648.69340645  1548.92466818
0.36600002 25398.32802108  1817.63143093
0.36700002 25155.44972696  1805.15515791
0.36800002 24921.69153532  1517.35726100
0.36900002 24695.73358186  1370.61327872
0.37000002 24477.25676209  1498.37534367
0.37100002 24266.69394498  1624.89790353
0.37200002 24064.73841958  1481.06439619
0.37300002 23870.35182252  1606.95216081
0.37400002 23683.64829458  1731.86686358
0.37500002 23504.78917118  1458.23718926
0.37600002 23333.78901991  1979.28874738
0.37700002 23170.09214843  1839.24200187
0.37800002 23013.97041968  1439.17870837
0.37900002 22865.86432121  1433.68976086
0.38000002 22724.39073944  1298.69899228
0.38100002 22589.54313721  1553.25705970
0.38200002 22463.06844832  1419.55367784
0.38300002 22342.85281065  1415.64322115
0.38400002 22230.06284520  1412.16480914
0.38500002 22123.55028582  1793.33507113
0.38600002 22024.81155996  1789.95652028
0.38700002 21931.77745150  1276.42950815
0.38800002 21845.59086537  1274.69028738
0.38900002 21765.82398345  1273.30076336
0.39000002 21693.11495172  1399.53137741
0.39100002 21625.84446483  1780.23960069
0.39200002 21565.49669836  1398.41469966
0.39300002 21510.63495031  1398.40644437
0.39400002 21463.00174759  1526.01949655
0.39500002 21420.03473057  1654.05516026
0.39600002 21383.07629462  1400.69847904
0.39700002 21351.24443358  1274.66935308
0.39800002 21326.20662259  1659.28558488
0.39900002 21305.52801105  1533.99808947
0.40000002 21290.61713828  1664.81988601
0.40100002 21280.58264803  1539.86303337
0.40200002 21276.21802287  1414.76218446
0.40300002 21276.50846714  1547.22776904
0.40400002 21281.76768606  1810.01442746
0.40500002 21291.29494447  2204.28787004
0.40600002 21306.38689759  1430.83047990
0.40700002 21325.47183725  1566.14272593
0.40800002 21348.83885481  1440.72645838
0.40900002 21376.23678942  1314.63862484
0.41000002 21408.43341369  1847.76197549
0.41100002 21444.30686162  1590.30987221
0.41200002 21483.41956147  1463.98769538
0.41300002 21527.47702559  1470.54202530
0.41400002 21574.61346040  1343.01975155
0.41500002 21625.23094440  1754.23881733
0.41600002 21678.42317244  2033.97815053
0.41700002 21736.24378505  1499.14880489
0.41800002 21797.61847124  2328.96665592
0.41900002 21860.19709855  1790.35022721
0.42000002 21926.29773169  1523.11034410
0.42100002 21995.84200134  1949.27161052
0.42200002 22067.85104659  1540.22573678
0.42300002 22141.92808394  1971.51737002
0.42400002 22218.32923832  2549.55340091
0.42500002 22297.66887853  1567.30321974
0.42600002 22377.84495936  1576.63114132
0.42700002 22461.39368953  2163.03231480
0.42800002 22546.01717762  1741.00352896
0.42900002 22633.41081502  2043.79709345
0.43000002 22722.24604033  1909.69125895
0.43100002 22811.09161029  1773.79056767
0.43200002 22902.81225094  1636.29149881
0.43300002 22995.03530327  1796.37224302
0.43400002 23088.98496638  1506.55634045
0.43500002 23183.47605000  2425.91904883
0.43600002 23279.54886145  1678.57195020
0.43700002 23375.89661957  1996.53542489
0.43800002 23472.34402152  1854.78471248
0.43900002 23570.57470754  1711.22380486
0.44000002 23668.54961260  2035.37702039
0.44100002 23767.26817729  2678.80892321
0.44200002 23866.08707006  2061.67202925
0.44300002 23965.33159998  2713.35497234
0.44400002 24064.23403707  1927.54523772
0.44500002 24162.67582387  2263.07632491
0.44600002 24260.97164677  1626.69822601
0.44700002 24359.82724478  1964.37656211
0.44800002 24457.38660549  2141.36658573
0.44900002 24555.06115418  1823.21337710
0.45000002 24652.45164767  1667.73843300
0.45100002 24748.10982335  2181.29850321
0.45200002 24843.67696127  2025.75351543
0.45300002 24937.94441989  1868.10150503
0.45400002 25031.53067395  2220.92266430
0.45500002 25124.28556490  2062.20145690
0.45600002 25215.46605723  1728.52028014
0.45700002 25305.82841926  2260.06364324
0.45800002 25394.42090244  2098.08715440
0.45900002 25481.65732760  3164.82199008
0.46000002 25568.07529310  2298.44223741
0.46100002 25651.90343588  1955.44469159
0.46200002 25734.81166067  2502.19585636
0.46300002 25815.90688645  2335.82336579
0.46400002 25894.72066825  1986.77253744
0.46500002 25972.85030116  2178.60278652
0.46600002 26047.91141414  2554.51879346
0.46700002 26121.23686080  2200.45309745
0.46800002 26193.11905720  2211.22321561
0.46900002 26262.13398695  2406.92469398
0.47000002 26329.26986696  2418.21190555
0.47100002 26394.39430051  2616.21248707
0.47200002 26457.33350941  2252.57748176
0.47300002 26517.83301317  2639.58522324
0.47400002 26575.45871558  1893.50152323
0.47500002 26631.06393888  1901.45805536
0.47600002 26684.94738434  1909.30807585
0.47700002 26735.12738983  2300.29046965
