# SAXS profile: number of points = 501, q_min = 0, q_max = 0.5, delta_q = 0.001
#    q    intensity    error
0.00000000 1664650.74656090 324.60689558
0.00100000 1664569.12144139 499.37074829
0.00200000 1664324.17762009 823.84049401
0.00300000 1663916.14787926 1098.18469672
0.00400000 1663344.89905063 1621.76133820
0.00500000 1662610.93729445 1645.98489307
0.00600000 1661714.15468106 1919.27992679
0.00700000 1660655.14739153 2590.62213760
0.00800000 1659433.70685863 2464.25915873
0.00900000 1658051.08283485 2735.78440363
0.01000000 1656506.63885220 2733.23607213
0.01100000 1654801.67999207 4170.10041514
0.01200000 1652936.10614097 4834.83832244
0.01300000 1650911.04542989 4160.29601797
0.01400000 1648726.62557754 5193.48910080
0.01500000 1646384.14412151 5136.71875839
0.01600000 1643883.06916462 5449.47261789
0.01700000 1641225.62213208 6203.83312996
0.01800000 1638411.78949431 6070.31595323
0.01900000 1635442.25846833 4906.32699679
0.02000000 1632318.12590930 5655.98256213
0.02100000 1629041.43992587 7526.17179368
0.02200000 1625610.82491713 6730.02912092
0.02300000 1622029.40987364 7007.16736961
0.02400000 1618296.74372438 9709.78090509
0.02500000 1614415.34380486 6925.84214123
0.02600000 1610385.25892656 9130.88483574
0.02700000 1606208.70210928 7420.68454362
0.02800000 1601885.39130095 6968.20177172
0.02900000 1597417.89606370 10063.73320727
0.03000000 1592807.56533202 13331.79993463
0.03100000 1588054.77263285 9147.19591126
0.03200000 1583160.90365791 11754.97025107
0.03300000 1578129.72439871 12877.53914475
0.03400000 1572959.67108047 8258.03865420
0.03500000 1567653.58054966 11851.46161623
0.03600000 1562212.87545713 11271.36641732
0.03700000 1556639.44966432 10647.41432812
0.03800000 1550934.59273732 9072.96778741
0.03900000 1545100.55791271 11124.72453216
0.04000000 1539137.20907628 12305.40255678
0.04100000 1533048.44152297 10624.02619235
0.04200000 1526835.08726234 10832.89544670
0.04300000 1520498.06665118 12042.34524686
0.04400000 1514040.90294059 12263.73188337
0.04500000 1507465.14589632 10401.50998999
0.04600000 1500770.58674826 14812.60637980
0.04700000 1493961.36503079 16134.78349273
0.04800000 1487038.23778601 14208.65102315
0.04900000 1480004.85570498 21090.07017549
0.05000000 1472860.59766377 16901.07614521
0.05100000 1465610.25115282 11431.76049153
0.05200000 1458252.06396367 17389.65667315
0.05300000 1450792.00454283 12926.55736309
0.05400000 1443230.08481062 14287.97850593
0.05500000 1435568.93748915 12058.77963744
0.05600000 1427809.52748580 13428.54923264
0.05700000 1419956.89070821 12353.62552581
0.05800000 1412010.17924555 12496.29066980
0.05900000 1403971.86436941 16426.47158033
0.06000000 1395845.83114962 16603.58693722
0.06100000 1387633.19915236 16776.48616174
0.06200000 1379336.53341423 15641.67702006
0.06300000 1370958.58048671 18425.68418324
0.06400000 1362498.26540111 15941.23045071
0.06500000 1353961.86195821 18765.91228457
0.06600000 1345350.34079652 21633.23449220
0.06700000 1336664.75846798 17724.17552676
0.06800000 1327908.99740541 15118.24464313
0.06900000 1319084.98799096 15235.43232460
0.07000000 1310194.08555094 13953.56766454
0.07100000 1301238.83659083 15458.71810275
0.07200000 1292221.99847139 15564.81470075
0.07300000 1283146.25157497 15667.21646583
0.07400000 1274013.87790376 17199.18815773
0.07500000 1264826.17908772 20186.62676444
0.07600000 1255584.71108538 21753.00613935
0.07700000 1246294.54234118 14581.64682910
0.07800000 1236955.93903142 16123.72142142
0.07900000 1227571.17514772 17677.02575125
0.08000000 1218144.12277203 22200.67767898
0.08100000 1208675.69671394 19326.72529723
0.08200000 1199167.85354951 19408.53262045
0.08300000 1189623.93121658 14989.26223680
0.08400000 1180045.70278087 22568.37512501
0.08500000 1170435.36953812 24157.78716136
0.08600000 1160794.95230579 15148.37483883
0.08700000 1151128.10863362 15194.89174748
0.08800000 1141434.67793732 21333.41513255
0.08900000 1131719.68151062 15278.21641801
0.09000000 1121982.77078839 19909.58520290
0.09100000 1112227.27067890 18418.48446776
0.09200000 1102455.11658269 16917.17455884
0.09300000 1092670.72155106 16947.32368765
0.09400000 1082871.28846706 18517.09990304
0.09500000 1073062.48245415 21632.94066308
0.09600000 1063245.29344932 15470.21974691
0.09700000 1053424.53805881 20130.94386872
0.09800000 1043599.46032621 18596.94325740
0.09900000 1033773.27191389 18607.91976944
0.10000000 1023946.70278938 18615.35193214
0.10100000 1014122.03612480 18619.28145895
0.10200000 1004302.45066662 26378.00510748
0.10300000 994488.70351977 18616.82940564
0.10400000 984684.41062520 18610.53623635
0.10500000 974891.72779658 17050.85712139
0.10600001 965108.19713287 21685.98220998
0.10700001 955341.11113218 20119.48474722
0.10800001 945589.12495520 21644.53608885
0.10900001 935856.42364558 21618.28440369
0.11000001 926142.46472126 18504.32731612
0.11100001 916449.97889274 18475.63244419
0.11200001 906780.99908970 21517.91412140
0.11300001 897136.87351713 18409.24951129
0.11400001 887520.00723982 18371.66501488
0.11500001 877932.05373214 21386.42583596
0.11600001 868373.84036586 24383.93858575
0.11700001 858848.28696477 16721.77693471
0.11800001 849354.77604022 16677.08181301
0.11900001 839895.92344153 16629.94006744
0.12000001 830473.12002938 15073.08783855
0.12100001 821090.45085685 21036.33834193
0.12200001 811746.10655842 20967.40292021
0.12300001 802443.73256804 14925.45412897
0.12400001 793182.40332272 28257.12444978
0.12500001 783964.48880498 20743.70135123
0.12600001 774793.48145168 19187.76147234
0.12700001 765668.03957209 14700.82705258
0.12800001 756590.18071234 19032.02689278
0.12900001 747561.83181759 21866.18461126
0.13000001 738583.94422581 14513.17518811
0.13100001 729656.56610409 17336.64082784
0.13200001 720782.32228218 15817.56880813
0.13300001 711962.19006698 22896.70511197
0.13400001 703196.05882185 18511.63712123
0.13500001 694486.63763414 15584.28088328
0.13600001 685834.14489044 14093.89234204
0.13700001 677239.96774154 18224.52839127
0.13800001 668703.08600364 16730.95200077
0.13900001 660227.54328703 19410.69068801
0.14000001 651811.87571776 16542.98618589
0.14100001 643458.98256005 17817.38006741
0.14200001 635167.98833311 14986.78939158
0.14300001 626941.13092482 17604.50778673
0.14400001 618775.75302169 14804.21058936
0.14500001 610677.59844730 16048.60804424
0.14600001 602644.49375775 13288.31171423
0.14700001 594678.73558888 17162.42911876
0.14800001 586777.25594418 20983.15566252
0.14900001 578944.80283246 16934.13628182
0.15000001 571179.57807466 16818.38346995
0.15100001 563483.18615517 16701.64242571
0.15200001 555856.82279398 12756.91468508
0.15300001 548300.05406551 16465.45140058
0.15400001 540811.42182616 16346.02599608
0.15500001 533395.03258029 13729.58878656
0.15600001 526047.66313466 16104.94996694
0.15700001 518774.41583139 13524.44965904
0.15800001 511569.47396309 14641.11903587
0.15900001 504438.54977041 13317.17834252
0.16000001 497377.44684629 12011.66590832
0.16100001 490391.08596851 15491.45513701
0.16200001 483476.56257030 17731.50376930
0.16300001 476634.55323140 14070.25267562
0.16400001 469865.95295402 12792.10117308
0.16500001 463169.40244223 14992.79426488
0.16600001 456546.74156813 13723.79569948
0.16700001 449996.40784213 14741.88301694
0.16800001 443519.86485502 13491.87492593
0.16900001 437117.34914859 11146.49292960
0.17000001 430786.87921435 14364.58916569
0.17100001 424530.08061915 12048.16425690
0.17200001 418346.41930036 15198.52613090
0.17300001 412235.68997866 11835.28721820
0.17400001 406198.94777848 12795.26745929
0.17500001 400233.93178529 13736.02918759
0.17600001 394340.41759323 13610.66015605
0.17700001 388522.41580178 12448.25879023
0.17800001 382774.75832958 12333.00329589
0.17900001 377099.21939879 10181.67940468
0.18000001 371496.84033018 13111.98159880
0.18100001 365966.17738814 12988.14024902
0.18200001 360505.09085529 10885.45173258
0.18300001 355115.72443843 10781.31390325
0.18400001 349797.10541571 12618.93117400
0.18500001 344549.23680076 10574.21657696
0.18600001 339371.75304820 13327.12937182
0.18700001 334263.10335481 11311.46395193
0.18800001 329222.49212207 10266.80390189
0.18900001 324254.20678087 16634.24159378
0.19000001 319350.19576349 13724.07531138
0.19100001 314516.95179632 13587.13295959
0.19200001 309749.56838599 9863.97547134
0.19300001 305051.21190725 10652.38882315
0.19400001 300417.83962111 14059.55555864
0.19500001 295850.96715547 9567.82072994
0.19600001 291348.81046706 10331.22930738
0.19700001 286913.56797716 11929.86672027
0.19800001 282541.46263528 11807.40828153
0.19900001 278234.02499628 11685.82960212
0.20000001 273988.17192016 9912.89252857
0.20100001 269807.12597862 8175.15630353
0.20200001 265686.85646360 8899.18167785
0.20300001 261628.84570599 8806.42736270
0.20400001 257632.31964566 8714.41362391
0.20500001 253695.36323378 10974.86193224
0.20600001 249818.16619298 10083.91075503
0.20700001 246000.39072208 12280.34008533
0.20800001 242240.66045481 8353.66957066
0.20900001 238541.22332084 7514.04888981
0.21000001 234896.15436187 8921.35636440
0.21100001 231309.15212373 13975.69963199
0.21200001 227777.12553104 7277.47950476
0.21300001 224300.27412613 7920.04305382
0.21400001 220878.62716514 10685.00409426
0.21500001 217511.81858264 7047.38325526
0.21600001 214196.67294941 9063.73264437
0.21700001 210934.91784744 7587.32935370
0.21800001 207725.12254909 10918.03295739
0.21900001 204565.76905182 13501.34139578
0.22000001 201456.56638531 6678.28549144
0.22100001 198398.64932333 7928.01040182
0.22200001 195389.49358053 9150.09041703
0.22300001 192428.42202954 7758.71434311
0.22400001 189514.45346083 10873.39228148
0.22500001 186649.95720192 8225.66400286
0.22600001 183829.76824729 6259.40390482
0.22700001 181056.47111992 9288.19740768
0.22800001 178327.49112974 6738.10457098
0.22900001 175642.68490957 6059.67291595
0.23000001 173002.07971214 6593.97458007
0.23100001 170405.40827768 6523.11933737
0.23200001 167849.37107869 6452.96937630
0.23300001 165336.35541579 8704.95952434
0.23400001 162863.41537159 6315.02922970
0.23500001 160430.47241783 7383.01068986
0.23600001 158037.80253197 7303.71738946
0.23700001 155684.36107880 7781.10473475
0.23800001 153368.81003021 7147.75372954
0.23900001 151091.20717739 6527.14045879
0.24000001 148850.17335440 7533.30762979
0.24100001 146646.64828234 6387.92830134
0.24200001 144479.04249236 7372.76588713
0.24300001 142345.79506643 6251.82761505
0.24400001 140247.51633623 7215.73505683
0.24500001 138182.52000891 8158.29636725
0.24600001 136151.28915459 9584.37045343
0.24700001 134153.25204402 5988.60145454
0.24800001 132187.28780549 5430.91497641
0.24900001 130251.71213536 4884.43943615
0.25000001 128348.29263614 4832.31344636
0.25100001 126474.62672977 6214.96345152
0.25200001 124632.54043725 5675.76616003
0.25300001 122818.27744289 5147.31425115
0.25400001 121033.65994238 6481.35279655
0.25500001 119275.90562540 5496.23399126
0.25600001 117547.14732875 4531.44274392
0.25700001 115844.62386833 4931.50587140
0.25800001 114168.99386951 4879.01218386
0.25900001 112520.27365813 6143.60723242
0.26000001 110896.52237742 4775.75896215
0.26100001 109297.34669143 4724.92452104
0.26200001 107724.33396062 5099.67021100
0.26300001 106174.00494372 6727.18527155
0.26400001 104648.36020508 7071.61327547
0.26500001 103145.87972510 6996.38535281
0.26600001 101665.96481804 4071.72208363
0.26700001 100208.81472505 6848.27072237
0.26800001 98773.80942933  4782.62807889
0.26900001 97359.53222854  5914.59186277
0.27000001 95967.09331589  5851.59379185
0.27100001 94595.06248378  3859.47873198
0.27200001 93244.18824478  4582.01962719
0.27300001 91912.95999842  5288.67196859
0.27400001 90599.98760555  4858.42456527
0.27500001 89308.34483569  4436.83878141
0.27600001 88033.17380613  5486.66781713
0.27700001 86778.69864443  5428.00785710
0.27800001 85541.08084906  4295.87328355
0.27900001 84321.96616171  3541.52274640
0.28000001 83119.77431654  3853.84851858
0.28100001 81935.13178127  4159.02748606
0.28200001 80767.59417884  4457.15989571
0.28300001 79616.54236193  4409.16432469
0.28400001 78481.27253431  5032.61183946
0.28500001 77362.68229690  4314.51699591
0.28600001 76259.48420572  4267.86223558
0.28700001 75172.34343756  4546.42354630
0.28800001 74099.02551826  3854.63148991
0.28900001 73042.39728644  4766.01664853
0.29000001 71999.53642833  3457.05790524
0.29100001 70971.91110321  4662.85478020
0.29200001 69958.03956011  3074.65598421
0.29300001 68958.58575963  3041.07377595
0.29400001 67972.12604396  3308.54339180
0.29500001 67000.65153134  4462.24360322
0.29600001 66041.31911976  3236.35499666
0.29700001 65095.71009720  3200.75621700
0.29800001 64163.42419020  3453.27565339
0.29900001 63244.34702083  4553.59320106
0.30000001 62336.86119816  5066.11694940
0.30100001 61443.03109280  3340.04332832
0.30200001 60560.61782241  3853.47229447
0.30300001 59691.24227369  3538.49700950
0.30400001 58833.62991595  2960.80256569
0.30500001 57988.39035770  4258.66758948
0.30600001 57153.79908970  4474.28537356
0.30700001 56331.72932490  3903.78902703
0.30800001 55520.87345332  3088.07112767
0.30900001 54721.69778580  3562.38269451
0.31000001 53933.80681730  3019.21464858
0.31100001 53156.44704628  3731.58275932
0.31200001 52391.24470647  2459.76905543
0.31300001 51636.00938849  2432.05615735
0.31400001 50893.11227706  2645.16963584
0.31500001 50159.53393471  2377.56202108
0.31600002 49437.89308826  2820.92631318
0.31700002 48725.97687780  3021.49796925
0.31800002 48024.55715912  2987.36771953
0.31900002 47334.17113250  2953.65241852
0.32000002 46654.31792182  2695.68661716
0.32100002 45984.11401132  2443.13609310
0.32200002 45325.25492662  2415.60957569
0.32300002 44674.75649231  3039.67057567
0.32400002 44035.77058276  2146.74391756
0.32500002 43406.27267236  2334.82351760
0.32600002 42787.07343208  3357.92968195
0.32700002 42177.82078592  2490.17865712
0.32800002 41579.16644708  2872.70474586
0.32900002 40988.52506752  3043.39813038
0.33000002 40409.07375557  2407.57272836
0.33100002 39838.22605290  2777.52125194
0.33200002 39278.41866623  2942.93565793
0.33300002 38727.53182866  1940.24943650
0.33400002 38186.81138707  2494.55357199
0.33500002 37655.34331712  2467.17821097
0.33600002 37132.93959769  1877.07018555
0.33700002 36619.88634967  2042.29115844
0.33800002 36117.35899542  2203.88135027
0.33900002 35623.15816416  2180.13738289
0.34000002 35138.41374349  2336.52893253
0.34100002 34663.19131438  3556.44359728
0.34200002 34197.93577580  2111.38065479
0.34300002 33741.00820014  1741.03610558
0.34400002 33294.14930103  1895.26953872
0.34500002 32855.89107728  2387.30915874
0.34600002 32427.43721553  2362.98746181
0.34700002 32006.88484030  2171.98730813
0.34800002 31596.26340733  1654.06446771
0.34900002 31194.23867929  1965.23712987
0.35000002 30801.51793596  2108.20999498
0.35100002 30418.32655102  2087.91403335
0.35200002 30042.47876464  2227.04905630
0.35300002 29676.76659453  1733.42001889
0.35400002 29319.29467662  1717.37776702
0.35500002 28970.90219225  2165.86475048
0.35600002 28630.80656163  2453.08762239
0.35700002 28299.33841240  1975.57690814
0.35800002 27976.81702454  1807.86200176
0.35900002 27663.32096510  2240.72910431
0.36000002 27358.07312490  1481.43972988
0.36100002 27060.78103353  2057.16067161
0.36200002 26773.38701908  1749.37319069
0.36300002 26492.86932325  1591.16180692
0.36400002 26221.38665824  2584.11777757
0.36500002 25957.29474314  1710.06665868
0.36600002 25702.42508966  1556.41042503
0.36700002 25455.04324842  2388.70137158
0.36800002 25216.73537666  1395.74636921
0.36900002 24986.10433703  1525.40174203
0.37000002 24762.84748358  2204.88404438
0.37100002 24547.47906036  1780.67421539
0.37200002 24340.63404047  1634.23024689
0.37300002 24141.25822192  1354.32465040
0.37400002 23949.52558555  1481.87696580
0.37500002 23765.54589809  1742.48990779
0.37600002 23589.36560265  1467.37655682
0.37700002 23420.36509114  1460.72823993
0.37800002 23258.91183801  1851.17688088
0.37900002 23105.42485316  2107.21484643
0.38000002 22958.52645115  1574.49581861
0.38100002 22818.16189543  1438.22881240
0.38200002 22686.10734233  1433.64862142
0.38300002 22560.26086439  1949.20663102
0.38400002 22441.71991796  1425.61032533
0.38500002 22329.50516647  1551.45409247
0.38600002 22224.96713931  1548.19128427
0.38700002 22126.16083648  1545.29114603
0.38800002 22034.03209604  1671.39158383
0.38900002 21948.38724126  1283.98071444
0.39000002 21869.72616257  2052.25520032
0.39100002 21796.45647941  1666.12121222
0.39200002 21730.05858458  1921.48052137
0.39300002 21669.16342407  2177.10095236
0.39400002 21615.44960131  2049.14471929
0.39500002 21566.29502748  1665.34938092
0.39600002 21523.21799471  1666.22000000
0.39700002 21485.17282862  1667.46434223
0.39800002 21453.89929417  1284.01593359
0.39900002 21427.03243336  1542.74640830
0.40000002 21405.88094522  1673.83293982
0.40100002 21389.58529789  1289.79205457
0.40200002 21378.93901683  1292.35692480
0.40300002 21372.97989078  1683.76343557
0.40400002 21371.87865183  1947.51253442
0.40500002 21375.06696162  1822.43829550
0.40600002 21383.89210197  1436.03534215
0.40700002 21396.64787281  1833.26487660
0.40800002 21413.68725079  1839.22168511
0.40900002 21434.73712567  1845.53095396
0.41000002 21460.59348097  1984.56847619
0.41100002 21490.20609759  1726.52323969
0.41200002 21522.94761548  1733.35066834
0.41300002 21560.81556636  1472.81938112
0.41400002 21601.61194117  1479.17044776
0.41500002 21645.91932381  1890.98760173
0.41600002 21692.85167307  1492.57673009
0.41700002 21744.39011706  1908.72265492
0.41800002 21799.55171653  1370.10189031
0.41900002 21855.92524735  1927.69269816
0.42000002 21915.91889212  2352.78358415
0.42100002 21979.24592187  1669.54359934
0.42200002 22045.08069721  1958.26461113
0.42300002 22113.08204775  2109.58812732
0.42400002 22183.41129332  1414.19253696
0.42500002 22256.68319656  1848.86276075
0.42600002 22330.86880089  2574.52598605
0.42700002 22408.41715049  1438.62044923
0.42800002 22487.14288769  1591.75248473
0.42900002 22568.53334748  1455.67046989
0.43000002 22651.47955786  1757.30186737
0.43100002 22734.48556756  1915.15315497
0.43200002 22820.45808070  2075.06435161
0.43300002 22906.87631895  1789.48526284
0.43400002 22995.18181766  1950.56639012
0.43500002 23083.97206171  2113.56858213
0.43600002 23174.50403885  2126.72433643
0.43700002 23265.26845081  2292.79231448
0.43800002 23356.21285431  2614.61137188
0.43900002 23449.09952569  1857.16877044
0.44000002 23541.62211251  2335.91756481
0.44100002 23635.04392651  2350.50522988
0.44200002 23728.62233163  2207.47384012
0.44300002 23822.55587372  1745.24052602
0.44400002 23916.41327493  1915.70479411
0.44500002 24009.72777393  2409.37629630
0.44600002 24102.99485254  1777.71646960
0.44700002 24196.95643026  2276.44976884
0.44800002 24289.60770363  2781.03876582
0.44900002 24382.44135754  2304.14081749
0.45000002 24475.10742982  1821.31520571
0.45100002 24566.07709197  1832.13811635
0.45200002 24656.97506892  2178.07399594
0.45300002 24746.70907459  1853.77606463
0.45400002 24835.83484859  2034.05497050
0.45500002 24924.23330033  1875.29940239
0.45600002 25011.07217484  2057.41089461
0.45700002 25097.17699687  2069.01136968
0.45800002 25181.65758244  2427.26008941
0.45900002 25264.78708291  1917.59743048
0.46000002 25347.13793448  2103.30560549
0.46100002 25427.05028442  1938.30413505
0.46200002 25506.13372709  2479.96149982
0.46300002 25583.47273183  2492.85370114
0.46400002 25658.57533534  2147.62285736
0.46500002 25733.15313819  1978.62223857
0.46600002 25804.66697369  2169.14040862
0.46700002 25874.53288532  2179.67075357
0.46800002 25943.08759757  2007.60592889
0.46900002 26008.79683558  2200.34431658
0.47000002 26072.77392005  2763.06234714
0.47100002 26134.74036347  2775.50955815
0.47200002 26194.72084941  2044.36708559
0.47300002 26252.29903144  2613.15396945
0.47400002 26307.04749483  2436.69038970
0.47500002 26359.94806647  2634.94053361
0.47600002 26411.21545819  2078.69481116
0.47700002 26458.80349585  2845.64445086
