# SAXS profile: number of points = 501, q_min = 0, q_max = 0.5, delta_q = 0.001
#    q    intensity    error
0.00000000 1682732.95097188 328.13292544
0.00100000 1682650.86247279 605.75432488
0.00200000 1682404.53381390 1059.91488986
0.00300000 1681994.19082242 1513.79482567
0.00400000 1681419.70198884 1261.06482441
0.00500000 1680681.58674723 1815.13618553
0.00600000 1679779.71982345 2469.27628867
0.00700000 1678714.69545030 2417.34926191
0.00800000 1677486.31489963 2491.06728280
0.00900000 1676095.84984826 3268.38704692
0.01000000 1674542.61242581 3591.89405875
0.01100000 1672827.98096151 3914.41764588
0.01200000 1670951.80936860 3910.02740535
0.01300000 1668915.24666506 4906.61104160
0.01400000 1666718.37918419 4500.13982329
0.01500000 1664362.53989627 4793.36432834
0.01600000 1661847.17425035 6780.33677405
0.01700000 1659174.57131679 4927.74869786
0.01800000 1656344.68635462 4720.58256853
0.01900000 1653358.18902810 5456.08226999
0.02000000 1650216.13518075 5717.99916706
0.02100000 1646920.68198827 7065.29004606
0.02200000 1643470.37177235 6236.97034424
0.02300000 1639868.33031934 6493.87888366
0.02400000 1636114.24902884 9203.14307043
0.02500000 1632210.53606879 7002.18351953
0.02600000 1628157.21465868 10550.45923355
0.02700000 1623956.49614427 8866.80287506
0.02800000 1619608.16806300 8454.35502500
0.02900000 1615114.76086352 7994.81843335
0.03000000 1610477.70216822 10484.21032302
0.03100000 1605697.33287882 8478.08230770
0.03200000 1600775.05453282 10300.98795036
0.03300000 1595714.51869119 8138.14442050
0.03400000 1590514.16443292 9185.21972341
0.03500000 1585177.04026155 11127.94333650
0.03600000 1579704.45989228 9644.09617333
0.03700000 1574098.32726282 8972.36088035
0.03800000 1568359.87275984 11009.88681631
0.03900000 1562491.52395745 9374.94957790
0.04000000 1556492.83349478 10529.67450653
0.04100000 1550367.96128204 19534.63721791
0.04200000 1544117.73543286 9959.55985559
0.04300000 1537743.04977836 11164.01505960
0.04400000 1531247.45388500 12403.10495249
0.04500000 1524632.34682554 12623.95641829
0.04600000 1517897.68044752 10701.17914462
0.04700000 1511047.54645109 14143.40569256
0.04800000 1504082.54948811 15477.01015435
0.04900000 1497006.74101258 11227.55108021
0.05000000 1489819.39725680 13676.54270368
0.05100000 1482524.98750693 11563.69544124
0.05200000 1475121.96462398 14072.66419832
0.05300000 1467616.36818566 14265.23176378
0.05400000 1460008.21678087 16863.09569021
0.05500000 1452299.90385014 15859.11568986
0.05600000 1444492.79400481 13585.45536157
0.05700000 1436591.73438994 18747.52300890
0.05800000 1428595.63980368 15171.68640312
0.05900000 1420507.50508698 14063.02495719
0.06000000 1412330.78559610 25845.65458389
0.06100000 1404066.69239921 14363.60293447
0.06200000 1395718.05592244 14508.48986949
0.06300000 1387287.17404240 18645.14049089
0.06400000 1378773.42586331 16131.64983703
0.06500000 1370183.00027784 13564.81233728
0.06600000 1361516.52100473 13683.24167632
0.06700000 1352775.72942492 20697.46962882
0.06800000 1343963.70812711 15301.02753325
0.06900000 1335082.90139715 15420.20823309
0.07000000 1326134.55134670 16948.00035986
0.07100000 1317121.29623713 22759.85706500
0.07200000 1308045.81362448 17187.72279622
0.07300000 1298910.88752076 18743.28498515
0.07400000 1289718.57906093 20313.06857216
0.07500000 1280470.41241401 14597.36338573
0.07600000 1271167.72294866 19086.58425486
0.07700000 1261816.05130827 16239.57334179
0.07800000 1252415.06788140 14841.11925039
0.07900000 1242967.58404060 17898.73404970
0.08000000 1233476.96021487 20981.44407752
0.08100000 1223944.77127460 18065.42567161
0.08200000 1214372.44576838 19654.61895706
0.08300000 1204763.50975492 16698.02302887
0.08400000 1195119.80358519 16761.55603205
0.08500000 1185443.28858130 19879.88488277
0.08600000 1175736.39384933 16877.69672614
0.08700000 1166002.52803242 20008.60432059
0.08800000 1156241.52280668 15435.82505439
0.08900000 1146458.40972982 21668.06496164
0.09000000 1136653.00221961 17066.84563005
0.09100000 1126828.57840357 24880.37618006
0.09200000 1116987.04847562 15581.97005838
0.09300000 1107132.69994606 15610.57180281
0.09400000 1097262.82179665 15635.99594545
0.09500000 1087383.31276201 21921.64861566
0.09600000 1077495.05152936 15677.55373672
0.09700000 1067602.65724157 23540.63969889
0.09800000 1057705.82990694 25131.09170019
0.09900000 1047807.05234863 22003.94913400
0.10000000 1037907.80231304 18869.16473341
0.10100000 1028009.83384572 17301.40631734
0.10200000 1018116.73104344 20448.87550485
0.10300000 1008229.28748879 23592.56643705
0.10400000 998350.47461242 20441.22692935
0.10500000 988483.51598053 15716.88864356
0.10600001 978624.95263512 15706.93122886
0.10700001 968782.82742567 23541.42381425
0.10800001 958955.27702160 23518.37927577
0.10900001 949146.71976484 21925.29025850
0.11000001 939356.70854154 15640.28993340
0.11100001 929588.04773206 17178.78793075
0.11200001 919842.32743324 15591.32818399
0.11300001 910121.26742148 18675.68928676
0.11400001 900427.23138470 27958.26685089
0.11500001 890761.94043999 17049.18434283
0.11600001 881125.97978025 18556.51400803
0.11700001 871522.72030205 16968.54816341
0.11800001 861950.99412637 21540.15635772
0.11900001 852413.85435139 21480.83014144
0.12000001 842912.48361892 15298.86229833
0.12100001 833451.35048704 19827.80856214
0.12200001 824027.78306662 24325.30130212
0.12300001 814646.68395818 16667.67193907
0.12400001 805306.10043399 15099.49009459
0.12500001 796008.95061044 19557.94083808
0.12600001 786758.30063748 14987.74633342
0.12700001 777553.32664204 17914.82949009
0.12800001 768395.85706227 17842.15264187
0.12900001 759287.64282498 20728.55362610
0.13000001 750229.78461136 16216.21755872
0.13100001 741222.10527253 19079.05788906
0.13200001 732268.03190477 16069.62271768
0.13300001 723367.62369643 18901.59689827
0.13400001 714521.00918240 15915.95622991
0.13500001 705731.35366741 18715.99638169
0.13600001 696998.68112567 15755.65592974
0.13700001 688323.93849985 15673.13681868
0.13800001 679706.55234844 15589.07051323
0.13900001 671150.53944265 15503.57819225
0.14000001 662654.48859322 16818.17171365
0.14100001 654221.07009842 15328.40039534
0.14200001 645849.63383257 13853.47529911
0.14300001 637542.36795239 15148.00737704
0.14400001 629296.21124013 24636.94783217
0.14500001 621117.80963792 13602.48067273
0.14600001 613004.15671809 16220.09075193
0.14700001 604958.11775054 16116.08501718
0.14800001 596976.65725510 18679.40048678
0.14900001 589063.76458692 21206.29652566
0.15000001 581218.55565955 18430.44126957
0.15100001 573441.99807562 14381.92599035
0.15200001 565735.67867280 15580.36132584
0.15300001 558099.17844631 14181.30079352
0.15400001 550530.76049196 15359.80894257
0.15500001 543034.86768216 13977.71815379
0.15600001 535607.90382211 12613.56673031
0.15700001 528255.04729438 13771.60973294
0.15800001 520970.95355566 13667.67361163
0.15900001 513760.92078377 13563.28894889
0.16000001 506620.89208197 17128.85316981
0.16100001 499555.68793904 15780.96492692
0.16200001 492562.57969079 15656.10233453
0.16300001 485642.05706711 14336.15420140
0.16400001 478795.27168555 14220.22024039
0.16500001 472020.73368494 11753.31682364
0.16600001 465320.28287351 13987.52836357
0.16700001 458692.25218378 12714.94983087
0.16800001 452138.04527488 11461.69998890
0.16900001 445658.47155055 12500.72071725
0.17000001 439250.88826198 13520.14297912
0.17100001 432917.55399417 12286.20076252
0.17200001 426657.28318358 12178.93272360
0.17300001 420470.46229587 16461.41937627
0.17400001 414357.54010788 11964.57453565
0.17500001 408316.83183931 14013.43433055
0.17600001 402347.92005851 13887.03911669
0.17700001 396454.70794624 11643.87532233
0.17800001 390632.21097123 10488.47535997
0.17900001 384881.78681845 11430.98960843
0.18000001 379205.23496998 10295.42261574
0.18100001 373600.70142288 12239.15955675
0.18200001 368065.71155599 15155.10638921
0.18300001 362603.02594411 13010.19718547
0.18400001 357211.29625888 9912.61393946
0.18500001 351890.66370189 12763.07497542
0.18600001 346640.71204677 14584.90864841
0.18700001 341459.87338268 13480.83643805
0.18800001 336347.55731471 13349.63518054
0.18900001 331307.71924848 11330.72453365
0.19000001 326332.75341056 12154.26397505
0.19100001 321428.88971921 9257.15246131
0.19200001 316591.08085465 11914.90589096
0.19300001 311822.81492465 13611.06651462
0.19400001 307119.74946518 8983.25309635
0.19500001 302483.74699780 11560.92935657
0.19600001 297912.60196846 9683.64958460
0.19700001 293408.91967143 11328.51892387
0.19800001 288968.92332134 9488.29504566
0.19900001 284593.64874334 9391.59085238
0.20000001 280280.50299883 8450.45756479
0.20100001 276032.55267216 9200.16541538
0.20200001 271845.96864313 9105.48115006
0.20300001 267721.82813880 9011.51716108
0.20400001 263659.50540817 8918.28319196
0.20500001 259657.41780931 8825.75604850
0.20600001 255715.24273563 7939.95866225
0.20700001 251833.13500533 11000.07185700
0.20800001 248009.52930620 10107.62884466
0.20900001 244246.57140398 9232.52083550
0.21000001 240538.29605729 9896.94865913
0.21100001 236888.73048137 9792.98058105
0.21200001 233294.36158747 8944.50624611
0.21300001 229755.77352177 7375.16067871
0.21400001 226272.86270542 9486.49021741
0.21500001 222845.13490647 7942.20098355
0.21600001 219469.54283637 9286.85414419
0.21700001 216147.88906484 9895.25082923
0.21800001 212878.61421219 9790.28793051
0.21900001 209660.03191398 7610.65951832
0.22000001 206492.20226685 6845.21682881
0.22100001 203376.14328763 7449.66848087
0.22200001 200309.37088595 8040.41852755
0.22300001 197291.09292590 13257.96207153
0.22400001 194320.31709336 11149.12872043
0.22500001 191399.56203493 7137.29000579
0.22600001 188523.56440838 7061.15043883
0.22700001 185695.03207127 7620.92447659
0.22800001 182911.03890793 9424.49172542
0.22900001 180171.96153865 6837.52626374
0.23000001 177477.36640076 6764.55014027
0.23100001 174827.23714633 7300.78576850
0.23200001 172218.43197163 7824.74482669
0.23300001 169652.88685912 8336.74325454
0.23400001 167127.81315290 5891.25569227
0.23500001 164643.48491630 7576.89353421
0.23600001 162199.84231861 8072.68653401
0.23700001 159795.74515237 6275.17920894
0.23800001 157430.05372312 6772.64123151
0.23900001 155102.82032752 7817.18251426
0.24000001 152812.72138581 5524.18013939
0.24100001 150560.62196721 7651.49117030
0.24200001 148344.89172848 7029.32302705
0.24300001 146163.87355634 6419.51763026
0.24400001 144018.43067619 8997.55188211
0.24500001 141906.70904952 5759.99359279
0.24600001 139829.09901005 5698.73519973
0.24700001 137785.48691101 6150.74442667
0.24800001 135774.25356167 6085.40233251
0.24900001 133793.75402665 7525.89902003
0.25000001 131846.03040895 5956.80393568
0.25100001 129928.50197901 5893.55712859
0.25200001 128043.18987071 6317.01107113
0.25300001 126185.92521539 5769.22077379
0.25400001 124358.94491002 7610.76778857
0.25500001 122559.07228460 5176.89545823
0.25600001 120788.91751589 5587.69558865
0.25700001 119045.36167903 5528.46685794
0.25800001 117329.04650091 4558.23367223
0.25900001 115640.38635104 5411.97033730
0.26000001 113976.93003889 5354.63642658
0.26100001 112338.69183026 4856.40187761
0.26200001 110726.87782035 5241.81064404
0.26300001 109138.31447725 5186.25294936
0.26400001 107574.86910125 6841.76199858
0.26500001 106035.10200079 4653.88084703
0.26600001 104518.19207178 4604.54916961
0.26700001 103024.65169672 4141.59119419
0.26800001 101553.76778310 5327.00314114
0.26900001 100103.89691082 4459.62881841
0.27000001 98676.28082595  4412.31010593
0.27100001 97269.64642513  5159.18229054
0.27200001 95884.48105988  5104.41059078
0.27300001 94519.48777028  5827.12669680
0.27400001 93173.10865055  4996.40818784
0.27500001 91848.51813859  4182.78171398
0.27600001 90541.00367099  4514.37465668
0.27700001 89254.46441716  4466.29361081
0.27800001 87985.11896730  4418.61288366
0.27900001 86734.82342680  4007.14903197
0.28000001 85501.74593963  4324.67851431
0.28100001 84286.59700689  4278.38786656
0.28200001 83089.10038498  3879.84572611
0.28300001 81908.61474918  4885.03001485
0.28400001 80743.97377187  3796.98554634
0.28500001 79596.63376181  4097.63490000
0.28600001 78464.96202847  4053.50013025
0.28700001 77349.93727532  4009.82093815
0.28800001 76248.96445253  4297.01059511
0.28900001 75165.17477624  4904.52788630
0.29000001 74095.39990520  4851.39653843
0.29100001 73041.27361175  4478.89110988
0.29200001 72001.40270776  5696.03123783
0.29300001 70976.18448566  3443.05487238
0.29400001 69964.38719848  3405.51670809
0.29500001 68967.85634400  3980.82485662
0.29600001 67983.95938298  3331.55408727
0.29700001 67014.02413245  3594.63242463
0.29800001 66057.92300480  3555.23758442
0.29900001 65115.32098413  4395.28437450
0.30000001 64184.52067380  3477.51749473
0.30100001 63267.81317662  3439.23848710
0.30200001 62362.85650024  2834.39196212
0.30300001 61471.29580391  5606.18244272
0.30400001 60591.84558340  3603.70018668
0.30500001 59725.01718171  4386.20546948
0.30600001 58869.23839329  4337.48569017
0.30700001 58026.21580320  2948.89242673
0.30800001 57194.77248240  3446.27117909
0.30900001 56375.37076810  2883.60035131
0.31000001 55567.63571692  3369.89942760
0.31100001 54770.54595428  3588.56634083
0.31200001 53985.94972174  3041.56855133
0.31300001 53211.60876310  3258.14695883
0.31400001 52449.93419618  2726.08545892
0.31500001 51697.82286173  2940.57230360
0.31600002 50957.94045135  2665.35520151
0.31700002 50228.16030311  2635.47169589
0.31800002 49509.06278672  3790.41402642
0.31900002 48801.31611224  3279.44859802
0.32000002 48104.32474724  2779.46801550
0.32100002 47417.29877420  2519.28120316
0.32200002 46741.82461444  4076.35471764
0.32300002 46075.05026647  3358.87132347
0.32400002 45420.19456446  2878.50496682
0.32500002 44774.63414747  2846.32362753
0.32600002 44139.80815309  2165.05769243
0.32700002 43515.29081466  2569.14289135
0.32800002 42901.55725937  2328.91114611
0.32900002 42295.99599423  2512.38228103
0.33000002 41701.82259582  2484.59470791
0.33100002 41116.50020319  2047.60180708
0.33200002 40542.52499297  2430.11906316
0.33300002 39977.63346259  2603.74339072
0.33400002 39423.12424607  2179.11329590
0.33500002 38878.02661795  3331.06947837
0.33600002 38342.23095940  1938.19986678
0.33700002 37816.09573964  2492.45898823
0.33800002 37300.44908097  2655.41909583
0.33900002 36793.51587628  3377.64491740
0.34000002 36296.15568244  1856.54845108
0.34100002 35808.64091138  1836.98336575
0.34200002 35331.05636676  2726.67440424
0.34300002 34862.09327858  1798.88409837
0.34400002 34403.28514816  1780.37009073
0.34500002 33953.33230462  2467.04924209
0.34600002 33513.41040334  1918.81040352
0.34700002 33081.35828782  2417.58577817
0.34800002 32659.60418323  2564.59553995
0.34900002 32246.45048026  2031.52647647
0.35000002 31842.84231869  1844.17830023
0.35100002 31448.91299597  1992.60322180
0.35200002 31062.37990374  2796.08025947
0.35300002 30686.20945176  3095.93181822
0.35400002 30318.33215492  1775.89639009
0.35500002 29959.67380510  2399.76998545
0.35600002 29609.50815710  2378.38385537
0.35700002 29268.14216346  1728.86923948
0.35800002 28935.79307524  2181.46954327
0.35900002 28612.63917844  1699.59084770
0.36000002 28297.84044227  1838.79375903
0.36100002 27991.00230426  1671.90264683
0.36200002 27694.36594476  1960.34578625
0.36300002 27404.56528402  2543.69187015
0.36400002 27123.92086278  1930.54515885
0.36500002 26850.79505722  1474.10871847
0.36600002 26587.07785421  1609.98057572
0.36700002 26330.91498221  1744.15989104
0.36800002 26083.80782585  1443.73883155
0.36900002 25844.55612583  1721.24751951
0.37000002 25612.71004417  2138.02107221
0.37100002 25388.89227969  1841.71033321
0.37200002 25173.68396438  1549.31445298
0.37300002 24966.00705659  1400.59306222
0.37400002 24766.02955432  1671.70707411
0.37500002 24573.89485301  1801.75805597
0.37600002 24389.63907611  1793.00440162
0.37700002 24212.76063127  1647.43631139
0.37800002 24043.34576641  1640.23712589
0.37900002 23881.98069715  1633.52755707
0.38000002 23727.27252713  1762.81779591
0.38100002 23579.19732843  2161.74091348
0.38200002 23439.46607035  1615.91686744
0.38300002 23306.06299677  1342.42929221
0.38400002 23180.03247795  1606.37632682
0.38500002 23060.26690825  1602.22742069
0.38600002 22948.31808791  1332.14992811
0.38700002 22842.16578144  1595.29693375
0.38800002 22742.70179510  1459.74038387
0.38900002 22649.72420072  1722.51160707
0.39000002 22563.80973807  1985.05125575
0.39100002 22483.29524675  1718.62317008
0.39200002 22409.86602535  1453.16783126
0.39300002 22341.76776910  1716.51809902
0.39400002 22280.99940797  2244.25377169
0.39500002 22224.82041464  1452.16983469
0.39600002 22174.71083923  2112.80654886
0.39700002 22129.70845445  1585.37238879
0.39800002 22091.58835195  1454.39978806
0.39900002 22057.75437151  1852.85145499
0.40000002 22029.72283935  1855.12304820
0.40100002 22006.53057222  1459.69324201
0.40200002 21989.07381419  2126.78332007
0.40300002 21976.29079457  1598.11594230
0.40400002 21968.50598717  1334.58680195
0.40500002 21964.98946404  1738.96829826
0.40600002 21967.01472512  1609.30357501
0.40700002 21973.10537686  1344.75411278
0.40800002 21983.41841615  1618.41934048
0.40900002 21997.88961520  2164.59244070
0.41000002 22017.13063027  1493.09178444
0.41100002 22040.14648576  1634.49734083
0.41200002 22066.22946354  1503.70327804
0.41300002 22097.48238564  1372.25372117
0.41400002 22131.76722874  1928.78360538
0.41500002 22169.52504461  1660.05411400
0.41600002 22209.86853031  2083.84101360
0.41700002 22254.94638614  1674.46224544
0.41800002 22303.63272746  1541.96172168
0.41900002 22353.42554056  1689.91905094
0.42000002 22406.85943530  2546.98783270
0.42100002 22463.86972591  1990.74822944
0.42200002 22523.17931255  1714.91495412
0.42300002 22584.73878027  2010.94523629
0.42400002 22648.61524162  1588.23421908
0.42500002 22715.50538822  1451.52086309
0.42600002 22783.29134269  2188.90481947
0.42700002 22854.35118520  1613.97435718
0.42800002 22926.65623528  1475.33039865
0.42900002 23001.74854728  1631.97413676
0.43000002 23078.32416124  1641.21510050
0.43100002 23154.97669007  1650.48681668
0.43200002 23234.55994439  2263.62710985
0.43300002 23314.68692610  1669.56480990
0.43400002 23396.63835753  1831.95687021
0.43500002 23479.14688486  1689.08990694
0.43600002 23563.32976583  2162.40687508
0.43700002 23647.75244355  1864.38889100
0.43800002 23732.47056829  1562.78326098
0.43900002 23818.98386619  1729.25831063
0.44000002 23905.27560386  2055.73427297
0.44100002 23992.39318027  2545.11318918
0.44200002 24079.70168356  2240.13475378
0.44300002 24167.43556501  1770.50641340
0.44400002 24254.95234030  2266.62540362
0.44500002 24342.11539739  1628.48759726
0.44600002 24429.13105477  1801.77064633
0.44700002 24516.92055741  2306.55199535
0.44800002 24603.32033703  2154.14381420
0.44900002 24690.03251303  1833.23500097
0.45000002 24776.54831096  2346.58700174
0.45100002 24861.40408126  2528.40491489
0.45200002 24946.22166838  1864.60542697
0.45300002 25029.74763320  2727.24143137
0.45400002 25112.80840374  2056.73910574
0.45500002 25195.09900741  1895.67933916
0.45600002 25275.86484019  2252.45880199
0.45700002 25355.92794696  1741.95233251
0.45800002 25434.32862910  2976.96113548
0.45900002 25511.44362645  2112.34763238
0.46000002 25587.80478401  2123.27614161
0.46100002 25661.73794518  2311.86608105
0.46200002 25734.79736907  1787.28176199
0.46300002 25806.22324981  2155.33586798
0.46400002 25875.42749561  1985.29226869
0.46500002 25944.06231064  1994.83904561
0.46600002 26009.67382489  2004.17551157
0.46700002 26073.71678758  2745.56250786
0.46800002 26136.41669577  2390.30610220
0.46900002 26196.33142875  1846.84145326
0.47000002 26254.48494695  2596.83122918
0.47100002 26310.74962499  2049.08127791
0.47200002 26364.95281429  2618.83088717
0.47300002 26416.85179175  2817.35737713
0.47400002 26465.89883634  2074.26491961
0.47500002 26513.12758816  1893.03739952
0.47600002 26558.69411854  2470.35705053
0.47700002 26600.70807150  2097.99794504
