# SAXS profile: number of points = 501, q_min = 0, q_max = 0.5, delta_q = 0.001
#    q    intensity    error
0.00000000 1664650.74656090 274.66737318
0.00100000 1664569.10895032 699.11904236
0.00200000 1664324.12250814 1572.78634557
0.00300000 1663916.02448497 1098.18461528
0.00400000 1663344.68878287 1372.25942039
0.00500000 1662610.60890358 2693.42929303
0.00600000 1661713.67059811 1919.27936768
0.00700000 1660654.48392187 2789.89964894
0.00800000 1659432.83502882 2464.25786406
0.00900000 1658049.99420418 2984.49011715
0.01000000 1656505.27535522 3006.55720459
0.01100000 1654800.04905840 2978.64021799
0.01200000 1652934.17350848 3223.22177966
0.01300000 1650908.78733106 4160.29032756
0.01400000 1648724.00257904 5564.44375538
0.01500000 1646381.13369985 3951.31489683
0.01600000 1643879.62333403 4611.08254958
0.01700000 1641221.74206112 7533.20813399
0.01800000 1638407.43153939 5603.35366800
0.01900000 1635437.45585737 5396.94384785
0.02000000 1632312.76062938 6170.14251429
0.02100000 1629035.53182723 7526.14449827
0.02200000 1625604.31545180 5608.33514311
0.02300000 1622022.28420589 7591.06463562
0.02400000 1618289.03495901 7889.15940515
0.02500000 1614406.97156753 6925.80622433
0.02600000 1610376.23257332 10435.23846437
0.02700000 1606199.01075519 7420.63976956
0.02800000 1601874.93046994 7664.97189381
0.02900000 1597406.63336017 9344.82923422
0.03000000 1592795.53620121 11850.39933404
0.03100000 1588042.01784325 9147.12244367
0.03200000 1583147.36342425 10971.21173384
0.03300000 1578115.24717056 11267.74338425
0.03400000 1572944.29836839 9083.75374221
0.03500000 1567637.31385530 8465.24188573
0.03600000 1562195.73812377 12138.26144618
0.03700000 1556621.33922726 12421.83886151
0.03800000 1550915.53823075 13609.28447781
0.03900000 1545080.55834250 14832.77404699
0.04000000 1539116.11157734 13251.79033476
0.04100000 1533026.24781199 12555.48555173
0.04200000 1526811.90358791 14771.90585252
0.04300000 1520473.79589640 14049.17852622
0.04400000 1514015.56996480 12263.52668626
0.04500000 1507438.66853309 12481.59275541
0.04600000 1500742.93954554 17986.40496658
0.04700000 1493932.49845740 12907.57738698
0.04800000 1487008.11197080 10929.51013151
0.04900000 1479973.45297486 14429.74183817
0.05000000 1472828.18661893 13520.56338276
0.05100000 1465576.45830886 16004.09567027
0.05200000 1458217.04320583 15070.67384384
0.05300000 1450755.63047284 12926.23327011
0.05400000 1443192.45238080 13096.97211612
0.05500000 1435529.86923295 19293.52234252
0.05600000 1427769.14445764 12207.42675476
0.05700000 1419915.24510192 17294.56849263
0.05800000 1411967.03440541 13745.49972175
0.05900000 1403927.37433662 17689.48574284
0.06000000 1395799.90573117 19157.35460117
0.06100000 1387585.77254558 18066.36760281
0.06200000 1379287.63420685 16944.54937828
0.06300000 1370908.18523193 18425.00687098
0.06400000 1362446.33004272 14612.23757307
0.06500000 1353908.48278714 17424.80298856
0.06600000 1345295.37688263 17576.28492134
0.06700000 1336608.25079641 16360.08575538
0.06800000 1327850.84939067 15117.58262795
0.06900000 1319025.22607482 16619.71862666
0.07000000 1310132.69698985 22324.66220214
0.07100000 1301175.90946240 15457.97052843
0.07200000 1292157.50347176 16978.95039103
0.07300000 1283080.16662063 19939.06672354
0.07400000 1273946.18757002 17198.27433818
0.07500000 1264756.71228180 23069.16351333
0.07600000 1255513.58471327 20301.65561657
0.07700000 1246221.76446249 18955.03392625
0.07800000 1236881.31424828 16122.74868732
0.07900000 1227494.88686156 14729.93933323
0.08000000 1218066.07736360 16279.45388765
0.08100000 1208595.96662860 19325.45041311
0.08200000 1199086.29618718 22392.93763209
0.08300000 1189540.69972093 17985.85622389
0.08400000 1179960.68973763 16548.94945036
0.08500000 1170348.57673690 16607.24708353
0.08600000 1160706.47353543 22720.83028623
0.08700000 1151037.76437032 16713.06912346
0.08800000 1141342.50651236 16760.61549528
0.08900000 1131625.82168736 16804.64424137
0.09000000 1121886.84104040 19907.88292944
0.09100000 1112129.62511627 24555.82327623
0.09200000 1102355.73665772 18453.43589872
0.09300000 1092569.53333477 21567.32360152
0.09400000 1082768.23374868 20058.28247288
0.09500000 1072957.67175993 15450.59119956
0.09600000 1063138.64378406 21656.13519189
0.09700000 1053315.99516259 15483.74585682
0.09800000 1043489.31289901 15495.81702513
0.09900000 1033660.97966863 21706.88159375
0.10000000 1023832.80508425 17062.17449911
0.10100000 1014006.08646875 15514.29385264
0.10200000 1004184.69076185 17066.11962222
0.10300000 994369.25202332 17063.37716739
0.10400000 984562.84568776 24810.98487857
0.10500000 974768.54860596 23248.23097807
0.10600001 964983.14777573 21683.17235079
0.10700001 955214.26989957 23211.70785085
0.10800001 945460.41333069 21641.58987963
0.10900001 935725.92419318 23159.21771378
0.11000001 926010.09135158 15418.06874673
0.11100001 916315.95138867 23091.16306197
0.11200001 906645.12679649 16904.39918493
0.11300001 896999.06792667 16872.55326207
0.11400001 887380.51783681 15307.31465342
0.11500001 877790.72840780 16800.91533285
0.11600001 868230.79539341 21332.43164739
0.11700001 858703.59099577 15199.05427642
0.11800001 849208.27452212 18190.04209698
0.11900001 839747.57952014 16627.00285766
0.12000001 830323.09380028 22605.54729354
0.12100001 820938.85592856 15023.18177121
0.12200001 811592.53135768 19466.04778168
0.12300001 802288.55294750 25368.36523942
0.12400001 793025.52910791 22303.84405706
0.12500001 783806.13118944 17776.72389302
0.12600001 774633.27751597 17708.11755848
0.12700001 765506.38483283 17637.26793773
0.12800001 756426.90318695 20491.60577309
0.12900001 747396.96785781 20403.93818420
0.13000001 738417.51496448 18862.87630887
0.13100001 729488.56335434 17332.64908232
0.13200001 720612.83811113 20126.71751722
0.13300001 711791.08365746 21460.50218398
0.13400001 703023.37046016 22777.95827679
0.13500001 694312.47691922 14163.97519696
0.13600001 685658.78234468 21135.43296233
0.13700001 677062.95884680 14015.20390899
0.13800001 668524.85380493 18120.36701686
0.13900001 660047.73918346 13861.00317651
0.14000001 651630.83665932 15160.19212984
0.14100001 643276.52942637 17812.32793990
0.14200001 634984.33629071 23154.70491494
0.14300001 626756.07857725 13537.93193582
0.14400001 618589.33676740 16145.18245120
0.14500001 610490.10000006 14706.70720275
0.14600001 602455.74216976 13284.14974151
0.14700001 594488.72825741 17156.94550691
0.14800001 586586.27614667 13110.20389040
0.14900001 578752.61456513 13021.93444210
0.15000001 570986.42263711 12932.84308294
0.15100001 563288.82834448 14127.28448147
0.15200001 555661.38608947 14027.67235375
0.15300001 548103.72836221 18991.79508395
0.15400001 540614.23111118 17596.99405309
0.15500001 533196.99179428 17467.53427553
0.15600001 525848.69523993 18575.60603602
0.15700001 518574.35009689 13519.23394509
0.15800001 511368.83905559 13415.76212583
0.15900001 504237.01410516 14522.02669168
0.16000001 497175.22133127 14408.13859428
0.16100001 490188.13169102 16676.20102732
0.16200001 483272.99983318 12997.62794408
0.16300001 476430.40547200 15236.24508626
0.16400001 469661.17381878 12786.52606086
0.16500001 462963.98621306 12680.58418104
0.16600001 456340.82703565 11431.33825695
0.16700001 449790.02714847 15868.59290703
0.16800001 443313.01452519 15733.17962836
0.16900001 436910.05589822 15597.68973206
0.17000001 430579.29278146 15462.10313390
0.17100001 424322.17738055 12042.26396271
0.17200001 418138.31724069 10850.68984480
0.17300001 412027.27009154 13980.08593441
0.17400001 405990.35523673 11722.97206109
0.17500001 400025.14232145 11616.73068165
0.17600001 394131.57157893 15696.29057945
0.17700001 388313.49195783 11404.76779746
0.17800001 382565.93169266 15407.84362667
0.17900001 376890.37579353 10176.04062708
0.18000001 371287.97721457 12096.56286903
0.18100001 365757.49790643 13979.25223031
0.18200001 360296.54155394 14835.21079927
0.18300001 354907.38903381 10774.98884007
0.18400001 349589.10249608 10671.20785781
0.18500001 344341.44221233 10567.83936074
0.18600001 339164.28374568 13318.98205193
0.18700001 334056.02026792 10362.41823828
0.18800001 329015.98828856 14924.16593388
0.18900001 324048.05869724 14776.59217475
0.19000001 319144.57411466 10972.19097648
0.19100001 314312.09060394 12673.06409195
0.19200001 309545.25695883 10753.60273487
0.19300001 304847.60120672 10645.27873716
0.19400001 300214.84892235 9659.41322052
0.19500001 295648.77180244 11299.69659226
0.19600001 291147.46904401 8603.40811682
0.19700001 286712.97305504 11069.98841280
0.19800001 282341.88547256 12641.85851947
0.19900001 278035.40576144 9175.16882375
0.20000001 273790.53562766 10731.22055110
0.20100001 269610.40911088 12253.79367323
0.20200001 265491.39724379 12126.32014224
0.20300001 261434.52451366 9599.87619388
0.20400001 257439.13131790 10291.12976085
0.20500001 253503.44697938 10183.23394649
0.20600001 249627.47389575 10851.30680317
0.20700001 245811.02944330 8436.23492927
0.20800001 242052.77254938 10623.69668938
0.20900001 238354.82216982 9760.63042925
0.21000001 234711.16604805 9657.19138356
0.21100001 231125.64681941 8084.77550794
0.21200001 227595.18222233 9453.16634050
0.21300001 224120.02397928 10791.37966477
0.21400001 220700.01076876 7117.57568379
0.21500001 217334.90875815 7745.81651434
0.21600001 214021.50622689 9752.96049987
0.21700001 210761.65928915 8959.47855998
0.21800001 207553.64644260 10227.20641201
0.21900001 204396.17559770 8768.59634773
0.22000001 201288.93298885 7340.00128849
0.22100001 198232.90470423 6601.15603878
0.22200001 195225.82191676 8489.39526747
0.22300001 192266.83057511 9044.23213791
0.22400001 189355.01993953 8307.95189270
0.22500001 186492.59688418 6322.09933333
0.22600001 183674.66366976 6879.53485307
0.22700001 180903.52048174 8661.66097027
0.22800001 178176.80211232 7956.48547459
0.22900001 175494.36256859 6660.01137444
0.23000001 172856.05591802 5989.46262081
0.23100001 170261.74756605 7110.13091462
0.23200001 167708.19196316 6447.54174495
0.23300001 165197.60536243 6378.27984470
0.23400001 162727.22009370 8030.58869143
0.23500001 160296.83743980 6241.95914513
0.23600001 157906.67022916 8420.37358823
0.23700001 155555.90295020 5553.34599798
0.23800001 153242.99074913 8240.64221731
0.23900001 150967.99437359 6521.81766542
0.24000001 148729.68783074 5376.57846940
0.24100001 146528.96576125 6382.80205047
0.24200001 144364.17071808 7366.90398021
0.24300001 142233.70711949 5205.75392682
0.24400001 140138.30579227 5665.09127963
0.24500001 138076.20746132 6114.01475561
0.24600001 136047.80241495 5544.62844971
0.24700001 134052.75132307 5984.11510215
0.24800001 132089.71521105 6906.97153513
0.24900001 130157.10323975 6345.15908311
0.25000001 128256.70980407 5311.75188783
0.25100001 126386.08694799 6688.35203771
0.25200001 124547.11678946 5671.87596693
0.25300001 122735.88844760 4676.23757109
0.25400001 120954.45186609 4626.50800276
0.25500001 119199.73102385 5950.45085424
0.25600001 117474.15130232 6340.08024575
0.25700001 115774.73725858 5376.57905267
0.25800001 114102.26087115 4432.87304458
0.25900001 112456.83933994 6140.14371848
0.26000001 110836.29510731 7810.63408578
0.26100001 109240.32820798 6439.71765256
0.26200001 107670.56580910 4247.60402215
0.26300001 106123.53460696 5463.23982007
0.26400001 104601.16017497 4989.47557644
0.26500001 103101.97906195 5759.27682292
0.26600001 101625.33785588 4884.11396847
0.26700001 100171.51128000 5234.96342721
0.26800001 98739.82570572  4780.98258691
0.26900001 97328.87934811  5124.36574017
0.27000001 95939.82745984  4679.94500496
0.27100001 94571.13180796  4630.20283243
0.27200001 93223.57765399  4199.25625415
0.27300001 91895.60144998  4532.29127800
0.27400001 90586.07401692  3736.67573004
0.27500001 89297.68541725  4806.00165660
0.27600001 88025.91080253  5486.21515041
0.27700001 86774.82917286  4704.06371209
0.27800001 85540.60757727  5011.82443515
0.27900001 84324.78873674  3541.64129456
0.28000001 83125.93300005  3503.75824178
0.28100001 81944.61532461  3466.25739229
0.28200001 80780.44859026  3772.04322545
0.28300001 79632.86276079  4410.06814842
0.28400001 78500.76698075  4362.68033144
0.28500001 77385.44168294  4647.76984746
0.28600001 76285.46027129  3612.49814213
0.28700001 75201.78738596  3573.58910573
0.28800001 74131.71078778  3534.97079624
0.28900001 73078.35392337  5086.25367382
0.29000001 72038.77382877  3458.94188911
0.29100001 71014.34067240  3421.47109555
0.29200001 70003.77511219  4307.33248654
0.29300001 69007.44082853  3956.19676997
0.29400001 68024.17871956  3612.08406099
0.29500001 67055.83584988  3572.73510320
0.29600001 66099.71943241  3828.16543214
0.29700001 65157.09239808  3203.77438487
0.29800001 64228.03894888  3456.75321987
0.29900001 63312.05594576  2849.04265243
0.30000001 62407.55666795  4790.09223881
0.30100001 61516.76433466  3622.72242317
0.30200001 60637.33839384  3031.56387652
0.30300001 59770.92856908  2998.10991896
0.30400001 58916.29227664  2964.96254919
0.30500001 58073.92717562  3731.83073698
0.30600001 57242.29949861  2899.60881838
0.30700001 56423.04041081  3910.11688559
0.30800001 55614.96716761  4382.18154544
0.30900001 54818.59675510  3568.69081771
0.31000001 54033.47824084  4033.05900684
0.31100001 53258.82309301  2741.76434264
0.31200001 52496.27275162  2957.64014686
0.31300001 51743.71708225  3168.26794695
0.31400001 51003.39791065  5060.81239730
0.31500001 50272.45165970  2859.49718579
0.31600002 49553.28933387  2591.88492133
0.31700002 48843.90735129  3494.78173646
0.31800002 48144.90299971  2534.10708938
0.31900002 47456.94067031  2277.93326003
0.32000002 46779.36318990  2928.15437752
0.32100002 46111.54412739  2449.90645549
0.32200002 45454.90720460  2862.97746585
0.32300002 44806.62629544  3048.64299750
0.32400002 44169.93442551  2583.94128625
0.32500002 43542.46477201  2767.99461663
0.32600002 42925.32856075  2737.13370529
0.32700002 42318.16161503  3539.49120509
0.32800002 41721.53755475  2264.85377341
0.32900002 41132.83140804  2036.07525111
0.33000002 40555.23839815  2416.28121818
0.33100002 39986.26083605  2190.44747233
0.33200002 39428.16170976  2363.32412480
0.33300002 38879.02435600  1947.83921248
0.33400002 38340.08289697  1926.58925681
0.33500002 37810.23976770  2286.76340944
0.33600002 37289.28504322  2261.96813784
0.33700002 36777.92145233  2424.03291772
0.33800002 36276.76846026  2213.60851628
0.33900002 35783.96613747  2007.48059538
0.34000002 35300.61508843  1805.62654728
0.34100002 34826.70573138  2858.57614181
0.34200002 34362.68065396  2121.55200405
0.34300002 33906.98160512  2449.44046716
0.34400002 33461.27240295  2424.26930041
0.34500002 33024.03381302  1713.94743607
0.34600002 32596.66893395  2544.98504755
0.34700002 32177.03969523  2015.56986197
0.34800002 31767.38741042  2328.23193358
0.34900002 31366.15587295  2799.42954425
0.35000002 30974.19826043  1956.94993878
0.35100002 30591.79089240  2261.34528987
0.35200002 30216.60661820  1919.96327546
0.35300002 29851.54461599  2060.65222244
0.35400002 29494.61168966  1884.70577624
0.35500002 29146.75211925  1712.08030058
0.35600002 28806.98745526  1542.61425129
0.35700002 28476.08588722  2140.83223840
0.35800002 28153.80479298  1819.29895189
0.35900002 27840.59071954  1804.07036408
0.36000002 27535.52873133  1789.25874171
0.36100002 27238.32927727  1479.04134981
0.36200002 26951.10177303  1467.48756105
0.36300002 26670.59703076  2038.70053360
0.36400002 26399.11238868  1589.88661892
0.36500002 26134.82415189  1721.76229668
0.36600002 25879.92025718  1709.62761317
0.36700002 25632.38078806  2122.36122978
0.36800002 25393.76521599  2670.53544544
0.36900002 25162.87673066  1815.50164212
0.37000002 24939.24277131  1943.01649635
0.37100002 24723.41198878  1517.52309976
0.37200002 24516.04968200  1783.17495809
0.37300002 24316.16662097  2182.61921929
0.37400002 24123.82994397  2035.44824794
0.37500002 23939.18955554  1485.18739038
0.37600002 23762.23621473  2150.00723456
0.37700002 23592.55281254  1471.46758862
0.37800002 23430.32296998  1731.61810113
0.37900002 23275.88171466  1459.39785264
0.38000002 23128.06744500  1321.76911710
0.38100002 22986.73370342  1448.85389396
0.38200002 22853.68214993  1575.53292205
0.38300002 22726.69716438  1439.96360055
0.38400002 22607.04689062  1697.22412572
0.38500002 22493.62819648  1302.38113428
0.38600002 22387.88557570  2339.31027463
0.38700002 22287.79872350  1686.29493131
0.38800002 22194.42481453  1683.55817407
0.38900002 22107.33806852  1293.27933828
0.39000002 22027.20356631  1550.27466044
0.39100002 21952.49059842  1290.80650834
0.39200002 21884.57348097  1419.10523461
0.39300002 21822.07827225  2321.43279658
0.39400002 21766.73538139  1418.64704569
0.39500002 21716.03857228  1547.91930277
0.39600002 21671.21748378  2451.99001837
0.39700002 21631.42497009  1291.39613190
0.39800002 21598.42423593  1421.93232694
0.39900002 21569.68795375  1553.01760625
0.40000002 21546.65809453  1425.63470037
0.40100002 21528.46883703  1817.43342533
0.40200002 21515.90091062  1820.89078034
0.40300002 21507.92490546  1303.38031102
0.40400002 21504.82058098  1698.34328585
0.40500002 21505.99473238  1702.62968363
0.40600002 21512.69670664  1444.68521578
0.40700002 21523.33016588  1580.67344228
0.40800002 21538.23968197  1717.78238723
0.40900002 21557.15359633  1325.76500899
0.41000002 21580.80966080  1995.68546794
0.41100002 21608.15053692  2136.61402633
0.41200002 21638.56942600  1474.56038340
0.41300002 21674.09507603  1749.74977840
0.41400002 21712.64725207  2297.74100432
0.41500002 21754.58283528  1357.48603324
0.41600002 21799.22056327  1908.95783518
0.41700002 21848.33765393  1780.85808656
0.41800002 21901.12302861  1514.13421233
0.41900002 21954.98378627  1798.11325730
0.42000002 22012.46399659  1390.08716725
0.42100002 22073.36638424  1397.24415833
0.42200002 22136.67728337  2528.23003233
0.42300002 22202.14238251  1553.26195468
0.42400002 22269.94166045  1561.67973294
0.42500002 22340.69106492  1713.08427203
0.42600002 22412.28647316  1435.50701663
0.42700002 22487.28448400  1443.68373228
0.42800002 22563.37945332  1742.34424395
0.42900002 22642.18202808  1606.46289102
0.43000002 22722.53318044  2203.51775959
0.43100002 22802.91892568  1920.91798133
0.43200002 22886.25592545  1783.75487136
0.43300002 22970.04976425  1495.35031051
0.43400002 23055.73377073  1504.38669983
0.43500002 23141.87681799  1664.82669718
0.43600002 23229.75657801  1674.98167743
0.43700002 23317.83127717  1838.37790501
0.43800002 23406.16725108  2311.94427979
0.43900002 23496.30988475  2171.05913624
0.44000002 23586.21100781  1872.27351853
0.44100002 23677.03043629  1569.78719232
0.44200002 23767.94660908  2211.13217783
0.44300002 23859.29207146  2065.73760544
0.44400002 23950.42182120  1758.55980556
0.44500002 24041.10016308  1769.18464484
0.44600002 24131.77845811  1779.83940453
0.44700002 24223.05974567  2116.12659967
0.44800002 24313.12978285  1637.48936848
0.44900002 24403.42425693  2306.12370157
0.45000002 24493.46392126  1988.37949536
0.45100002 24581.83032497  1999.97781002
0.45200002 24670.23053509  1676.34224431
0.45300002 24757.33309013  2023.16935601
0.45400002 24843.93654668  2373.83824954
0.45500002 24929.82979316  2046.24052640
0.45600002 25014.17001244  1714.72143562
0.45700002 25097.78814949  2241.48356586
0.45800002 25179.74366438  1733.62543346
0.45900002 25260.45113492  2091.56545310
0.46000002 25340.42275322  2277.97741136
0.46100002 25417.95059226  1937.61046548
0.46200002 25494.61121192  2124.72099910
0.46300002 25569.57708656  3025.39250427
0.46400002 25642.35011456  1967.40940579
0.46500002 25714.57280349  2336.68334140
0.46600002 25783.81110787  1986.77165908
0.46700002 25851.45425712  2177.72660983
0.46800002 25917.74217828  2734.96987299
0.46900002 25981.26380076  2564.35085868
0.47000002 26043.08413838  2391.92717606
0.47100002 26102.92670560  2032.89602818
0.47200002 26160.77547603  1856.10710800
0.47300002 26216.20906939  1863.97255318
0.47400002 26268.92015556  2058.82671477
0.47500002 26319.80673525  2630.92800596
0.47600002 26369.05129719  2075.37628071
0.47700002 26414.62249632  1893.92852275
