# SAXS profile: number of points = 501, q_min = 0, q_max = 0.5, delta_q = 0.001
#    q    intensity    error
0.00000000 1646666.22097350 296.39991978
0.00100000 1646585.10162360 740.96331333
0.00200000 1646341.66652894 1111.28066010
0.00300000 1645936.15900710 1185.07407670
0.00400000 1645368.44517472 1851.03957116
0.00500000 1644639.01660543 1628.19269089
0.00600000 1643747.77611739 2588.90285278
0.00700000 1642695.32738839 1971.23447479
0.00800000 1641481.42761350 2659.20002501
0.00900000 1640107.35474032 2706.17725100
0.01000000 1638572.47536210 2974.00917120
0.01100000 1636878.07931122 3241.01873815
0.01200000 1635024.07980531 3507.12680495
0.01300000 1633011.56215999 4115.18931814
0.01400000 1630840.68177718 4403.27003600
0.01500000 1628512.73969860 5080.95997411
0.01600000 1626027.21676864 4561.00654693
0.01700000 1623386.28582987 5259.77180204
0.01800000 1620589.94091573 7851.75861705
0.01900000 1617638.86461232 4852.91681281
0.02000000 1614534.24805261 6611.51804485
0.02100000 1611277.96672306 6380.66103751
0.02200000 1607868.73604412 7211.29160878
0.02300000 1604309.69214170 6930.61818552
0.02400000 1600600.36857397 10203.82781493
0.02500000 1596743.27059436 6227.29903972
0.02600000 1592738.46783375 7740.70930772
0.02700000 1588588.12759705 8673.69157394
0.02800000 1584291.97287852 9648.33855730
0.02900000 1579852.56164899 12085.87265153
0.03000000 1575271.30553672 8790.01428893
0.03100000 1570548.46267648 9046.35956127
0.03200000 1565685.44465943 13950.25795444
0.03300000 1560686.05098196 10347.34899503
0.03400000 1555548.88294662 8166.63201228
0.03500000 1550276.46062413 9208.64260134
0.03600000 1544870.32198620 13718.44909322
0.03700000 1539332.26803673 9651.61376695
0.03800000 1533663.81839071 10766.32050336
0.03900000 1527867.00068079 11917.36315720
0.04000000 1521941.78892967 14039.91365347
0.04100000 1515892.07811022 10505.13258839
0.04200000 1509718.56574591 11685.22224098
0.04300000 1503422.25935612 10914.84610957
0.04400000 1497006.74862168 11115.27562473
0.04500000 1490473.46805237 10284.26740742
0.04600000 1483822.17555025 12553.13618871
0.04700000 1477057.10704701 13825.25516494
0.04800000 1470178.97086509 12966.97912636
0.04900000 1463191.32815684 15363.50966078
0.05000000 1456093.67395258 12253.02883689
0.05100000 1448890.74731013 18082.15736877
0.05200000 1441580.77231358 13752.68120876
0.05300000 1434169.71766234 13940.13030554
0.05400000 1426657.64411879 15300.90394671
0.05500000 1419047.00650538 15495.99403392
0.05600000 1411338.96799976 13273.64361344
0.05700000 1403538.32224786 15874.01916560
0.05800000 1395644.58150792 17292.03717229
0.05900000 1387659.85720348 16235.62108758
0.06000000 1379588.14063882 13885.55528425
0.06100000 1371430.54768529 19131.45703425
0.06200000 1363189.53356412 16746.78420264
0.06300000 1354868.23053487 16908.75630765
0.06400000 1346465.19852633 14440.83992955
0.06500000 1337986.47592700 18544.49342382
0.06600000 1329433.60629160 13360.80836836
0.06700000 1320807.08529445 16166.67948059
0.06800000 1312111.13714272 17654.45617664
0.06900000 1303347.78370520 16422.18284355
0.07000000 1294517.95711873 15165.27857781
0.07100000 1285624.57898357 13884.74610335
0.07200000 1276670.23861510 15377.49374451
0.07300000 1267657.44916416 21106.49751754
0.07400000 1258588.73250992 16990.94868515
0.07500000 1249465.29690143 17092.68606279
0.07600000 1240288.81272607 21488.00468785
0.07700000 1231064.07816356 15843.79542886
0.07800000 1221791.35741379 21717.34239649
0.07900000 1212473.10898571 17459.61358832
0.08000000 1203113.19043235 20464.95632929
0.08100000 1193712.35614477 16150.92893641
0.08200000 1184272.54524513 19167.45204423
0.08300000 1174797.47541824 20723.42843897
0.08400000 1165288.25685711 16343.16856955
0.08500000 1155747.73315005 16400.06110330
0.08600000 1146177.30737907 14957.61456358
0.08700000 1136581.05357723 18003.44473406
0.08800000 1126958.59097106 21062.85705444
0.08900000 1117315.15768341 21117.25747209
0.09000000 1107650.24575238 16631.36922124
0.09100000 1097967.24913290 19697.53337486
0.09200000 1088267.67509262 24290.13564938
0.09300000 1078556.55243355 18249.17772474
0.09400000 1068830.75933458 16753.92293996
0.09500000 1059095.99808599 16776.08139820
0.09600000 1049353.17995851 16794.89843473
0.09700000 1039607.03295885 15282.22410295
0.09800000 1029857.07675979 16822.71613984
0.09900000 1020106.27473821 21422.23277683
0.10000000 1010355.58413730 22960.33172928
0.10100000 1000607.00180707 18371.14541721
0.10200000 990863.88729513 26025.04122393
0.10300000 981126.79727258 16836.13663318
0.10400000 971399.46936933 16829.49659857
0.10500000 961684.07450529 15290.77750406
0.10600001 951978.18594432 16807.17566368
0.10700001 942288.83279507 16791.58779058
0.10800001 932614.93867157 16773.08046138
0.10900001 922960.62582162 16751.73614709
0.11000001 913324.97518304 22810.29232887
0.11100001 903711.07347915 19737.05077387
0.11200001 894121.09715677 18186.42397233
0.11300001 884556.07040287 15125.90951603
0.11400001 875018.67071264 18112.88733659
0.11500001 865509.93553226 15059.87358740
0.11600001 856031.43446584 18028.02285882
0.11700001 846585.62297378 19479.93610203
0.11800001 837172.12269069 16437.87540323
0.11900001 827793.45658704 22350.42438059
0.12000001 818450.72500193 16340.36949438
0.12100001 809148.32328089 14807.41501359
0.12200001 799884.26279722 20661.01148142
0.12300001 790662.39767857 17647.58554764
0.12400001 781481.71558493 16118.06114338
0.12500001 772344.30371208 20436.23123919
0.12600001 763254.01470070 14539.98966522
0.12700001 754209.32933598 20273.14772795
0.12800001 745212.15517802 15861.84147052
0.12900001 736264.56045950 17228.59152677
0.13000001 727367.56377694 17151.32796229
0.13100001 718521.16087021 18494.73555260
0.13200001 709727.55215545 14159.06533296
0.13300001 700988.04257152 18316.81841590
0.13400001 692302.82548758 14019.13287706
0.13500001 683674.16843430 20920.43054045
0.13600001 675102.37772736 20810.03177465
0.13700001 666588.78141429 19317.74379628
0.13800001 658132.64100493 15094.27283323
0.13900001 649737.35653827 19102.27918305
0.14000001 641402.24460772 17635.35554718
0.14100001 633129.57852270 16182.79279027
0.14200001 624919.01847942 14744.96493647
0.14300001 616772.13157586 21315.64587267
0.14400001 608686.93880167 15886.72985210
0.14500001 600668.66473693 14470.10881610
0.14600001 592715.39009896 13069.37496822
0.14700001 584829.18944572 14281.52948002
0.14800001 577007.18624670 14185.72234314
0.14900001 569253.93151825 20493.14250154
0.15000001 561567.98474176 15263.41854545
0.15100001 553950.50464760 16419.09373249
0.15200001 546402.85492944 15047.93533482
0.15300001 538924.57329645 18673.73734592
0.15400001 531514.36634976 18536.56440121
0.15500001 524176.16160197 13492.29503638
0.15600001 516906.79004429 14607.78657606
0.15700001 509711.27689160 13288.17361572
0.15800001 502583.91941106 13185.28974808
0.15900001 495530.32127952 16649.81958087
0.16000001 488546.12772819 12978.22849570
0.16100001 481636.69097092 14044.52657167
0.16200001 474798.71831920 19735.00965855
0.16300001 468032.92479411 14967.69364151
0.16400001 461340.20038225 14843.62164806
0.16500001 454719.30453896 12454.76233933
0.16600001 448171.90513898 15717.38945529
0.16700001 441696.88292751 16696.14296296
0.16800001 435295.26167010 12138.20894479
0.16900001 428967.20171903 13126.39699241
0.17000001 422710.78993087 17348.05163793
0.17100001 416527.80408793 11821.05963822
0.17200001 410417.89208952 11715.37928293
0.17300001 404380.11743711 15831.48234530
0.17400001 398416.44267850 13595.96174849
0.17500001 392523.85820563 15543.94551905
0.17600001 386702.45989063 10266.95079500
0.17700001 380956.20843768 13222.99061940
0.17800001 375280.03160024 10076.26932439
0.17900001 369675.72192340 10979.36945972
0.18000001 364143.86509908 13841.10896620
0.18100001 358683.61413942 12729.68206711
0.18200001 353292.46156741 9697.87852813
0.18300001 347972.60277472 12485.25757735
0.18400001 342723.34591323 13314.80261773
0.18500001 337544.22808864 15067.97505372
0.18600001 332435.06500164 14919.68642213
0.18700001 327394.55692947 12002.28502408
0.18800001 322421.53011920 14625.04129718
0.18900001 317520.41491795 10859.19870326
0.19000001 312683.08087313 12541.71896640
0.19100001 307916.27502538 15075.58153757
0.19200001 303214.99306535 10533.68935682
0.19300001 298581.92141722 9557.60775619
0.19400001 294013.55132568 11179.86581745
0.19500001 289511.35762900 9362.79774816
0.19600001 285073.50854601 12635.88386343
0.19700001 280702.00850516 10837.90506056
0.19800001 276393.12277216 9900.40212558
0.19900001 272148.59529468 11430.24154257
0.20000001 267965.11783849 8079.14868466
0.20100001 263846.06348078 12791.25776209
0.20200001 259787.33737586 11865.78719546
0.20300001 255790.34778033 10175.34051564
0.20400001 251854.66401515 14714.60944058
0.20500001 247977.83676170 8428.76706993
0.20600001 244160.19872570 11371.76179317
0.20700001 240401.72553824 9750.69444874
0.20800001 236700.77899904 11130.85465859
0.20900001 233059.74459784 10277.93522262
0.21000001 229472.50056460 7989.08548482
0.21100001 225942.85941107 7903.48159582
0.21200001 222467.76058965 8529.41434423
0.21300001 219047.33572824 9843.98773301
0.21400001 215681.74229172 11129.17842840
0.21500001 212370.35679375 8945.03985105
0.21600001 209110.27686501 8167.84780051
0.21700001 205903.04372409 8079.63581774
0.21800001 202747.28329999 7992.29828557
0.21900001 199641.69547938 8564.62914101
0.22000001 196585.60190712 9775.21951703
0.22100001 193580.52037387 8380.10112323
0.22200001 190623.39903086 7651.62359890
0.22300001 187714.07546915 6937.91255740
0.22400001 184851.44879335 8734.23136850
0.22500001 182037.62917507 6788.18351293
0.22600001 179267.75776031 7324.88092847
0.22700001 176544.27042511 6641.59576747
0.22800001 173864.69337409 7763.92824978
0.22900001 171228.68388983 7679.60683563
0.23000001 168636.36765712 6427.57545722
0.23100001 166087.84254063 5779.85719376
0.23200001 163579.20422893 8003.93084146
0.23300001 161113.13263243 7917.09971199
0.23400001 158686.86691250 7271.82602019
0.23500001 156299.93553285 7746.22517137
0.23600001 153952.85618805 7114.93158525
0.23700001 151644.62385589 7037.82732603
0.23800001 149373.71159824 6426.05737690
0.23900001 147140.25617873 6886.16431488
0.24000001 144943.08730703 6811.60071019
0.24100001 142782.79428945 7774.52351680
0.24200001 140658.07004643 5639.68558528
0.24300001 138567.13588744 6593.02463739
0.24400001 136510.88476165 6521.80782799
0.24500001 134487.38176609 6451.36000850
0.24600001 132497.22730641 5399.92475432
0.24700001 130539.78269692 7769.72823368
0.24800001 128613.93987601 5284.10396978
0.24900001 126718.19392572 5702.31899642
0.25000001 124854.11523226 6581.06072523
0.25100001 123019.12060269 6975.18446816
0.25200001 121215.51602399 5060.14195582
0.25300001 119439.28465997 4550.63696084
0.25400001 117692.29760867 4951.90365617
0.25500001 115971.74513558 5789.30979107
0.25600001 114279.64229098 5727.12454438
0.25700001 112613.37572779 5229.76541624
0.25800001 110973.66490856 4311.32708568
0.25900001 109360.36925881 5118.06552347
0.26000001 107771.70553293 6750.81995400
0.26100001 106207.10306698 5843.51508724
0.26200001 104668.45627388 5367.92203400
0.26300001 103151.81243947 5718.73675224
0.26400001 101659.78087510 4445.07412910
0.26500001 100190.40254612 5596.63615105
0.26600001 98743.13341586  5931.99402066
0.26700001 97318.26347676  3912.19437689
0.26800001 95915.08957407  3870.17404745
0.26900001 94532.40715478  4211.41893804
0.27000001 93171.15448039  4166.14836974
0.27100001 91829.82233129  4870.65400694
0.27200001 90509.36338382  4076.99446656
0.27300001 89208.15652237  4399.74648790
0.27400001 87924.90931736  3626.90268098
0.27500001 86662.61821721  4305.39907679
0.27600001 85416.40054951  4258.86193295
0.27700001 84190.45283505  3861.81625431
0.27800001 82981.17145410  5209.14328457
0.27900001 81789.90368771  3778.69372921
0.28000001 80615.38645349  4417.32030978
0.28100001 79457.92040215  3361.07019209
0.28200001 78317.42338892  3324.57478021
0.28300001 77192.90223963  3288.41779105
0.28400001 76083.91073539  4878.88100683
0.28500001 74991.22683987  3860.54854044
0.28600001 73913.66191037  4454.77661419
0.28700001 72851.90944211  3147.20263686
0.28800001 71803.63447495  3423.95647200
0.28900001 70771.53251981  4617.84271550
0.29000001 69753.26681708  3958.14931289
0.29100001 68749.72650521  3613.48579616
0.29200001 67759.74645247  3573.64919706
0.29300001 66783.72278490  2945.16231423
0.29400001 65820.54423852  3786.32698655
0.29500001 64872.06185492  3168.35165097
0.29600001 63935.39332271  3133.15409810
0.29700001 63012.31844343  3098.31584453
0.29800001 62102.22209378  3342.34175131
0.29900001 61204.95928044  3029.64562780
0.30000001 60319.20862875  2995.75363836
0.30100001 59446.75850841  3500.81977429
0.30200001 58585.39203232  3727.78867149
0.30300001 57736.90663699  3685.92429420
0.30400001 56899.98494106  2863.49187772
0.30500001 56075.18988300  3088.62160498
0.30600001 55260.72073966  3817.13446581
0.30700001 54458.61383291  3270.78450165
0.30800001 53667.44795390  3482.48086260
0.30900001 52887.72445123  2705.20723376
0.31000001 52119.09642458  3160.76275231
0.31100001 51360.83062073  2644.05568554
0.31200001 50614.46958154  3564.52418905
0.31300001 49877.91161453  2819.09969793
0.31400001 49153.40252753  2786.99805527
0.31500001 48438.22238302  2984.76340456
0.31600002 47734.55532521  2723.73385582
0.31700002 47040.50071488  2692.59838841
0.31800002 46356.68664688  2883.61782940
0.31900002 45683.77021239  3508.51371844
0.32000002 45021.20216441  3251.65648029
0.32100002 44368.16396857  2571.57890538
0.32200002 43726.19960635  3177.80170686
0.32300002 43092.47301424  3141.44143149
0.32400002 42469.96195532  2277.45181769
0.32500002 41856.99101182  2660.84904462
0.32600002 41254.10607266  2428.21679842
0.32700002 40660.93635573  2000.51816343
0.32800002 40078.27427964  1977.86292936
0.32900002 39503.36357585  1955.41658960
0.33000002 38939.64856071  2126.68900685
0.33100002 38384.28635643  3058.46008171
0.33200002 37839.92170392  1890.10417862
0.33300002 37304.24731364  2616.52003048
0.33400002 36778.76658868  2587.38635204
0.33500002 36262.14497274  2558.65707044
0.33600002 35754.58003921  2891.83057052
0.33700002 35256.30244035  2323.74300389
0.33800002 34768.35520144  2298.36222944
0.33900002 34288.71970834  2623.08718191
0.34000002 33818.33187095  2421.73085997
0.34100002 33357.28374836  1882.35161107
0.34200002 32906.20954522  1693.02456128
0.34300002 32463.44787721  2177.64818673
0.34400002 32030.56681873  2154.85648478
0.34500002 31606.11661215  2952.64355374
0.34600002 31191.30508606  1785.85825728
0.34700002 30784.39532629  1928.33461457
0.34800002 30387.37106328  1749.85684555
0.34900002 29998.79998727  2519.89931828
0.35000002 29619.44407391  2027.30294566
0.35100002 29249.56060125  1544.37687289
0.35200002 28886.85171811  1988.42653219
0.35300002 28534.20700083  1818.19975621
0.35400002 28189.91672733  1501.11313683
0.35500002 27854.54072513  1487.43254517
0.35600002 27527.24476612  2063.71763786
0.35700002 27208.61624381  1461.10276150
0.35800002 26898.78661657  1883.04964628
0.35900002 26597.99416564  1867.17927887
0.36000002 26305.34667185  1709.32150770
0.36100002 26020.57159929  1695.50052572
0.36200002 25745.62437454  1542.03424495
0.36300002 25477.54701108  1947.50378577
0.36400002 25218.44860952  2209.13620283
0.36500002 24966.58124271  1507.73191267
0.36600002 24723.98860359  1361.05563710
0.36700002 24488.78627344  2027.67159949
0.36800002 24262.53467999  2148.69017304
0.36900002 24044.04840991  2001.66712494
0.37000002 23832.83315770  1856.81611927
0.37100002 23629.40827846  1450.37314884
0.37200002 23434.48463490  1704.50732066
0.37300002 23247.02946093  1695.40593890
0.37400002 23067.05366310  1816.53056202
0.37500002 22894.94167195  1807.78468005
0.37600002 22730.45498238  1671.02947719
0.37700002 22573.13771158  1535.87636265
0.37800002 22423.38140240  1657.20008105
0.37900002 22281.55689616  1651.06344422
0.38000002 22146.21624533  1392.22195022
0.38100002 22017.37981974  1640.07470047
0.38200002 21896.85560118  1257.97441388
0.38300002 21782.38710196  1380.13211216
0.38400002 21675.33353460  1376.92562802
0.38500002 21574.57160681  1374.08453073
0.38600002 21481.36733761  1621.09146293
0.38700002 21393.92671669  1992.20255024
0.38800002 21313.10797458  1243.61990923
0.38900002 21238.70779107  1366.71091110
0.39000002 21171.25812494  1986.71095657
0.39100002 21109.28583489  1489.47127908
0.39200002 21053.91772942  1985.80561432
0.39300002 21004.21842421  1241.34936768
0.39400002 20961.53876992  1738.75972334
0.39500002 20923.51607719  1242.85691387
0.39600002 20891.55745334  1866.13845793
0.39700002 20864.45580738  1743.85129900
0.39800002 20844.14607116  1746.53108205
0.39900002 20828.27643754  1499.63597455
0.40000002 20818.06668537  1377.42744750
0.40100002 20812.67430242  1882.50647985
0.40200002 20812.95321580  1383.95738966
0.40300002 20817.75409517  1640.02274532
0.40400002 20827.44280286  1518.32065227
0.40500002 20841.43867871  2030.78988107
0.40600002 20861.01366937  1655.63442831
0.40700002 20884.55481939  1789.38874171
0.40800002 20912.29313019  1924.45386649
0.40900002 20943.92133359  1545.66146766
0.41000002 20980.40499333  1810.81884077
0.41100002 21020.56343168  1688.79214612
0.41200002 21063.93980772  2087.85781267
0.41300002 21112.27283979  1442.17942602
0.41400002 21163.56318611  1449.17505783
0.41500002 21218.34175056  1588.82950557
0.41600002 21275.76136440  1730.03861732
0.41700002 21337.80411097  2541.97272419
0.41800002 21403.20304553  1614.22965018
0.41900002 21469.90823602  1487.86471126
0.42000002 21540.11948655  1360.25861003
0.42100002 21613.74196560  1504.96492438
0.42200002 21689.82210075  1513.84120526
0.42300002 21767.99280631  1938.22217132
0.42400002 21848.56790253  1532.13089677
0.42500002 21931.84425816  1681.73389741
0.42600002 22016.06875779  1692.15512491
0.42700002 22103.66630409  1560.96098836
0.42800002 22192.33989935  1713.69256823
0.42900002 22283.79470200  1437.30482639
0.43000002 22376.57757361  1591.31038955
0.43100002 22469.49160414  1456.02312495
0.43200002 22565.24935941  1905.29691995
0.43300002 22661.48045297  2360.41991584
0.43400002 22759.41840818  1782.06254581
0.43500002 22857.95145475  1943.38312478
0.43600002 22958.04822655  1956.37017234
0.43700002 23058.38719937  1514.93611079
0.43800002 23158.88964059  1982.51684163
0.43900002 23261.22057675  1688.76469390
0.44000002 23363.20218730  1854.57107752
0.44100002 23465.99255393  1711.37491806
0.44200002 23568.94495860  1879.38776006
0.44300002 23672.18898189  2207.19500527
0.44400002 23775.21160885  1904.39454012
0.44500002 23877.71904419  1757.16142774
0.44600002 23980.08854343  1768.65151434
0.44700002 24083.05345588  1618.38126893
0.44800002 24184.74369483  1954.61107805
0.44900002 24286.50889816  1967.20731398
0.45000002 24387.98759213  2639.75590208
0.45100002 24487.75923034  1992.32418540
0.45200002 24587.43059380  1837.78758683
0.45300002 24685.92776063  2017.33411221
0.45400002 24783.56576488  2368.06982106
0.45500002 24880.50787083  1872.00950092
0.45600002 24975.86527500  2225.72433947
0.45700002 25070.37973760  1894.56868656
0.45800002 25163.15598779  1905.73170906
0.45900002 25254.66222719  2962.37201965
0.46000002 25345.21095952  2804.19427346
0.46100002 25433.30365747  1938.78082970
0.46200002 25520.43353505  2481.35187022
0.46300002 25605.77288387  2495.02662806
0.46400002 25688.77317427  1791.79201383
0.46500002 25771.20466567  1801.40729151
0.46600002 25850.41646214  2535.15046260
0.46700002 25928.05246022  2366.19417967
0.46800002 26004.16005685  2195.27129605
0.46900002 26077.50276011  2022.31043490
0.47000002 26148.92378819  1847.42155320
0.47100002 26218.31860161  2041.88274947
0.47200002 26285.53401385  2610.94221735
0.47300002 26350.31721570  3184.96299282
0.47400002 26412.25798666  2070.06081782
0.47500002 26472.18119071  2079.12520926
0.47600002 26530.35820090  2088.07194117
0.47700002 26584.89558754  2477.97823517
