# SAXS profile: number of points = 501, q_min = 0, q_max = 0.5, delta_q = 0.001
#    q    intensity    error
0.00000000 1664650.74656090 274.66737318
0.00100000 1664569.17500651 549.30784080
0.00200000 1664324.38830551 748.94599845
0.00300000 1663916.62513623 1896.86502023
0.00400000 1663345.75325784 1621.76217105
0.00500000 1662612.26381236 2094.89153532
0.00600000 1661716.06963068 2093.76233298
0.00700000 1660657.76274132 2391.34727773
0.00800000 1659437.10215567 2912.31223724
0.00900000 1658055.38058498 2735.79149491
0.01000000 1656511.93567971 3826.54273665
0.01100000 1654808.09135756 4170.11657179
0.01200000 1652943.76261178 5479.50881330
0.01300000 1650920.00840268 3813.62538761
0.01400000 1648736.99789421 4822.55593263
0.01500000 1646396.01211875 5927.02590755
0.01600000 1643896.57778786 5449.51739898
0.01700000 1641240.86555456 5760.75569652
0.01800000 1638428.86481778 7004.28371227
0.01900000 1635461.21883273 5397.02226568
0.02000000 1632339.14645043 5141.86854391
0.02100000 1629064.54857425 6988.68723024
0.02200000 1625636.15683327 7851.82299423
0.02300000 1622057.01244655 7591.22716379
0.02400000 1618326.72978034 7889.34316741
0.02500000 1614447.86509363 11963.05922670
0.02600000 1610420.41795593 7826.64358924
0.02700000 1606246.49843557 7420.85916266
0.02800000 1601925.94583916 8362.05382076
0.02900000 1597461.28704970 10064.00657049
0.03000000 1592853.95552354 7406.77123364
0.03100000 1588104.23090109 8385.19072499
0.03200000 1583213.45175937 14890.12319961
0.03300000 1578185.43328558 8853.62068889
0.03400000 1573018.67008642 10735.85291870
0.03500000 1567715.94985487 8465.66652014
0.03600000 1562278.74999154 8670.64746316
0.03700000 1556708.75730800 9760.56435972
0.03800000 1551007.49605651 9980.73369903
0.03900000 1545177.17321319 9271.06346862
0.04000000 1539217.51435886 9466.18815196
0.04100000 1533132.55972848 12556.35624637
0.04200000 1526923.13794380 11818.38563597
0.04300000 1520590.03628663 17061.02099907
0.04400000 1514136.93046929 10220.42475532
0.04500000 1507565.25667902 11442.42082986
0.04600000 1500874.85201960 15871.75229794
0.04700000 1494069.79205048 10757.30300306
0.04800000 1487150.92333787 17488.89567218
0.04900000 1480121.81782891 14431.18839557
0.05000000 1472982.01109076 15775.63807339
0.05100000 1465736.05366471 13719.29010140
0.05200000 1458382.30140394 12753.55382011
0.05300000 1450926.77724876 16453.51042103
0.05400000 1443369.50016911 14289.35871804
0.05500000 1435712.82018824 12059.98825217
0.05600000 1427958.25153894 13429.94798242
0.05700000 1420110.29254147 16061.44815837
0.05800000 1412168.20575634 14997.22704539
0.05900000 1404134.85877401 13900.93575112
0.06000000 1396013.58146484 14050.87735388
0.06100000 1387805.70588749 19359.89050184
0.06200000 1379513.93576819 13036.40730238
0.06300000 1371140.93149130 18428.13498086
0.06400000 1362685.58802073 17272.04063592
0.06500000 1354154.08597820 21449.80172527
0.06600000 1345547.56195405 13522.75363035
0.06700000 1336867.03140084 16363.25323013
0.06800000 1328116.07989519 13746.00207035
0.06900000 1319297.19664851 18008.40757739
0.07000000 1310411.25804819 20933.82082762
0.07100000 1301461.04746045 18272.51396219
0.07200000 1292449.34478356 16982.78518605
0.07300000 1283378.63521094 14245.50351832
0.07400000 1274251.29548355 20069.45884440
0.07500000 1265068.66719814 18748.31852666
0.07600000 1255832.42221007 14504.86515652
0.07700000 1246547.27268641 20418.44528399
0.07800000 1237213.65820006 14660.98253722
0.07900000 1227833.96369025 19154.21073197
0.08000000 1218411.86188453 17764.44577963
0.08100000 1208948.53206301 25279.11499149
0.08200000 1199445.65515474 16426.40901816
0.08300000 1189906.86268720 22489.24076025
0.08400000 1180333.51022475 19564.02885028
0.08500000 1170728.10678666 21143.35060114
0.08600000 1161092.63507937 22728.38939881
0.08700000 1151430.82227431 22798.33135159
0.08800000 1141742.07532531 18290.70890571
0.08900000 1132031.89284968 16810.67439841
0.09000000 1122299.95340142 16851.33459192
0.09100000 1112549.29791309 18423.81723901
0.09200000 1102781.72626522 19998.94754550
0.09300000 1093002.05429137 18493.59562766
0.09400000 1083207.09443237 21609.98254954
0.09500000 1073402.97221234 24731.20564221
0.09600000 1063590.41141249 23212.86182026
0.09700000 1053773.99543856 23235.71769180
0.09800000 1043953.58879810 17052.98267481
0.09900000 1034131.64652862 17063.17297007
0.10000000 1024309.58536368 20173.77823245
0.10100000 1014489.01107936 18626.01911943
0.10200000 1004673.80730492 15522.21105297
0.10300000 994864.26801249 23279.82496659
0.10400000 985063.90993317 20169.18450474
0.10500000 975275.38701349 31013.75876621
0.10600001 965495.81450655 18595.45026238
0.10700001 955732.74491454 17031.15831582
0.10800001 945984.61044112 18560.21893033
0.10900001 936255.65480845 16993.04093456
0.11000001 926545.42122994 16969.68018858
0.11100001 916856.40559059 20024.14484070
0.11200001 907191.07525313 18452.26733933
0.11300001 897550.33832164 16882.92265869
0.11400001 887936.94683503 16848.60435950
0.11500001 878352.20407465 21396.66069878
0.11600001 868797.24235036 18296.87078553
0.11700001 859274.89519366 16730.08299732
0.11800001 849784.32874460 19719.24627726
0.11900001 840328.57654263 27226.64716240
0.12000001 830908.46111934 19605.28606362
0.12100001 821528.63040871 25557.75689599
0.12200001 812186.73549590 19480.29976861
0.12300001 802887.14587233 17920.44194018
0.12400001 793628.30897935 17856.63779339
0.12500001 784412.64066604 16307.93956789
0.12600001 775243.92609589 14768.39748806
0.12700001 766120.82682492 17651.42468189
0.12800001 757044.89342790 20508.34712950
0.12900001 748018.56986268 17503.63535977
0.13000001 739042.64048123 15974.40742695
0.13100001 730116.97776389 20238.84357763
0.13200001 721244.43456687 15827.70986269
0.13300001 712425.61359655 15751.73105920
0.13400001 703660.94535938 15674.04829684
0.13500001 694952.97176794 18430.15368023
0.13600001 686301.87867375 15513.85469891
0.13700001 677708.62195251 15431.42604950
0.13800001 669172.80473455 15347.47900031
0.13900001 660698.06174111 22199.45592139
0.14000001 652283.22688673 13795.79089927
0.14100001 643930.87678659 15087.30115467
0.14200001 635640.50746386 14997.93848099
0.14300001 627414.09264806 14907.35954446
0.14400001 619248.93968185 16162.39808807
0.14500001 611151.06419142 17399.47161830
0.14600001 603117.91127693 17288.37574232
0.14700001 595152.12668954 18497.32897015
0.14800001 587250.77320547 14437.56094040
0.14900001 579417.71076453 14340.58901802
0.15000001 571652.21398835 12947.92325776
0.15100001 563955.30986449 14143.99983879
0.15200001 556328.24202381 20428.37401107
0.15300001 548770.72993961 16479.58579774
0.15400001 541281.21455798 13843.26771560
0.15500001 533864.04412196 16240.14498861
0.15600001 526515.36723858 12399.43748366
0.15700001 519240.82601674 17228.41142036
0.15800001 512034.67628384 19539.24416922
0.15900001 504902.21711033 16964.71529565
0.16000001 497839.58029837 16831.95700440
0.16100001 490851.48356313 14313.22993635
0.16200001 483935.14901609 14198.65794239
0.16300001 477091.04454859 12910.08427494
0.16400001 470320.48750158 13968.51913824
0.16500001 463621.64461514 19625.10514309
0.16600001 456996.83607070 11447.77128406
0.16700001 450444.10012311 12486.31104495
0.16800001 443964.93676074 14630.86518177
0.16900001 437559.88192686 13389.33301918
0.17000001 431226.38282934 12167.05296605
0.17100001 424966.92693336 15349.80612567
0.17200001 418780.30430532 14127.55423288
0.17300001 412666.43041193 11847.65377663
0.17400001 406626.43435363 14943.52216822
0.17500001 400658.16799669 11635.11374812
0.17600001 394761.16137326 10480.90932946
0.17700001 388939.68300202 13500.09703462
0.17800001 383188.35885045 12346.32950530
0.17900001 377509.03772830 10192.74450010
0.18000001 371902.71977622 15145.73897830
0.18100001 366368.15543837 13002.40645070
0.18200001 360902.91752611 9906.78555407
0.18300001 355509.42698072 9812.06064818
0.18400001 350186.59999854 12632.98219174
0.18500001 344934.25451792 10586.03277126
0.18600001 339752.31118244 12389.06861257
0.18700001 334639.04074166 9436.82139476
0.18800001 329593.79495501 10278.38298129
0.18900001 324620.70867105 14802.70501479
0.19000001 319711.90864735 10075.72127709
0.19100001 314873.75581737 15416.21981324
0.19200001 310101.43568479 9875.18068600
0.19300001 305397.81048576 9775.78437558
0.19400001 300759.12087937 11436.36611185
0.19500001 296187.04349745 8707.89949032
0.19600001 291679.53191758 12928.69586321
0.19700001 287238.79369198 17915.08440919
0.19800001 282861.23876352 10132.09005134
0.19900001 278548.05919866 13370.30747342
0.20000001 274296.49290077 9924.04758217
0.20100001 270109.65356707 9821.18746787
0.20200001 265983.71557540 8099.20452207
0.20300001 261919.69688283 10419.16603446
0.20400001 257917.19381279 11896.43112691
0.20500001 253974.21655431 10986.92512746
0.20600001 250090.74735394 10871.44530135
0.20700001 246266.72600338 8451.87443595
0.20800001 242500.95607938 11403.60799868
0.20900001 238795.08869851 11283.06847437
0.21000001 235143.62285973 10419.21442146
0.21100001 231550.28330992 8099.62929308
0.21200001 228011.65507843 8741.96726898
0.21300001 224528.27704136 8648.82964051
0.21400001 221100.09389114 8556.57403811
0.21500001 217726.68521702 9170.64841491
0.21600001 214404.90524200 7676.76799514
0.21700001 211136.36283904 10356.23908689
0.21800001 207919.82644023 8196.19994579
0.21900001 204753.70178978 8783.93422210
0.22000001 201637.62206801 8689.57373389
0.22100001 198572.98623587 9918.72113147
0.22200001 195556.82631056 7195.51376433
0.22300001 192588.80027001 9706.47599258
0.22400001 189667.91119800 7681.55076675
0.22500001 186796.43697572 8232.11936679
0.22600001 183969.23078830 9396.22890684
0.22700001 181188.99294562 7435.99662213
0.22800001 178452.89784940 7355.82879721
0.22900001 175761.00510817 6063.75496299
0.23000001 173113.28562026 8397.72588258
0.23100001 170509.57508305 8307.22689092
0.23200001 167946.50998235 6456.70388163
0.23300001 165426.35324584 6387.11180090
0.23400001 162946.31333484 7467.01516172
0.23500001 160506.26590075 8522.88312243
0.23600001 158106.61105685 7868.96640448
0.23700001 155745.95609533 7228.17016426
0.23800001 153423.28729978 6600.27013182
0.23900001 151138.59431634 8705.58344439
0.24000001 148890.48466262 6997.10865769
0.24100001 146679.91168985 6389.37725543
0.24200001 144505.26071541 5793.93870245
0.24300001 142364.89827833 5731.61107581
0.24400001 140259.60551938 5669.99482133
0.24500001 138187.61641199 5609.03561549
0.24600001 136149.36851070 6053.20121033
0.24700001 134144.41467044 5489.18970799
0.24800001 132171.58627919 6911.25257349
0.24900001 130228.98084613 6348.66311659
0.25000001 128318.86283413 5314.32595569
0.25100001 126438.22925569 5735.23835037
0.25200001 124589.43877600 5200.98636776
0.25300001 122768.35462219 7016.21179860
0.25400001 120977.08809033 5090.11122222
0.25500001 119212.61221572 6408.87033593
0.25600001 117477.24781647 4528.74811759
0.25700001 115768.06783024 5376.26932441
0.25800001 114085.87004522 6648.35439145
0.25900001 112430.78576084 5261.76102257
0.26000001 110800.46468819 5639.18991713
0.26100001 109195.02489569 5578.77408589
0.26200001 107615.68035479 4245.43879088
0.26300001 106059.04026830 4619.93201269
0.26400001 104527.17307924 5816.93745711
0.26500001 103018.66582535 5343.57844921
0.26600001 101532.55434020 5286.29269187
0.26700001 100069.51392377 4425.07411510
0.26800001 98628.56841109  5969.49438556
0.26900001 97208.41608717  5511.71745297
0.27000001 95810.13806782  3894.68229676
0.27100001 94432.39112017  3852.84174003
0.27200001 93075.82890428  4954.89198620
0.27300001 91738.97364031  4524.56639406
0.27400001 90420.57643911  3729.84895463
0.27500001 89123.42110355  4427.65176996
0.27600001 87843.02973582  5839.80489321
0.27700001 86583.21828969  4693.67648562
0.27800001 85340.51107557  4285.80066905
0.27900001 84116.23500071  4592.74664840
0.28000001 82909.08947989  4892.46560176
0.28100001 81719.48522051  3802.40782727
0.28200001 80547.21108026  3419.22927219
0.28300001 79391.47978632  5749.53123825
0.28400001 78251.48491673  5017.87670779
0.28500001 77128.36896132  3639.68790356
0.28600001 76020.70651643  4581.76819861
0.28700001 74929.31903361  3236.94673546
0.28800001 73851.77495340  5442.50681280
0.28900001 72790.86818210  4116.32379054
0.29000001 71744.04357560  4071.11594540
0.29100001 70712.42336881  3716.64514819
0.29200001 69694.79481920  3675.70365276
0.29300001 68691.54414670  3332.22696429
0.29400001 67701.48278466  3894.52798154
0.29500001 66726.41089788  3258.91806252
0.29600001 65763.74776862  3222.75261196
0.29700001 64814.77235328  4056.10864588
0.29800001 63879.37163326  3151.48894871
0.29900001 62957.16697190  4816.22350135
0.30000001 62046.74095533  3361.69258410
0.30100001 61149.96448270  3047.10287442
0.30200001 60264.78366808  3286.84145686
0.30300001 59392.70609220  4333.29204163
0.30400001 58532.55160430  3481.22367147
0.30500001 57684.94235633  3177.28677541
0.30600001 56847.98679529  3403.20489062
0.30700001 56023.75509105  3364.78689007
0.30800001 55210.73055785  4606.23146852
0.30900001 54409.58142158  3289.05935265
0.31000001 53619.87686515  3001.64084902
0.31100001 52840.82988819  3462.13133819
0.31200001 52073.92537816  2689.35800348
0.31300001 51317.18943126  2900.44768398
0.31400001 50572.85685395  3584.35139923
0.31500001 49838.01502845  3307.25083388
0.31600002 49115.18638839  2802.51266801
0.31700002 48402.22449140  3001.42208282
0.31800002 47699.83791646  2510.68108761
0.31900002 47008.63202881  2707.69733307
0.32000002 46327.96459523  2899.89908115
0.32100002 45657.20973470  2425.76766806
0.32200002 44997.88650014  2180.14770416
0.32300002 44347.06274493  2586.32082175
0.32400002 43707.81993033  2983.05885150
0.32500002 43078.13975343  2317.17324706
0.32600002 42458.92201603  2290.87124585
0.32700002 41849.76140457  2264.90919446
0.32800002 41251.36844454  2035.75512914
0.32900002 40660.97352414  2213.99011323
0.33000002 40081.91402051  2189.07383789
0.33100002 39511.53149180  2164.44179762
0.33200002 38952.45290183  2140.24262604
0.33300002 38402.25407224  2116.34832214
0.33400002 37862.49068731  2663.62634599
0.33500002 37331.93457489  2822.29438751
0.33600002 36810.55181608  2046.85083066
0.33700002 36298.78483911  2576.48786989
0.33800002 35797.43724499  2366.38970115
0.33900002 35304.70277088  1980.59391924
0.34000002 34821.40410369  1781.11490425
0.34100002 34347.78794875  2114.44992626
0.34200002 33884.20265211  2615.01346352
0.34300002 33429.11058380  2414.91906294
0.34400002 32984.18416639  1877.62477260
0.34500002 32547.87282414  2533.85201936
0.34600002 32121.52714268  1839.11812366
0.34700002 31703.14612874  1654.90430630
0.34800002 31294.83542056  1965.94165423
0.34900002 30895.14722599  2757.39202051
0.35000002 30504.94482212  2087.91104724
0.35100002 30124.33243295  1749.62131057
0.35200002 29751.11941736  1575.32184776
0.35300002 29388.13106348  1716.56081672
0.35400002 29033.54705860  1855.24374492
0.35500002 28688.11195620  2604.30692673
0.35600002 28350.91635958  2429.10662874
0.35700002 28022.62650473  1655.29662604
0.35800002 27703.22634759  1491.81880948
0.35900002 27393.05362658  1775.06995908
0.36000002 27091.12897763  1907.08011471
0.36100002 26797.19851358  1455.08794821
0.36200002 26513.37321035  2021.11453556
0.36300002 26236.33601429  2721.75762704
0.36400002 25968.57546890  1421.77957427
0.36500002 25708.07461936  1552.51069980
0.36600002 25457.09156449  2522.54332261
0.36700002 25213.55967470  2226.86169595
0.36800002 24979.12440402  1520.85406138
0.36900002 24752.50457811  1373.76406916
0.37000002 24533.25722523  1501.80341218
0.37100002 24321.98902465  2171.46728298
0.37200002 24119.34135478  1484.42493400
0.37300002 23924.27449791  1342.15186291
0.37400002 23736.65170963  1735.74273849
0.37500002 23557.10879672  1992.93149861
0.37600002 23385.25720082  2115.89817176
0.37700002 23220.80977650  1316.61997670
0.37800002 23063.77424679  1835.64587926
0.37900002 22914.89298958  1567.37875474
0.38000002 22772.51277650  1691.88391688
0.38100002 22636.73702089  1426.79360202
0.38200002 22509.37411543  1551.79632503
0.38300002 22388.24163530  1418.51905721
0.38400002 22274.48176143  1543.62165920
0.38500002 22167.02311947  1411.81776936
0.38600002 22067.34550255  1281.00946711
0.38700002 21973.43143311  1406.73914699
0.38800002 21886.18694507  1404.76497562
0.38900002 21805.45818981  1530.74323744
0.39000002 21731.62820480  1402.01606005
0.39100002 21663.40393931  1273.80821198
0.39200002 21602.00612664  1273.43832150
0.39300002 21546.11939337  1528.05085977
0.39400002 21497.39189795  1401.09258333
0.39500002 21453.38544289  2038.92984909
0.39600002 21415.34074649  1402.81196206
0.39700002 21382.37164677  1531.83317735
0.39800002 21356.21688684  1533.80356948
0.39900002 21334.44642305  1536.08021524
0.40000002 21318.44298709  1538.76528771
0.40100002 21307.21076963  1798.75481840
0.40200002 21301.72299654  1287.68921615
0.40300002 21300.87585362  1548.99976547
0.40400002 21304.89592094  1811.98148393
0.40500002 21313.25142868  1427.77478086
0.40600002 21327.24960350  1822.84010998
0.40700002 21345.08816729  1436.95140351
0.40800002 21367.28164817  1966.32418684
0.40900002 21393.40537390  1447.26394212
0.41000002 21424.38562887  1452.89478026
0.41100002 21459.08781035  1856.64036532
0.41200002 21496.90190436  1731.25307690
0.41300002 21539.80834244  1471.38437759
0.41400002 21585.68651959  1881.19266932
0.41500002 21635.05593567  2970.06061958
0.41600002 21686.97146087  1763.47616790
0.41700002 21743.57908261  2044.98370962
0.41800002 21803.67049330  2055.54113316
0.41900002 21864.95945653  1377.49251103
0.42000002 21929.79612161  1384.86669070
0.42100002 21998.12293446  1392.48124773
0.42200002 22068.78694150  1540.29105757
0.42300002 22141.58100853  1549.02508076
0.42400002 22216.79464316  1416.32072562
0.42500002 22294.85564890  1852.03374651
0.42600002 22373.72815671  1433.03735634
0.42700002 22455.95779121  1874.17432607
0.42800002 22539.27332802  1450.40230739
0.42900002 22625.36268805  2189.00394380
0.43000002 22712.85428475  2055.74053873
0.43100002 22800.48974513  2068.46052770
0.43200002 22890.87511515  1635.43865010
0.43300002 22981.80671237  2094.56196302
0.43400002 23074.47008568  2107.85294221
0.43500002 23167.63590542  2575.77788203
0.43600002 23262.46801579  1677.34033577
0.43700002 23357.42665308  2301.87450574
0.43800002 23452.64093366  2007.66342227
0.43900002 23549.60854076  1709.70166108
0.44000002 23646.30762437  2815.56598226
0.44100002 23743.71239278  1889.04984749
0.44200002 23841.30688639  1901.10590121
0.44300002 23939.23305645  1753.78829683
0.44400002 24036.86127608  1925.35267946
0.44500002 24134.03957959  2260.39425415
0.44600002 24231.03484176  1787.16005945
0.44700002 24328.67866030  1961.86474014
0.44800002 24424.96832843  1645.02169488
0.44900002 24521.38299361  1655.19343051
0.45000002 24617.52902622  1665.37591755
0.45100002 24711.97449204  1675.47194996
0.45200002 24806.27609965  2022.70384903
0.45300002 24899.36409789  1865.21145297
0.45400002 24991.62668499  2217.38218271
0.45500002 25083.23564315  2058.83207916
0.45600002 25173.20265563  1725.62312383
0.45700002 25262.37219632  1909.07755735
0.45800002 25349.73744627  1919.86245648
0.45900002 25435.83059684  1755.07239436
0.46000002 25521.03140360  2117.73528624
0.46100002 25603.72008110  2306.63925143
0.46200002 25685.49326552  2319.01486939
0.46300002 25765.43490721  2151.92922544
0.46400002 25843.09407479  2163.06707658
0.46500002 25920.13705482  2898.90826561
0.46600002 25993.98572047  2002.96666462
0.46700002 26066.25751404  2561.79190990
0.46800002 26137.01553873  2206.48695636
0.46900002 26205.00370264  2216.94341832
0.47000002 26271.02527477  2227.25762836
0.47100002 26335.08725188  2050.97669239
0.47200002 26397.01283092  2060.15496403
0.47300002 26456.47716303  2069.16117699
0.47400002 26513.02211441  2644.67408126
0.47500002 26567.62177905  2466.00677041
0.47600002 26620.54882366  3618.93068136
0.47700002 26669.73507597  2677.10813382
