# SAXS profile: number of points = 501, q_min = 0, q_max = 0.5, delta_q = 0.001
#    q    intensity    error
0.00000000 1646666.22097350 271.69992646
0.00100000 1646585.10415407 642.16820587
0.00200000 1646341.67780836 814.93915632
0.00300000 1645936.18560402 987.56174654
0.00400000 1645368.49933369 1851.03963209
0.00500000 1644639.09833759 1628.19277180
0.00600000 1643747.89101638 1898.52889142
0.00700000 1642695.47509955 2365.48158245
0.00800000 1641481.63208952 3102.40041563
0.00900000 1640107.61132730 3936.25843545
0.01000000 1638572.78734595 2974.00973745
0.01100000 1636878.45177544 3535.65760978
0.01200000 1635024.52079712 3825.95754641
0.01300000 1633012.10030332 4801.05578664
0.01400000 1630841.28973021 4036.33237102
0.01500000 1628513.44002180 6644.33513115
0.01600000 1626028.00738873 4975.64592504
0.01700000 1623387.17833229 5698.08925156
0.01800000 1620590.95779211 5542.42132504
0.01900000 1617639.99075835 8735.25634425
0.02000000 1614535.46123661 5594.36562625
0.02100000 1611279.32299368 6380.66640834
0.02200000 1607870.22056714 7766.01351817
0.02300000 1604311.31524139 6930.62519731
0.02400000 1600602.13486069 9603.61324707
0.02500000 1596745.16265676 6227.30641877
0.02600000 1592740.50625327 7095.65927990
0.02700000 1588590.36820377 6672.07985204
0.02800000 1584294.34244391 6891.68070568
0.02900000 1579855.09850638 10664.02240455
0.03000000 1575274.00423791 8790.02934768
0.03100000 1570551.33969653 10554.10548839
0.03200000 1565688.53150616 9300.19030550
0.03300000 1560689.30139390 8755.46738445
0.03400000 1555552.27003952 8983.31477397
0.03500000 1550280.09425166 13394.42063286
0.03600000 1544874.11207790 9431.45689010
0.03700000 1539336.30731079 8774.21735746
0.03800000 1533668.08149633 10766.35043037
0.03900000 1527871.46063459 11000.67502601
0.04000000 1521946.40825297 23399.92711122
0.04100000 1515896.91109768 11460.18117927
0.04200000 1509723.69636177 9737.71829329
0.04300000 1503427.60004331 10914.88488296
0.04400000 1497012.30699537 11115.31689566
0.04500000 1490479.26179185 14398.03033791
0.04600000 1483828.19478522 14645.38496335
0.04700000 1477063.32019267 12761.82767999
0.04800000 1470185.41849690 16208.79499309
0.04900000 1463197.97826789 14266.18095217
0.05000000 1456100.69944268 14480.92213028
0.05100000 1448897.87395622 11301.40394332
0.05200000 1441588.22007878 14898.81494882
0.05300000 1434177.41648075 15101.88889956
0.05400000 1426665.59333987 14123.99003272
0.05500000 1419055.18000946 14304.07688177
0.05600000 1411347.43172435 16893.82954608
0.05700000 1403547.08206298 13431.94620233
0.05800000 1395653.56629400 18527.30195764
0.05900000 1387669.06459941 13737.92438118
0.06000000 1379597.58775156 13885.65036944
0.06100000 1371440.21037740 12754.39455254
0.06200000 1363199.55661380 14170.46005338
0.06300000 1354878.50149291 16908.88448921
0.06400000 1346475.66446850 17066.57984529
0.06500000 1337997.28508940 14570.79111621
0.06600000 1329444.64462080 14697.01123393
0.06700000 1320818.41536505 18861.28785410
0.06800000 1312122.64226850 17654.61097812
0.06900000 1303359.55648707 15053.80358223
0.07000000 1294529.97160644 20680.11726483
0.07100000 1285636.92279255 22215.80706639
0.07200000 1276682.83226889 13979.67766825
0.07300000 1267670.30710702 18292.48338866
0.07400000 1258601.93414974 15575.19966502
0.07500000 1249478.65788393 15668.46310428
0.07600000 1240302.42807328 18623.14183058
0.07700000 1231077.92371529 15843.97362112
0.07800000 1221805.45102356 15926.23480097
0.07900000 1212487.40792456 30554.68411283
0.08000000 1203127.79555439 17541.60408208
0.08100000 1193727.13110288 19087.69772190
0.08200000 1184287.53456036 14744.38049716
0.08300000 1174812.74466992 16282.90540531
0.08400000 1165303.76384820 17829.14842375
0.08500000 1155763.44545540 17891.21897556
0.08600000 1146193.38578461 16453.60682546
0.08700000 1136597.26165425 15003.08455835
0.08800000 1126975.02533305 21063.16421268
0.08900000 1117331.93275201 25642.76906109
0.09000000 1107667.04512937 19655.55263915
0.09100000 1097984.23741286 24243.49310106
0.09200000 1088284.93559402 18217.89067784
0.09300000 1078574.07768257 21291.05329397
0.09400000 1068848.40830563 15231.09053418
0.09500000 1059113.91861246 18301.48937384
0.09600000 1049371.24212179 19848.85797778
0.09700000 1039625.27477245 24451.98761220
0.09800000 1029875.59657041 16823.01866096
0.09900000 1020124.85927032 18362.24833030
0.10000000 1010374.43083538 16837.89068171
0.10100000 1000625.85417449 16840.53391780
0.10200000 990882.97475120 19901.88548399
0.10300000 981146.12481400 21428.23237394
0.10400000 971418.86986019 15299.84792008
0.10500000 961703.67216206 16820.19801749
0.10600001 951997.92131785 24447.30776977
0.10700001 942308.64847851 18318.48098845
0.10800001 932634.87668608 25922.58761745
0.10900001 922980.70887184 15229.18241316
0.11000001 913345.23141591 15207.19881887
0.11100001 903731.45640436 16700.95810052
0.11200001 894141.56236614 18186.84023471
0.11300001 884576.57504657 16638.88616000
0.11400001 875039.30330231 16603.87156195
0.11500001 865530.61833675 15060.23346822
0.11600001 856052.18309740 16526.08817293
0.11700001 846606.58845858 19480.41851786
0.11800001 837193.05162281 19427.06567789
0.11900001 827814.46412444 19370.85937291
0.12000001 818471.79641684 14855.26380472
0.12100001 809169.44743881 16288.58174427
0.12200001 799905.45124395 22137.38440610
0.12300001 790683.52768163 23530.74289244
0.12400001 781502.87961250 16118.49765147
0.12500001 772365.57079086 20436.79396612
0.12600001 763275.23070118 18902.51197907
0.12700001 754230.60012073 20273.71948667
0.12800001 745233.42111176 18746.34759157
0.12900001 736285.79703265 18664.84583449
0.13000001 727388.76595146 21439.78488698
0.13100001 718542.41872601 15649.85461755
0.13200001 709748.72128420 16991.38518852
0.13300001 701009.12599833 19726.39773555
0.13400001 692323.92840229 15421.51623222
0.13500001 683695.20791391 16736.85947885
0.13600001 675123.40935303 13873.78671636
0.13700001 666609.71690650 15178.70396969
0.13800001 658153.56650759 21956.00401404
0.13900001 649758.21416471 13644.92314093
0.14000001 641422.97101890 14922.70612452
0.14100001 633150.21725604 18880.54036904
0.14200001 624939.53722012 20107.43055843
0.14300001 616792.59286411 15987.26476112
0.14400001 608707.20674355 17211.19708252
0.14500001 600688.81580471 15786.10282401
0.14600001 592735.45251274 16990.76254781
0.14700001 584849.06167962 16878.74471635
0.14800001 577026.94306534 18055.17390033
0.14900001 569273.59224561 14089.52207283
0.15000001 561587.58567049 13991.95535716
0.15100001 553969.81594183 18945.76859917
0.15200001 546421.93790661 13794.42247337
0.15300001 538943.55851915 14939.51614713
0.15400001 531533.22536845 18537.22210952
0.15500001 524194.83110790 13492.77558948
0.15600001 516925.25576237 13390.94938251
0.15700001 509729.48005012 20537.00172050
0.15800001 502602.05006723 15583.17729784
0.15900001 495548.20006693 13082.47309927
0.16000001 488563.82269922 12978.69856263
0.16100001 481654.11472130 15215.45420228
0.16200001 474816.01343182 19735.72852994
0.16300001 468049.96465841 14968.23857639
0.16400001 461356.99410943 12560.44475760
0.16500001 454735.83550113 15852.09197397
0.16600001 448188.25597686 13472.53961074
0.16700001 441712.96130046 13357.40058039
0.16800001 435311.01650311 13242.16174727
0.16900001 428982.60485147 13126.86832828
0.17000001 422726.04591867 15180.09302574
0.17100001 416542.80433344 15045.52680299
0.17200001 410432.60577162 13845.94460955
0.17300001 404394.55555090 11610.16823815
0.17400001 398430.58516031 13596.44436070
0.17500001 392537.73934411 15544.49521216
0.17600001 386715.98222901 15400.96471964
0.17700001 380969.46454689 11189.07370221
0.17800001 375293.03078761 12091.94202310
0.17900001 369688.45630950 11977.90655019
0.18000001 364156.19509205 12852.89351288
0.18100001 358695.68568596 9792.39268178
0.18200001 353304.25036286 10668.02234364
0.18300001 347984.02590695 11525.23148248
0.18400001 342734.53365415 11413.06050984
0.18500001 337555.00016207 11301.34193933
0.18600001 332445.55346284 11190.11785822
0.18700001 327404.70324548 10156.09437450
0.18800001 322431.42412182 11883.21069745
0.18900001 317529.91376214 13574.40445469
0.19000001 312692.23691090 14333.81281725
0.19100001 307925.16071903 8868.24504773
0.19200001 303223.51779932 11411.81763160
0.19300001 298590.11793188 9557.87012663
0.19400001 294021.34405445 10320.14966398
0.19500001 289518.74475103 8511.85149791
0.19600001 285080.65076212 9266.54699093
0.19700001 280708.73373064 12505.57467868
0.19800001 276399.62620606 9075.58215538
0.19900001 272154.72105346 9797.57042096
0.20000001 267970.89092435 9695.18729185
0.20100001 263851.44475349 11192.57881543
0.20200001 259792.41883414 8701.74748012
0.20300001 255795.08105968 9392.79582046
0.20400001 251859.03978126 10842.53217506
0.20500001 247981.83522825 11493.95860611
0.20600001 244163.84749778 9097.54538779
0.20700001 240405.03552248 8250.70120913
0.20800001 236703.79674358 9646.86369229
0.20900001 233062.43947155 7341.46719039
0.21000001 229474.83564495 11620.60622639
0.21100001 225944.87190404 7903.55199283
0.21200001 222469.27129221 7107.89355381
0.21300001 219048.63670373 10547.19235591
0.21400001 215682.67403254 8346.91987967
0.21500001 212371.02585181 8256.98587549
0.21600001 209110.53571721 6806.54825940
0.21700001 205903.08640713 7406.33436823
0.21800001 202746.92494736 7992.28415930
0.21900001 199640.99472499 7246.96845116
0.22000001 196584.61712901 8471.81447574
0.22100001 193579.10676037 7090.80301591
0.22200001 190621.80027192 6376.29952060
0.22300001 187712.08658086 7568.55168882
0.22400001 184849.20471053 7486.39314478
0.22500001 182035.06197906 8022.28556077
0.22600001 179264.90856395 6103.97042525
0.22700001 176541.05603080 6037.70440177
0.22800001 173861.20165792 8958.19883906
0.22900001 171224.92879741 6497.98635516
0.23000001 168632.33163053 7011.73268080
0.23100001 166083.48273995 6935.64656723
0.23200001 163574.56501488 5716.93131764
0.23300001 161108.24924052 5654.89981579
0.23400001 158681.75594169 7830.94502609
0.23500001 156294.55019779 7745.95827416
0.23600001 153947.17689618 7114.66911676
0.23700001 151638.67775133 5954.85115695
0.23800001 149367.54596396 5354.82677608
0.23900001 147133.88102019 5826.50196399
0.24000001 144936.39061973 5763.39584560
0.24100001 142775.88153694 5701.04121944
0.24200001 140650.92398674 6152.07170619
0.24300001 138559.81706268 5578.41849882
0.24400001 136503.33278804 5518.14748898
0.24500001 134479.64884221 5954.75913242
0.24600001 132489.35335393 5890.47692877
0.24700001 130531.64336985 5341.35509937
0.24800001 128605.58599128 5764.10263681
0.24900001 126709.62684475 5226.77235461
0.25000001 124845.43865372 5640.51718522
0.25100001 123010.22069227 5579.74387457
0.25200001 121206.43782869 5059.76298653
0.25300001 119430.10854855 5460.34482117
0.25400001 117683.00500934 4951.51267003
0.25500001 115962.25219656 5788.83590353
0.25600001 114269.99583688 6607.66282189
0.25700001 112603.55330775 4793.53349111
0.25800001 110963.72628218 5173.12916404
0.25900001 109350.34797003 7249.92841344
0.26000001 107761.57167352 6328.29859595
0.26100001 106196.85902630 5008.24410865
0.26200001 104658.10678533 4128.76250804
0.26300001 103141.40022616 4901.27957066
0.26400001 101649.33990397 4040.56145237
0.26500001 100179.83035561 4796.61050440
0.26600001 98732.45498153  3954.23500912
0.26700001 97307.47175573  4694.11265962
0.26800001 95904.29693304  3869.73856437
0.26900001 94521.56089016  3828.12339720
0.27000001 93160.27827894  4165.66204037
0.27100001 91818.91919808  5619.31812084
0.27200001 90498.45475021  5558.86784610
0.27300001 89197.10931393  4399.20163955
0.27400001 87913.95274671  5077.03101139
0.27500001 86651.57897066  5381.06330874
0.27600001 85405.43265046  3903.45548402
0.27700001 84179.48815183  4914.39875089
0.27800001 82970.23828917  3472.30463674
0.27900001 81778.94830565  4121.65918967
0.28000001 80604.48375269  4076.97498117
0.28100001 79447.09355533  4368.79588138
0.28200001 78306.57976416  3656.52591515
0.28300001 77182.21775689  3616.75889527
0.28400001 76073.19604244  3902.55514169
0.28500001 74980.53525899  3216.66511486
0.28600001 73903.05349894  3181.52660372
0.28700001 72841.45474495  3776.10119271
0.28800001 71793.23084364  3112.23670438
0.28900001 70761.23222503  4309.35924648
0.29000001 69743.08990394  3957.57182393
0.29100001 68739.61310440  3914.03375543
0.29200001 67749.79108976  3573.12415121
0.29300001 66773.83797082  2944.72639390
0.29400001 65810.77600929  3203.33967389
0.29500001 64862.43013756  4031.84884821
0.29600001 63925.93994624  3417.48091130
0.29700001 63002.91443056  2816.23040836
0.29800001 62093.02932368  4177.30874550
0.29900001 61195.89620745  2753.81545970
0.30000001 60310.37645679  4084.52043890
0.30100001 59438.02595802  3231.05124404
0.30200001 58576.87458741  3461.01479884
0.30300001 57728.56159238  3422.14929320
0.30400001 56891.80543022  3643.92031031
0.30500001 56067.18156534  3860.22563353
0.30600001 55252.96053502  2544.39895310
0.30700001 54451.09342866  3773.46095325
0.30800001 53660.07433486  2984.57347581
0.30900001 52880.59452463  3688.42164272
0.31000001 52112.15828455  3160.34198879
0.31100001 51354.12796159  2884.04796287
0.31200001 50607.95836917  3326.46126110
0.31300001 49871.61789748  2583.84864560
0.31400001 49147.39892089  3715.54353434
0.31500001 48432.43214076  3673.11582747
0.31600002 47729.02247726  3177.32117675
0.31700002 47035.21875735  3141.01205734
0.31800002 46351.71212393  2439.72248316
0.31900002 45679.02130898  3508.14900264
0.32000002 45016.62153562  3034.57060140
0.32100002 44363.90900036  2357.05459680
0.32200002 43722.22139777  2330.17589973
0.32300002 43088.68729942  2722.34339248
0.32400002 42466.53248817  2277.26791251
0.32500002 41853.86376964  2865.31564935
0.32600002 41251.23468282  2428.04778840
0.32700002 40658.29507317  2200.42703356
0.32800002 40075.96078794  2571.07338610
0.32900002 39501.36218721  2150.84927294
0.33000002 38937.86108593  2319.91787336
0.33100002 38382.82844376  2293.75793642
0.33200002 37838.74538164  2079.04996345
0.33300002 37303.38096671  2803.34921240
0.33400002 36778.20907363  1848.10509347
0.33500002 36261.87646343  2193.11839237
0.33600002 35754.58195296  1988.13362365
0.33700002 35256.71822968  2323.77040856
0.33800002 34768.94947667  1944.80128108
0.33900002 34289.59982366  2448.27754335
0.34000002 33819.56017330  2248.83176022
0.34100002 33358.82306982  2053.56924543
0.34200002 32908.05355305  1862.43137904
0.34300002 32465.61674088  2345.31626443
0.34400002 32032.97786415  1823.47735128
0.34500002 31608.83960808  1968.59862402
0.34600002 31194.37848423  1623.66747700
0.34700002 30787.74799294  1767.83257348
0.34800002 30391.01928422  2227.35790883
0.34900002 30002.75172344  1575.14454008
0.35000002 29623.70220794  1715.65679463
0.35100002 29254.09187046  1699.07773631
0.35200002 28891.67717505  2141.74013043
0.35300002 28539.40159597  1515.44229652
0.35400002 28195.36847862  2252.10516390
0.35500002 27860.31086218  1785.28880461
0.35600002 27533.20218974  1474.40304710
0.35700002 27214.94426780  1607.58683404
0.35800002 26905.38456798  1883.51153589
0.35900002 26604.89698839  2011.33030759
0.36000002 26312.53421492  1567.30617475
0.36100002 26028.01484815  1413.32127320
0.36200002 25753.37186371  1542.49828084
0.36300002 25485.52484789  1391.50972261
0.36400002 25226.73957368  1519.28046279
0.36500002 24975.11942166  1371.13412120
0.36600002 24732.81993072  1770.00434218
0.36700002 24497.90237557  1622.74113022
0.36800002 24271.88486845  1343.44889111
0.36900002 24053.63610600  1468.47455383
0.37000002 23842.69098163  1990.26872397
0.37100002 23639.53081756  1582.90305853
0.37200002 23444.88290306  1836.43776479
0.37300002 23257.64447738  1435.22930869
0.37400002 23077.86688955  1427.94308143
0.37500002 22905.98525834  1291.89762977
0.37600002 22741.75030317  1286.04604057
0.37700002 22584.70048514  1280.55257817
0.37800002 22435.13895483  1530.52525200
0.37900002 22293.52248848  1270.73084204
0.38000002 22158.35035976  1899.52467458
0.38100002 22029.71836202  2272.14525950
0.38200002 21909.42009505  1258.69624409
0.38300002 21795.10077288  1506.47743679
0.38400002 21688.28045767  1502.99790692
0.38500002 21587.64903191  1374.91743198
0.38600002 21494.66852798  1746.87179403
0.38700002 21407.39954491  1495.09285505
0.38800002 21326.77476815  1368.85910334
0.38900002 21252.51843178  1367.59962588
0.39000002 21185.23714252  1366.76563900
0.39100002 21123.40052601  1366.26161075
0.39200002 21068.16059994  1490.36175145
0.39300002 21018.60250281  1739.07925347
0.39400002 20976.01288231  1367.11170437
0.39500002 20938.19896642  1368.10198528
0.39600002 20906.31626296  1742.95966942
0.39700002 20879.37219175  1495.79829469
0.39800002 20859.19711779  1622.94990864
0.39900002 20843.36747922  1750.84295121
0.40000002 20833.30252184  1754.37248848
0.40100002 20827.94676454  1507.11029929
0.40200002 20828.26896973  1384.97581076
0.40300002 20833.18075236  1893.73622011
0.40400002 20842.92400569  1392.82846267
0.40500002 20857.04259841  1778.27153620
0.40600002 20876.67459473  1784.32946215
0.40700002 20900.20324347  1790.72949875
0.40800002 20928.00626589  1797.50654335
0.40900002 20959.70666387  1289.02202090
0.41000002 20996.20842738  1812.18283523
0.41100002 21036.39793594  1300.04945404
0.41200002 21079.74354607  1305.89017456
0.41300002 21128.08819980  1968.08150906
0.41400002 21179.39451524  1713.94258236
0.41500002 21234.20470914  1590.01732396
0.41600002 21291.61077388  1464.96934871
0.41700002 21353.62525950  1874.42131410
0.41800002 21419.02893986  1480.80463592
0.41900002 21485.66991625  1488.95699575
0.42000002 21555.82266306  1633.50031881
0.42100002 21629.44743055  1642.97290468
0.42200002 21705.51163866  1790.37921235
0.42300002 21783.54960992  1662.52058501
0.42400002 21864.07839957  1811.98558323
0.42500002 21947.31267352  1682.92001555
0.42600002 22031.48753270  1411.11684334
0.42700002 22118.97132234  1704.04563142
0.42800002 22207.58386812  1714.86970756
0.42900002 22298.94916584  2013.59520509
0.43000002 22391.60051895  1592.37874636
0.43100002 22484.43060733  1456.99117240
0.43200002 22580.04005759  1466.57367124
0.43300002 22676.16312173  1623.84011810
0.43400002 22774.04538629  1931.80849144
0.43500002 22872.37726001  2243.78031554
0.43600002 22972.35050612  1505.83764704
0.43700002 23072.53991243  1819.03913290
0.43800002 23172.93721215  1525.93798773
0.43900002 23275.08217618  1843.38659571
0.44000002 23376.96295814  2164.94064215
0.44100002 23479.57823040  1868.03533254
0.44200002 23582.34184466  2350.57003476
0.44300002 23685.45139683  1892.94136534
0.44400002 23788.24551719  1905.43855623
0.44500002 23890.61648250  2077.76701395
0.44600002 23992.80070885  2734.81951840
0.44700002 24095.56035682  1619.22173272
0.44800002 24197.01128396  1792.63566593
0.44900002 24298.57192192  1968.18441895
0.45000002 24399.90103113  2310.91473618
0.45100002 24499.47633873  2491.59686173
0.45200002 24598.92438699  2172.94608871
0.45300002 24697.17695937  2018.25339677
0.45400002 24794.60957078  2369.12505677
0.45500002 24891.31880542  2213.33617308
0.45600002 24986.42674052  1884.10159766
0.45700002 25080.75819969  2584.57225497
0.45800002 25173.23763299  2253.13074113
0.45900002 25264.51083045  1743.25132992
0.46000002 25354.80459942  2279.27026749
0.46100002 25442.66952325  2115.81249783
0.46200002 25529.54517364  1950.32969598
0.46300002 25614.61981973  2495.88867353
0.46400002 25697.37454231  2150.87035113
0.46500002 25779.52485983  2162.38664773
0.46600002 25858.53795267  2898.22507110
0.46700002 25935.87396929  2366.90797062
0.46800002 26011.74822427  2378.90454660
0.46900002 26084.82182175  2206.77603071
0.47000002 26155.96361197  2032.71080845
0.47100002 26225.06373877  2599.42844099
0.47200002 26292.03804146  2051.96220620
0.47300002 26356.50441222  2623.52657354
0.47400002 26418.14212034  2823.43907294
0.47500002 26477.77524506  2079.56456631
0.47600002 26535.74286083  2278.35899002
0.47700002 26589.93184447  2097.14802397
