# SAXS profile: number of points = 501, q_min = 0, q_max = 0.5, delta_q = 0.001
#    q    intensity    error
0.00000000 1682732.95097188 277.65093691
0.00100000 1682650.67801835 656.23378001
0.00200000 1682403.79400547 757.08173128
0.00300000 1681992.53279687 1211.03466675
0.00400000 1681416.75392798 1387.16887470
0.00500000 1680676.98512171 2268.91401972
0.00600000 1679773.09273228 1940.13800109
0.00700000 1678705.68971659 2014.44691138
0.00800000 1677474.56407198 2943.96798424
0.00900000 1676080.98139839 3016.94589548
0.01000000 1674524.28543186 2762.96519027
0.01100000 1672805.80628162 3914.36575713
0.01200000 1670925.42997085 3584.13520443
0.01300000 1668884.29347883 3855.12288797
0.01400000 1666682.51467716 6000.05731883
0.01500000 1664321.44605180 5991.55747258
0.01600000 1661800.50209470 5508.86891071
0.01700000 1659121.94351469 6271.48122782
0.01800000 1656285.71311519 5664.49739374
0.01900000 1653292.55809195 5951.85347769
0.02000000 1650143.59727549 6757.33833652
0.02100000 1646840.81196626 8151.86238883
0.02200000 1643382.87519256 6236.63829470
0.02300000 1639772.91100379 8854.77412248
0.02400000 1636010.46966880 7362.04744920
0.02500000 1632098.15121389 7638.21969652
0.02600000 1628035.87668238 7252.90016236
0.02700000 1623826.00714490 6820.06954238
0.02800000 1619468.11789387 8453.62396309
0.02900000 1614964.91346888 8720.81093314
0.03000000 1610317.69509547 8236.77538902
0.03100000 1605526.85476821 7706.52925749
0.03200000 1600593.71894013 11884.40891050
0.03300000 1595522.34347244 9764.59719220
0.03400000 1590310.64951823 9184.04442472
0.03500000 1584961.98405014 12838.19266365
0.03600000 1579477.54093438 12272.54106022
0.03700000 1573859.29782819 10765.19809501
0.03800000 1568108.52916212 9173.43532014
0.03900000 1562227.51093362 13122.71169956
0.04000000 1556216.02609141 13399.02060554
0.04100000 1550078.12464703 10742.04190188
0.04200000 1543814.54673141 10953.36471722
0.04300000 1537426.35882116 12176.41732707
0.04400000 1530916.96130118 11367.05896557
0.04500000 1524287.84145474 13672.86257316
0.04600000 1517538.89682605 13908.24463596
0.04700000 1510674.48391141 11964.54246902
0.04800000 1503695.07358558 15473.02302713
0.04900000 1496604.55073729 14591.89504890
0.05000000 1489401.99669005 17090.88870787
0.05100000 1482092.68063264 11560.32344746
0.05200000 1474674.29395110 12896.02730157
0.05300000 1467153.25755964 19014.30710438
0.05400000 1459529.46680082 14449.34239516
0.05500000 1451805.54916001 13414.68390002
0.05600000 1443982.45220461 13580.65559671
0.05700000 1436065.40858207 16241.90052921
0.05800000 1428053.25519503 12638.27189859
0.05900000 1419948.79510759 15335.44770342
0.06000000 1411755.78521488 15501.07924585
0.06100000 1403475.41871786 14357.55420443
0.06200000 1395110.06749181 18457.30705568
0.06300000 1386662.64633370 14643.15822993
0.06400000 1378132.28665750 14780.46946564
0.06500000 1369524.95800001 17625.78703396
0.06600000 1360841.69996415 15044.10569700
0.06700000 1352083.94218123 15170.38254123
0.06800000 1343255.03280488 15292.95926433
0.06900000 1334357.39084664 19615.05456380
0.07000000 1325392.15329236 19761.59793099
0.07100000 1316361.88171236 19903.39258372
0.07200000 1307269.36541547 15746.06024408
0.07300000 1298117.23402140 17290.92236734
0.07400000 1288908.01595227 18850.28061670
0.07500000 1279642.89124535 21881.89446595
0.07600000 1270323.22643453 16139.45734848
0.07700000 1260954.54292041 16228.48572832
0.07800000 1251536.76581916 22246.06705569
0.07900000 1242072.24020157 14904.86758151
0.08000000 1232565.02295753 19468.36545090
0.08100000 1223015.97211925 16547.40687915
0.08200000 1213427.05633713 18128.60107236
0.08300000 1203801.39209872 15167.89825230
0.08400000 1194141.05704853 18270.35903043
0.08500000 1184448.24676235 21391.13634074
0.08600000 1174724.90135776 26061.27316024
0.08700000 1164974.79643127 15377.66803499
0.08800000 1155197.75943853 18506.26897533
0.08900000 1145398.66503836 21648.03578603
0.09000000 1135577.49925966 23250.95038957
0.09100000 1125737.27535709 18642.21015575
0.09200000 1115880.02831659 20236.48526437
0.09300000 1106010.31293604 23392.11921784
0.09400000 1096125.25895428 20305.72137645
0.09500000 1086230.50878243 18770.06407400
0.09600000 1076327.22158531 26622.95507740
0.09700000 1066420.20205884 17244.01547798
0.09800000 1056508.55949076 25102.64455377
0.09900000 1046595.64466713 18838.72248985
0.10000000 1036682.02589212 23558.60014629
0.10100000 1026770.39260511 20422.46406942
0.10200000 1016863.41574754 21994.75671717
0.10300000 1006962.29943280 23562.91891514
0.10400000 997070.54469324 21985.40654479
0.10500000 987190.17540689 20405.22188571
0.10600001 977318.85644415 15685.96838401
0.10700001 967464.10491616 17240.21116089
0.10800001 957624.24047633 20354.30418923
0.10900001 947803.55695358 17202.63536836
0.11000001 938001.63480975 17179.50075017
0.11100001 928221.40333553 18712.94437213
0.11200001 918464.50006770 18681.56881085
0.11300001 908732.39092048 27970.78430942
0.11400001 899027.64484227 15508.22760373
0.11500001 889351.93392243 18569.66925471
0.11600001 879705.90960045 16982.72338458
0.11700001 870092.78441524 21560.90021322
0.11800001 860511.63391207 18432.16006652
0.11900001 850965.15982331 19912.58567778
0.12000001 841454.81272035 21381.36779839
0.12100001 831984.92496401 24360.51975052
0.12200001 822553.53269223 16693.72473245
0.12300001 813164.27421349 18149.82745556
0.12400001 803816.13863493 18085.86397145
0.12500001 794511.61487794 16517.89725164
0.12600001 785254.21547747 17950.91221172
0.12700001 776042.60050632 16390.02049510
0.12800001 766878.70060162 16323.01391160
0.12900001 757764.59444254 19209.33337449
0.13000001 748701.23681595 14711.97999688
0.13100001 739688.46950646 19039.58210258
0.13200001 730729.50413440 17493.66515363
0.13300001 721824.63712915 15959.54347931
0.13400001 712974.07421098 14437.72568345
0.13500001 704180.67831455 14365.28651491
0.13600001 695444.40332868 17149.65979470
0.13700001 686766.73206722 21324.10803619
0.13800001 678146.53501985 16967.22710630
0.13900001 669588.50434224 15467.49517972
0.14000001 661090.35962721 19574.88647172
0.14100001 652655.46601520 13901.56208176
0.14200001 644282.68994389 16583.83722134
0.14300001 635974.88113373 20605.58712065
0.14400001 627728.37455694 16383.71134875
0.14500001 619549.99120253 20352.21817106
0.14600001 611436.72249992 17526.83447728
0.14700001 603391.30668608 18753.40269652
0.14800001 595410.83381704 13307.43276364
0.14900001 587499.52730657 19828.10998210
0.15000001 579655.97196493 14442.12922293
0.15100001 571881.98988301 19558.36497686
0.15200001 564178.24005653 15537.46946432
0.15300001 556544.67618025 14141.80088908
0.15400001 548979.53761761 12763.77485194
0.15500001 541487.35594667 13937.88519984
0.15600001 534064.46209524 23896.71548425
0.15700001 526716.39405070 13731.49704098
0.15800001 519437.01128645 16105.14529508
0.15900001 512232.19261374 14752.28784359
0.16000001 505097.78907604 15857.54583656
0.16100001 498038.58112412 15733.03952038
0.16200001 491051.86871512 13206.84063254
0.16300001 484137.99129012 13100.77466277
0.16400001 477298.21965025 12994.44464344
0.16500001 470531.12088879 12887.84800960
0.16600001 463838.53717710 15104.90267632
0.16700001 457218.50086530 16130.66947213
0.16800001 450672.86639309 12567.01347274
0.16900001 444202.03692342 14725.29821931
0.17000001 437803.74631228 12352.63328549
0.17100001 431479.82279193 13358.61594445
0.17200001 425229.27562666 14345.11029068
0.17300001 419052.60782817 14218.45565507
0.17400001 412950.26517635 17343.91195649
0.17500001 406920.32631017 11816.96683413
0.17600001 400962.56578136 15968.33493641
0.17700001 395080.90202805 12658.39269884
0.17800001 389270.06806361 12542.28218541
0.17900001 383531.93599190 11390.89903699
0.18000001 377867.57665050 12310.92622878
0.18100001 372275.75591256 10163.12861648
0.18200001 366753.69466625 14094.34515181
0.18300001 361304.35314548 12963.60080325
0.18400001 355926.02757457 10864.64250497
0.18500001 350619.39135890 10760.50962915
0.18600001 345383.50228805 10656.80846656
0.18700001 340217.11523632 11512.94772352
0.18800001 335119.20190643 11400.75578750
0.18900001 330094.47229441 12230.00077634
0.19000001 325134.54248163 12109.63660689
0.19100001 320246.03133432 10145.39475204
0.19200001 315423.90574182 10044.67475297
0.19300001 310671.51663403 11752.70402961
0.19400001 305984.53055207 10740.05752989
0.19500001 301364.93114847 8860.12939445
0.19600001 296810.35287606 14910.26878133
0.19700001 292323.39035096 10418.40612446
0.19800001 287900.19768115 9453.20343761
0.19900001 283542.15648302 9356.89160615
0.20000001 279246.52015641 10103.13957674
0.20100001 275016.02289804 9999.58306518
0.20200001 270847.01837761 9896.75051927
0.20300001 266740.92229271 9794.72712953
0.20400001 262696.56770212 9693.50380638
0.20500001 258712.67453096 7994.22202087
0.20600001 254789.09540384 7911.20178624
0.20700001 250925.39773868 10960.42189131
0.20800001 247120.39323144 9296.66963282
0.20900001 243376.14439960 9199.61869318
0.21000001 239686.95770195 11379.13885482
0.21100001 236056.34217282 7506.59203596
0.21200001 232481.21186255 8913.33008418
0.21300001 228961.91865917 10289.54911099
0.21400001 225498.18335641 8726.78010847
0.21500001 222089.95572342 9354.42937732
0.21600001 218733.98846147 8543.74999324
0.21700001 215431.88198290 8453.54744869
0.21800001 212182.31030092 7667.20814523
0.21900001 208983.45584479 8275.74524274
0.22000001 205835.48532671 7505.79132733
0.22100001 202739.34797213 8101.46472803
0.22200001 199692.37963462 8015.65249755
0.22300001 196694.08136721 9252.49002502
0.22400001 193743.26777196 7846.60271580
0.22500001 190842.48862496 7116.51673735
0.22600001 187986.52117123 9601.41202285
0.22700001 185177.94814393 9499.62918901
0.22800001 182414.06335040 7519.10804688
0.22900001 179694.89088655 10539.10584890
0.23000001 177020.32273904 7360.50536758
0.23100001 174390.27913025 8496.29480104
0.23200001 171801.24596598 7205.34459658
0.23300001 169255.68656877 8317.22483135
0.23400001 166750.60574644 5877.95913056
0.23500001 164286.03760079 5815.72600613
0.23600001 161862.16158989 11508.40023335
0.23700001 159477.75316625 7970.69848025
0.23800001 157131.84638136 7886.44774290
0.23900001 154824.24226101 6131.04028353
0.24000001 152553.58390737 5514.81231910
0.24100001 150320.94490804 6547.98066992
0.24200001 148124.46930331 8098.70574224
0.24300001 145962.94330496 6410.69277320
0.24400001 143836.47156333 5814.58963800
0.24500001 141743.79755420 8368.55420347
0.24600001 139685.20881991 6210.40467792
0.24700001 137660.37030241 7169.35242450
0.24800001 135667.70433862 7094.06459546
0.24900001 133705.79493123 6518.15781126
0.25000001 131776.47891824 4961.38466599
0.25100001 129877.26039477 6382.16887773
0.25200001 128009.99057977 6315.37318403
0.25300001 126170.66400279 7210.65378890
0.25400001 124361.46812395 4756.82638079
0.25500001 122579.29423630 4707.04512137
0.25600001 120826.54355910 5123.64982204
0.25700001 119100.42453031 5070.10531214
0.25800001 117401.21519199 5929.34865381
0.25900001 115729.39268957 4964.79118129
0.26000001 114082.67242544 5359.60420414
0.26100001 112461.04597791 5745.63511087
0.26200001 110865.46607282 5685.73569658
0.26300001 109293.17146607 6059.21371279
0.26400001 107745.58977103 5139.46487527
0.26500001 106221.53945398 5085.88754972
0.26600001 104720.21810348 7549.28088031
0.26700001 103241.90427740 4150.32474835
0.26800001 101785.99681683 4928.47819909
0.26900001 100350.93211082 4470.63423709
0.27000001 98938.02606946  4826.19714005
0.27100001 97545.72563696  4775.83895319
0.27200001 96174.68533681  4332.18890601
0.27300001 94823.65685589  4676.70297745
0.27400001 93490.92398902  3856.50079705
0.27500001 92179.71247127  4579.48833230
0.27600001 90885.23990716  4531.53827623
0.27700001 89611.58738602  5231.52471919
0.27800001 88354.98864694  5176.71902982
0.27900001 87116.93034935  4024.80237263
0.28000001 85895.98580846  3982.56757050
0.28100001 84692.79372250  3940.75587842
0.28200001 83506.88378108  5317.30107643
0.28300001 82337.55889706  3858.33819253
0.28400001 81184.13000987  3817.68389441
0.28500001 80047.49502815  3777.44146917
0.28600001 78926.43213118  3397.78306407
0.28700001 77821.53578198  4034.26860589
0.28800001 76730.48391131  3658.89329850
0.28900001 75656.42891360  3291.05481352
0.29000001 74596.07664738  3907.34267974
0.29100001 73551.05715744  3543.69010159
0.29200001 72519.88483253  4780.87363389
0.29300001 71503.29779109  4099.28425641
0.29400001 70499.78776041  3431.57733168
0.29500001 69511.21617721  4320.81740211
0.29600001 68535.02398577  3358.55900941
0.29700001 67572.49179554  3020.49052624
0.29800001 66623.44343491  4780.89852721
0.29900001 65687.59820140  4138.31888259
0.30000001 64763.43954182  3508.88332049
0.30100001 63853.10025809  3181.80013649
0.30200001 62954.12400459  3147.39157861
0.30300001 62068.26407704  4245.46946386
0.30400001 61194.19645962  3359.56154468
0.30500001 60332.52549290  2769.26305123
0.30600001 59481.54428197  2739.12524386
0.30700001 58643.13595495  2709.31300939
0.30800001 57815.98329081  3751.67933336
0.30900001 57000.58507449  2650.52733145
0.31000001 56196.51703343  2883.72440810
0.31100001 55402.90229125  3111.42713999
0.31200001 54621.50161229  2820.92758433
0.31300001 53850.05889475  3550.87305164
0.31400001 53091.01578668  3010.26073763
0.31500001 52341.19797210  2977.16748161
0.31600002 51603.51070408  3925.99528025
0.31700002 50875.51706599  2912.11473474
0.31800002 50158.00390243  2640.06666041
0.31900002 49451.51926524  2848.40764455
0.32000002 48755.57899320  2582.33936365
0.32100002 48069.27443899  2321.74606534
0.32200002 47394.37982544  2755.50937353
0.32300002 46727.87318086  2725.16969295
0.32400002 46072.84870703  3369.07722123
0.32500002 45427.22495647  3554.22624889
0.32600002 44791.88384625  2856.15460870
0.32700002 44166.59787693  2607.59606213
0.32800002 43551.83040434  2579.13951868
0.32900002 42945.16778000  2763.52167751
0.33000002 42349.51378625  2943.71484268
0.33100002 41762.57403282  2911.68679945
0.33200002 41186.69584169  2468.73066566
0.33300002 40619.68125774  2035.04612738
0.33400002 40062.75489108  2214.46888147
0.33500002 39515.16816511  2190.72102682
0.33600002 38976.63341481  2758.37647739
0.33700002 38447.37454844  2728.99477468
0.33800002 37928.68869629  2314.40869385
0.33900002 37418.28162684  2862.49868001
0.34000002 36917.39617352  2077.15739407
0.34100002 36425.93524069  1868.65056634
0.34200002 35944.43583788  2404.14370487
0.34300002 35471.18875107  2013.34476886
0.34400002 35008.08245671  2174.00202352
0.34500002 34553.60907278  1972.66563539
0.34600002 34108.94182774  2485.51870870
0.34700002 33672.08897091  2284.98806579
0.34800002 33245.21830265  2436.54216480
0.34900002 32826.85504893  2068.09196603
0.35000002 32417.86156307  1877.48054135
0.35100002 32018.32937595  1690.56787112
0.35200002 31626.18747841  2344.44938881
0.35300002 31244.17939181  2322.69240600
0.35400002 30870.25321937  3287.68212358
0.35500002 30505.55986863  2280.59576380
0.35600002 30149.17364849  1775.93715788
0.35700002 29801.36273401  1920.39990554
0.35800002 29462.50553110  2221.17839720
0.35900002 29132.67726012  1730.48111122
0.36000002 28811.18789707  1716.13848838
0.36100002 28497.54181755  1856.89991279
0.36200002 28193.84799127  2149.21713418
0.36300002 27897.03682034  2284.76742381
0.36400002 27609.21460596  1813.92548553
0.36500002 27328.86757400  1800.42588106
0.36600002 27057.75081347  1787.43510341
0.36700002 26794.06691111  1922.74233262
0.36800002 26539.53234964  1468.96318514
0.36900002 26292.65696395  2042.93954287
0.37000002 26053.15643453  1594.84404669
0.37100002 25821.56711783  1873.09656746
0.37200002 25598.61637573  1718.69118488
0.37300002 25383.07831160  1708.78891288
0.37400002 25175.29781020  1416.11056891
0.37500002 24975.16482919  1831.17917202
0.37600002 24782.91137829  1681.76844580
0.37700002 24597.89381567  1673.64077450
0.37800002 24420.30809874  1527.12403930
0.37900002 24250.96552834  1382.30510060
0.38000002 24088.10204776  1927.28913614
0.38100002 23931.85120631  2331.20173644
0.38200002 23783.92952881  1503.02549778
0.38300002 23642.32707438  2178.87696640
0.38400002 23508.01621541  1764.86440098
0.38500002 23380.03983474  2030.55655584
0.38600002 23259.86056564  1620.28196376
0.38700002 23145.47031104  2290.01294106
0.38800002 23037.70648407  1747.52530814
0.38900002 22936.59126411  1475.96971777
0.39000002 22842.46290945  1741.62366704
0.39100002 22753.77727395  1471.71438380
0.39200002 22672.14770349  1470.17548748
0.39300002 22595.90379067  1602.50157276
0.39400002 22527.04153469  2002.09091125
0.39500002 22462.65775569  1734.56651407
0.39600002 22404.51326898  1467.60771122
0.39700002 22351.50141793  1467.82316766
0.39800002 22305.32518187  1601.96853046
0.39900002 22263.57645548  2003.72197593
0.40000002 22227.62974641  1738.08959037
0.40100002 22196.69319778  2007.69099486
0.40200002 22171.38390165  1340.26022036
0.40300002 22150.89769376  1879.28224938
0.40400002 22135.33101989  2554.97070403
0.40500002 22124.19836051  1886.30924159
0.40600002 22118.75989069  1485.38539084
0.40700002 22117.29080541  2030.36739214
0.40800002 22120.22370195  1357.07578841
0.40900002 22127.29855814  1905.16049613
0.41000002 22139.30612271  1501.37711585
0.41100002 22155.09929297  1506.10372130
0.41200002 22174.14919917  1648.42632957
0.41300002 22198.45098371  1654.22864569
0.41400002 22225.74566332  1936.97382634
0.41500002 22256.58425793  1666.57310820
0.41600002 22290.19660194  1394.25186352
0.41700002 22328.52429421  1399.99853958
0.41800002 22370.68044341  1546.59706574
0.41900002 22414.00772917  2682.95685231
0.42000002 22461.15820789  1418.42220804
0.42100002 22511.83753563  2137.49907529
0.42200002 22564.94074090  1431.74555785
0.42300002 22620.48997046  2157.99484544
0.42400002 22678.38148779  1445.74688835
0.42500002 22739.40079125  1453.04777941
0.42600002 22801.45190688  2044.60628938
0.42700002 22866.88474268  1614.85947705
0.42800002 22933.71523269  1770.94157419
0.42900002 23003.24961812  1632.08063775
0.43000002 23074.59933591  1790.12750131
0.43100002 23146.02819780  1649.84896812
0.43200002 23220.54007703  1658.99156442
0.43300002 23295.66915610  1819.85776071
0.43400002 23372.79736353  2287.61265036
0.43500002 23450.56861479  1687.03398609
0.43600002 23530.21393085  1542.40559626
0.43700002 23610.11999806  1861.42194886
0.43800002 23690.50656117  1872.02391718
0.43900002 23772.79053592  2353.50637459
0.44000002 23854.90016546  1735.80189280
0.44100002 23938.09826958  2063.22478763
0.44200002 24021.51594043  1915.47577186
0.44300002 24105.41737868  1926.50504820
0.44400002 24189.44804532  1776.11030690
0.44500002 24273.00647967  1948.63705254
0.44600002 24356.63050610  1959.73458340
0.44700002 24441.21799071  1642.44992681
0.44800002 24524.45878762  2147.23909091
0.44900002 24608.13323101  1827.15397899
0.45000002 24691.71006909  1670.39426534
0.45100002 24773.78412011  2351.52770013
0.45200002 24855.91464069  2195.64732384
0.45300002 24936.91900583  2207.66554421
0.45400002 25017.53755632  2048.93642297
0.45500002 25097.55579651  1716.67289784
0.45600002 25176.15624560  2588.73838864
0.45700002 25254.13164544  1734.95892627
0.45800002 25330.62115544  2092.81601905
0.45900002 25405.87890191  2454.20801824
0.46000002 25480.43629899  2819.15560573
0.46100002 25552.76551013  2124.96808053
0.46200002 25624.43126585  1957.57851933
0.46300002 25694.47023117  2682.50281927
0.46400002 25762.39095255  2156.31222493
0.46500002 25829.87579958  3069.36428674
0.46600002 25894.50939606  1995.30151608
0.46700002 25957.45351597  2733.31998478
0.46800002 26019.40224728  2379.60454531
0.46900002 26078.52960864  2390.09735191
0.47000002 26136.09440203  2585.12121983
0.47100002 26191.77528135  2781.56666672
0.47200002 26245.59026684  2234.54966123
0.47300002 26297.13685266  2430.64447450
0.47400002 26345.95514625  2064.86433246
0.47500002 26393.07195912  2449.80505536
0.47600002 26438.64755661  1891.68532234
0.47700002 26480.71562649  2088.53414045
