# SAXS profile: number of points = 501, q_min = 0, q_max = 0.5, delta_q = 0.001
#    q    intensity    error
0.00000000 1700912.83420644 306.16431016
0.00100000 1700830.11404560 714.34866486
0.00200000 1700581.89406325 918.31425187
0.00300000 1700168.40986307 1734.17183984
0.00400000 1699589.50182523 2039.50747969
0.00500000 1698845.72985707 1528.96121739
0.00600000 1697936.93675699 1782.83385618
0.00700000 1696863.73682992 2239.86022570
0.00800000 1695625.93207907 2975.82363644
0.00900000 1694224.78501406 4066.13965785
0.01000000 1692659.62174789 4189.33274472
0.01100000 1690931.80616253 3652.41286033
0.01200000 1689041.20720842 5269.80879754
0.01300000 1686988.98649879 4605.48013627
0.01400000 1684775.19801689 6065.19098174
0.01500000 1682401.25087033 6056.64477283
0.01600000 1679866.55577291 4712.02589959
0.01700000 1677173.37937425 5434.04199294
0.01800000 1674321.68258492 5726.18041210
0.01900000 1671312.14834318 6518.11767265
0.02000000 1668145.91573540 7356.52382117
0.02100000 1664825.05195069 6592.70750463
0.02200000 1661348.15873300 6304.81654883
0.02300000 1657718.30619665 7161.34340874
0.02400000 1653935.18951359 7442.70869218
0.02500000 1650001.36930280 11583.01014151
0.02600000 1645916.66588952 8665.75164226
0.02700000 1641683.49741359 11032.11360790
0.02800000 1637301.50486229 7834.48806005
0.02900000 1632773.36723924 9551.72463691
0.03000000 1628100.36970076 11356.00060064
0.03100000 1623282.81277756 8570.93364584
0.03200000 1618322.31475520 8811.76540970
0.03300000 1613222.65286280 9050.17949978
0.03400000 1607981.74056487 10130.28543297
0.03500000 1602603.15471646 11250.27466563
0.03600000 1597087.89058361 9750.22202261
0.03700000 1591438.16633717 15421.03654499
0.03800000 1585654.97404342 12058.90663568
0.03900000 1579740.78122748 15165.51220210
0.04000000 1573695.22786331 10646.04870982
0.04100000 1567522.55155463 9875.39253268
0.04200000 1561223.38867153 14097.84785374
0.04300000 1554798.87683609 12314.00767613
0.04400000 1548252.31034406 15676.05537026
0.04500000 1541585.20318624 18082.79527359
0.04600000 1534797.58483019 12984.38817127
0.04700000 1527893.67404183 13201.00195767
0.04800000 1520873.90840464 17885.47799502
0.04900000 1513742.41598484 15894.29610768
0.05000000 1506498.16762169 17287.06727845
0.05100000 1499146.29368788 12862.67579904
0.05200000 1491684.65010141 17788.34028142
0.05300000 1484119.70711060 19234.19230081
0.05400000 1476451.17303222 13398.79502010
0.05500000 1468681.79287903 13570.62039926
0.05600000 1460812.62940994 16236.93313357
0.05700000 1452848.67736703 16431.71930803
0.05800000 1444788.91418626 12786.38248758
0.05900000 1436636.18181703 14222.69886427
0.06000000 1428394.16116938 14376.78790384
0.06100000 1420064.13706720 17168.57621945
0.06200000 1411648.52933958 14674.08714840
0.06300000 1403150.02784725 16164.28907657
0.06400000 1394568.04664891 17676.15081793
0.06500000 1385908.43952062 15092.54361238
0.06600000 1377172.05623187 15224.63779398
0.06700000 1368360.83208408 15353.00925449
0.06800000 1359477.60096915 18291.77197726
0.06900000 1350525.02254722 17016.61608079
0.07000000 1341504.17164864 18573.12612623
0.07100000 1332417.81628485 18707.14701684
0.07200000 1323268.45718147 18836.72737042
0.07300000 1314059.04754068 18961.87294448
0.07400000 1304791.84895467 20550.47258412
0.07500000 1295468.22339659 20675.67381453
0.07600000 1286089.23869263 14854.33140328
0.07700000 1276660.98553821 16430.62765428
0.07800000 1267182.88922245 19520.95332393
0.07900000 1257657.49545461 25656.21411065
0.08000000 1248088.86854901 18197.13655709
0.08100000 1238477.85252591 16756.60613087
0.08200000 1228826.53143250 16828.78013766
0.08300000 1219137.76097805 16897.25016018
0.08400000 1209414.06534134 21588.04207966
0.08500000 1199657.00313897 15475.57606700
0.08600000 1189869.21327372 18633.35275473
0.08700000 1180054.11863718 17134.38660720
0.08800000 1170211.57925596 18746.79038010
0.08900000 1160346.41422165 18797.61279331
0.09000000 1150458.82224533 17274.14002747
0.09100000 1140551.57936794 25183.38005559
0.09200000 1130626.94387833 17349.47126901
0.09300000 1120689.35356147 18962.06475333
0.09400000 1110735.93338950 17410.78657414
0.09500000 1100772.54071528 22191.57546388
0.09600000 1090800.11407971 23806.71360889
0.09700000 1080823.63244412 15888.10814387
0.09800000 1070842.07258861 20672.60718330
0.09900000 1060858.80378369 23869.32420753
0.10000000 1050874.49307974 19104.89918264
0.10100000 1040891.53782072 19110.76953320
0.10200000 1030912.98465537 17520.36699831
0.10300000 1020940.07870532 19111.99917241
0.10400000 1010976.13956372 17515.16244194
0.10500000 1001023.21799388 17507.89690645
0.10600001 991078.95118637 19088.18149802
0.10700001 981150.97991558 27020.89925842
0.10800001 971237.55308173 15879.73474021
0.10900001 961342.96103908 17448.37556408
0.11000001 951466.90992582 25347.07967350
0.11100001 941612.42050491 20564.81623188
0.11200001 931780.61810460 17373.05044243
0.11300001 921973.60319957 23648.62403547
0.11400001 912193.50425885 17308.87255829
0.11500001 902442.30610231 17272.74655214
0.11600001 892720.38703929 17233.96788337
0.11700001 883031.31424558 23444.48249734
0.11800001 873373.79924620 18707.66766095
0.11900001 863750.80225991 18657.01820759
0.12000001 854163.78012401 21704.30267533
0.12100001 844617.10923834 18547.79259263
0.12200001 835108.45352804 18489.30203217
0.12300001 825642.09576607 19964.02681622
0.12400001 816216.36595055 22956.08637399
0.12500001 806834.20051265 15249.16710824
0.12600001 797498.95039993 18230.82686524
0.12700001 788209.37608362 19673.70695420
0.12800001 778967.34536755 19594.92449621
0.12900001 769774.92456892 19513.79525755
0.13000001 760633.20585606 26903.59775923
0.13100001 751541.75852337 16368.58027221
0.13200001 742504.34471854 20738.14732559
0.13300001 733520.72523862 16218.14399960
0.13400001 724591.33786818 22009.46292540
0.13500001 715719.08493234 21901.00503152
0.13600001 706903.73608860 15979.55970773
0.13700001 698147.02237344 18787.13725794
0.13800001 689447.56343331 15812.48061299
0.13900001 680810.52089833 14297.02161309
0.14000001 672233.09222404 17061.27668527
0.14100001 663718.95300607 22619.54298525
0.14200001 655266.85046831 15461.02206602
0.14300001 646879.84827971 15369.86592009
0.14400001 638553.93555260 18055.11337941
0.14500001 630296.23523408 20705.23230415
0.14600001 622103.48251679 17832.59716758
0.14700001 613978.86189213 13630.33137704
0.14800001 605919.27329830 17604.98531626
0.14900001 597928.57309807 14798.73288239
0.15000001 590005.86371601 13363.63344370
0.15100001 582152.70329619 18582.31516602
0.15200001 574369.75482106 13181.78649515
0.15300001 566657.26806709 15707.74021205
0.15400001 559012.99293763 14296.75796906
0.15500001 551441.88161041 20645.98502184
0.15600001 543940.13319965 16652.72796383
0.15700001 536513.40746692 16529.97886422
0.15800001 529155.26297617 16406.45970294
0.15900001 521871.88808842 13777.41849584
0.16000001 514659.07747637 14914.82076928
0.16100001 507521.55259233 14799.32917218
0.16200001 500456.59158567 12236.16424189
0.16300001 493464.61706968 13353.15316828
0.16400001 486546.92247798 12042.03689983
0.16500001 479702.03896350 13139.03946752
0.16600001 472932.03319254 14216.33758896
0.16700001 466234.41667435 15273.84021140
0.16800001 459611.31545843 13981.37687640
0.16900001 453063.55008151 13863.74528711
0.17000001 446588.36550133 13745.99053921
0.17100001 440187.77222375 12492.52956562
0.17200001 433860.51980482 11258.68102060
0.17300001 427607.65839507 13392.67249340
0.17400001 421429.17367059 16593.77449694
0.17500001 415323.33324355 17543.25842473
0.17600001 409289.75976746 14126.63672556
0.17700001 403332.58162095 12922.77652549
0.17800001 397446.59601247 16007.16241045
0.17900001 391633.27522024 13746.32860952
0.18000001 385894.32534674 11524.73457085
0.18100001 380228.12550502 13494.29681160
0.18200001 374631.71498312 13368.73338068
0.18300001 369108.50947823 10187.39534284
0.18400001 363656.39466258 16146.34468578
0.18500001 358276.31594667 11995.09162457
0.18600001 352967.35097884 10890.80812897
0.18700001 347727.87750564 10786.51926983
0.18800001 342557.40796609 11653.80356960
0.18900001 337460.28761870 12502.90424700
0.19000001 332428.44668720 13333.70562662
0.19100001 327468.24672890 10374.19454655
0.19200001 322574.69475878 10272.39163998
0.19300001 317751.31147036 10171.21996078
0.19400001 312993.59568392 11901.58203828
0.19500001 308303.63237891 9970.53994229
0.19600001 303678.89941807 13460.56785280
0.19700001 299122.20976198 13325.89507465
0.19800001 294629.70353127 8794.69706604
0.19900001 290202.56774442 12188.50842129
0.20000001 285838.21984060 10341.62728259
0.20100001 281539.36400654 11089.83607235
0.20200001 277302.39428222 10132.62996598
0.20300001 273128.67633198 8357.73789078
0.20400001 269017.03142205 10753.95633939
0.20500001 264966.17838846 10643.69188896
0.20600001 260976.02751641 8103.30603741
0.20700001 257046.18373048 13633.73022952
0.20800001 253175.46425845 11905.57676953
0.20900001 249365.83333872 11782.53618223
0.21000001 245611.52099431 10883.04700972
0.21100001 241916.38672804 11539.41219243
0.21200001 238277.00317686 7612.95061140
0.21300001 234693.78301838 9040.40494926
0.21400001 231166.83138734 10437.18293057
0.21500001 227695.44328754 10328.26579582
0.21600001 224276.90855208 7300.21371851
0.21700001 220912.68612160 8668.61421326
0.21800001 217601.34221952 9292.66575885
0.21900001 214340.94969440 11317.20267896
0.22000001 211132.12011613 7698.93312406
0.22100001 207975.36039058 9003.25377701
0.22200001 204868.37852202 9593.98661983
0.22300001 201810.36679817 10171.24296758
0.22400001 198800.17498500 12077.11120142
0.22500001 195840.66144005 6638.99873676
0.22600001 192926.21049927 7882.96533377
0.22700001 190059.74113625 6500.04345424
0.22800001 187238.13568648 8361.11934448
0.22900001 184462.04675411 7000.33500537
0.23000001 181730.82402671 6296.97335032
0.23100001 179044.60072006 8099.97811965
0.23200001 176399.79650959 6781.69049754
0.23300001 173798.95653438 6710.37802916
0.23400001 171238.75555552 7847.01634446
0.23500001 168719.90386395 8361.75883098
0.23600001 166242.13147068 5909.90805330
0.23700001 163803.98906916 9356.48429817
0.23800001 161405.03160519 7522.28185375
0.23900001 159044.76226914 5725.61171251
0.24000001 156721.96791639 6798.59928979
0.24100001 154437.52345510 6166.69060325
0.24200001 152189.78371339 5547.31787875
0.24300001 149977.46500518 8782.68076615
0.24400001 147800.50159525 5974.83555962
0.24500001 145657.90172773 5912.25451080
0.24600001 143549.75150658 5850.37039940
0.24700001 141476.01603475 7894.36206819
0.24800001 139434.82913102 5728.68022585
0.24900001 137424.69286708 5668.76884894
0.25000001 135447.79060053 5099.60955736
0.25100001 133501.27959483 6560.25318965
0.25200001 131587.42695245 6491.86601583
0.25300001 129701.69246795 6424.12513187
0.25400001 127846.68940153 6846.19054135
0.25500001 126019.10054560 6290.87379687
0.25600001 124221.49675977 5746.48671199
0.25700001 122450.90649028 4738.85030538
0.25800001 120707.55808013 7034.23327994
0.25900001 118992.32236066 5568.84094997
0.26000001 117302.35955832 5051.62635340
0.26100001 115638.14787541 7271.32708246
0.26200001 114000.29029354 4947.04283137
0.26300001 112386.22337172 5340.59358733
0.26400001 110797.36232551 4404.19536084
0.26500001 109232.43377010 4794.21174503
0.26600001 107690.67725982 6038.21655968
0.26700001 106172.36910276 5975.38121586
0.26800001 104677.02620793 5068.46184883
0.26900001 103202.79900216 5015.65626885
0.27000001 101751.15766410 6617.89560765
0.27100001 100320.71288022 4502.39380713
0.27200001 98911.91165461  6075.66446091
0.27300001 97523.53653308  5611.50455767
0.27400001 96153.85082690  4759.61584118
0.27500001 94806.21916041  5494.96872259
0.27600001 93475.79032249  5437.48698039
0.27700001 92166.54956824  4996.34888855
0.27800001 90874.71055975  4563.72818030
0.27900001 89601.87610758  6021.24635940
0.28000001 88346.63191697  4468.57285385
0.28100001 87109.42208884  4421.67447450
0.28200001 85890.12921340  4375.24338921
0.28300001 84687.78711582  5772.31984302
0.28400001 83501.66118464  4640.60503998
0.28500001 82332.78229540  4238.49183318
0.28600001 81179.92588820  3844.27557239
0.28700001 80043.65290670  4841.04035694
0.28800001 78921.48875478  4105.49603935
0.28900001 77816.97698940  4400.55025704
0.29000001 76726.37113593  5358.57001378
0.29100001 75651.48172729  4638.94907910
0.29200001 74591.00702777  3933.92989686
0.29300001 73545.43096301  3567.68902490
0.29400001 72513.25323664  4171.32508989
0.29500001 71496.43923199  4126.77466782
0.29600001 70492.43809737  4396.61357226
0.29700001 69502.39575350  3417.43296097
0.29800001 68526.29772423  3688.08551811
0.29900001 67563.80188721  3040.37122885
0.30000001 66613.22838853  3308.34614453
0.30100001 65677.01468810  2975.16890622
0.30200001 64752.38630695  2942.99609697
0.30300001 63841.39424058  3202.28448671
0.30400001 62942.46829878  4607.38889759
0.30500001 62056.35246492  3702.90272689
0.30600001 61181.13708851  2817.39149631
0.30700001 60318.92656891  5016.12217095
0.30800001 59468.41941832  3031.99750759
0.30900001 58629.97274798  3544.18202041
0.31000001 57803.25313695  3235.82626381
0.31100001 56987.20107425  2933.70125020
0.31200001 56183.74788627  2637.82708815
0.31300001 55390.56904425  3391.56470316
0.31400001 54610.12155443  3354.42687530
0.31500001 53839.16233255  3317.56934001
0.31600002 53080.76800365  3533.58689331
0.31700002 52332.43885757  2496.25745170
0.31800002 51594.80479233  3950.09844193
0.31900002 50868.50487887  3906.70135968
0.32000002 50153.23975337  2897.85433016
0.32100002 49447.69685481  2627.15625829
0.32200002 48753.94661229  3779.40612034
0.32300002 48068.95755768  3036.99688230
0.32400002 47395.85404395  2541.60279345
0.32500002 46732.13758094  3199.28229028
0.32600002 46079.15126706  2486.20072434
0.32700002 45436.51849059  2459.02449715
0.32800002 44804.68594063  2874.44476263
0.32900002 44181.27369610  2843.06509697
0.33000002 43569.03542703  2163.20271139
0.33100002 42965.82317956  2995.57733393
0.33200002 42373.98142582  2751.55461419
0.33300002 41791.25008338  2303.11590116
0.33400002 41218.84621538  3313.99539265
0.33500002 40656.08444304  2458.88010356
0.33600002 40102.62277424  3040.78151586
0.33700002 39558.70937356  3008.43999033
0.33800002 39025.55982576  2778.22973557
0.33900002 38501.02611317  1963.55242476
0.34000002 37986.20216122  2525.89263233
0.34100002 37481.17157717  2115.06261227
0.34200002 36986.08942123  2093.22782993
0.34300002 36499.63200147  2260.05732057
0.34400002 36023.45706464  2237.05678966
0.34500002 35556.27837330  2952.59349595
0.34600002 35099.13641728  1826.91013704
0.34700002 34649.91967978  1989.59848224
0.34800002 34210.91452185  2328.22389805
0.34900002 33780.64290473  1950.83222014
0.35000002 33359.97470470  2107.68330167
0.35100002 32948.93319202  1913.67413043
0.35200002 32545.52735231  1895.61433042
0.35300002 32152.41587461  2048.75203657
0.35400002 31767.50398029  2199.10556719
0.35500002 31392.08906905  2011.60516282
0.35600002 31025.28155474  2159.82507773
0.35700002 30667.07096036  2140.86832514
0.35800002 30318.11348141  2122.41963479
0.35900002 29978.31008876  2104.47746791
0.36000002 29647.04101394  2247.54228572
0.36100002 29323.78066786  1910.73763882
0.36200002 29010.66927061  1737.59411827
0.36300002 28704.53901910  2037.44827608
0.36400002 28407.51588003  1710.84272491
0.36500002 28118.28508911  1852.43270942
0.36600002 27838.30862203  1532.49896223
0.36700002 27566.01212504  2282.46591207
0.36800002 27302.94398889  1511.21802137
0.36900002 27047.66063273  1651.25975985
0.37000002 26799.93176530  1789.69952806
0.37100002 26560.28658782  2371.30249889
0.37200002 26329.34440046  1473.12688899
0.37300002 26106.00606181  1464.54700944
0.37400002 25890.54310544  2038.88036614
0.37500002 25682.79360635  1738.21155362
0.37600002 25483.13827022  1873.39299868
0.37700002 25290.90731444  2294.39122026
0.37800002 25105.99626070  1712.73114604
0.37900002 24929.62510677  1563.08756824
0.38000002 24759.76374885  1698.02467834
0.38100002 24596.64458393  1409.38780143
0.38200002 24441.99267102  1825.45030911
0.38300002 24293.80770567  2098.98508521
0.38400002 24152.97610887  1534.31788000
0.38500002 24018.55626633  1807.87681581
0.38600002 23891.99455392  1803.00945443
0.38700002 23771.40282190  1383.49570978
0.38800002 23657.40011050  1794.53217040
0.38900002 23550.26534483  2342.07399950
0.39000002 23450.14762860  1512.88634593
0.39100002 23355.54492029  1510.63671701
0.39200002 23268.20626243  1371.66082415
0.39300002 23186.14870304  1507.33159860
0.39400002 23111.64339049  2054.04740365
0.39500002 23041.65362035  1505.54171888
0.39600002 22977.99741653  1778.84175428
0.39700002 22919.56653904  1778.78764337
0.39800002 22868.06289668  1505.51899213
0.39900002 22820.89170239  1916.95499382
0.40000002 22779.79082490  1370.20448304
0.40100002 22743.61554472  1782.87210702
0.40200002 22713.11230157  1647.60924442
0.40300002 22687.59242450  2474.76269892
0.40400002 22667.09724190  1790.13408950
0.40500002 22650.97423817  1379.44439646
0.40600002 22640.56925099  2073.31022739
0.40700002 22634.27330335  1662.26111016
0.40800002 22632.34521145  1666.19333341
0.40900002 22634.71527669  1948.84907766
0.41000002 22641.99928119  1535.46725401
0.41100002 22653.12349346  1539.95940805
0.41200002 22667.45715066  2106.37355553
0.41300002 22687.18147755  1690.64884381
0.41400002 22709.88569416  1837.79758688
0.41500002 22736.19767543  1560.61268239
0.41600002 22765.23675932  1423.96562677
0.41700002 22799.08282503  1715.40307304
0.41800002 22836.83858225  1578.82491020
0.41900002 22875.74550715  1873.52364581
0.42000002 22918.44394057  2170.94970514
0.42100002 22964.87771700  2471.25060823
0.42200002 23013.56410913  1898.27392549
0.42300002 23064.75497376  1613.61033443
0.42400002 23118.31070432  1473.79237724
0.42500002 23175.11294989  2221.33468151
0.42600002 23232.91645267  1636.87520624
0.42700002 23294.02608139  1794.57185435
0.42800002 23356.60581890  1803.59718680
0.42900002 23421.95232756  1963.93079573
0.43000002 23489.15830395  2126.00381884
0.43100002 23556.38604309  1831.74466551
0.43200002 23626.66160457  1688.00691833
0.43300002 23697.66543876  2005.53352112
0.43400002 23770.59601909  1861.23775650
0.43500002 23844.26523518  2027.23952636
0.43600002 23919.67599458  1881.52180290
0.43700002 23995.50141523  2207.10632477
0.43800002 24071.76027251  1585.12548906
0.43900002 24149.89785858  2231.45066788
0.44000002 24227.86588227  2083.47542528
0.44100002 24306.89815579  1772.70216651
0.44200002 24386.21391302  1782.51039045
0.44300002 24465.98717368  1629.43482299
0.44400002 24545.88561342  1802.28173658
0.44500002 24625.37638542  1976.92530991
0.44600002 24704.85097379  2319.04447081
0.44700002 24785.31771795  2831.47483029
0.44800002 24864.34172045  1842.07484366
0.44900002 24943.97893585  1683.71865796
0.45000002 25023.40832657  2369.96711493
0.45100002 25101.38880610  2382.62393839
0.45200002 25179.41867471  1710.94158003
0.45300002 25256.21558013  1719.94836252
0.45400002 25332.70722611  1901.85308513
0.45500002 25408.60886268  2085.53871429
0.45600002 25483.03190328  2096.23430371
0.45700002 25556.91036074  2282.48777249
0.45800002 25629.22983507  1764.57255777
0.45900002 25700.24592673  1773.31705299
0.46000002 25770.68286955  2138.45136587
0.46100002 25838.79200698  2327.81688223
0.46200002 25906.20462300  2338.94179524
0.46300002 25972.18158282  2711.49588576
0.46400002 26035.86849578  1997.60210502
0.46500002 26099.14579955  1824.33037785
0.46600002 26159.60647465  2015.72857244
0.46700002 26218.28297835  2024.57590755
0.46800002 26276.04633143  2033.37194173
0.46900002 26330.87553086  2227.59217549
0.47000002 26384.29078016  2609.67032476
0.47100002 26435.74100063  2058.81560671
0.47200002 26485.26953523  2067.04295885
0.47300002 26532.62232681  2075.11649053
0.47400002 26577.17789886  2082.98641655
0.47500002 26619.95344844  2090.73124294
0.47600002 26661.28014099  2289.13762141
0.47700002 26699.07749634  3062.91831556
