# SAXS profile: number of points = 501, q_min = 0, q_max = 0.5, delta_q = 0.001
#    q    intensity    error
0.00000000 1682732.95097188 353.37391970
0.00100000 1682650.68046617 504.79521613
0.00200000 1682403.80391305 908.49808288
0.00300000 1681992.55864714 1009.19557114
0.00400000 1681416.80622223 1639.38144836
0.00500000 1680677.05701481 1663.87035230
0.00600000 1679773.19979603 2116.51431791
0.00700000 1678705.82619847 2417.33649019
0.00800000 1677474.75253222 2491.05011268
0.00900000 1676081.22340851 3016.94633110
0.01000000 1674524.57518802 3868.15193571
0.01100000 1672806.14994334 3914.36656130
0.01200000 1670925.83747251 3909.96663111
0.01300000 1668884.79871478 5607.45317100
0.01400000 1666683.07986503 4500.04451513
0.01500000 1664322.09453002 5592.12248663
0.01600000 1661801.23999925 4661.35268658
0.01700000 1659122.76085329 4927.59482078
0.01800000 1656286.65807526 4720.41718792
0.01900000 1653293.60590539 6447.84535397
0.02000000 1650144.72449743 6757.34295249
0.02100000 1646842.06675597 7064.95278670
0.02200000 1643384.26562957 5669.67597401
0.02300000 1639774.40984598 7083.82577298
0.02400000 1636012.11769955 7362.05486534
0.02500000 1632099.90093329 10820.82283738
0.02600000 1628037.78830314 7912.26401305
0.02700000 1623828.07664035 10230.11735138
0.02800000 1619470.31644994 8453.63543955
0.02900000 1614967.25423766 10901.02946662
0.03000000 1610320.19967239 9734.38605446
0.03100000 1605529.52545707 10789.15890751
0.03200000 1600596.59849054 13469.02099666
0.03300000 1595525.36771846 9764.61570059
0.03400000 1590313.80527164 10853.89222178
0.03500000 1584965.36026488 10270.57600879
0.03600000 1579481.04841679 10519.34426859
0.03700000 1573863.04587430 16147.83559747
0.03800000 1568112.46659053 11008.15002492
0.03900000 1562231.64983714 13122.74646635
0.04000000 1556220.32090539 10527.83095877
0.04100000 1550082.58579009 12695.17696625
0.04200000 1543819.29911015 13940.68891771
0.04300000 1537431.32431832 14205.86609611
0.04400000 1530922.12791448 12400.46981201
0.04500000 1524293.21584339 10517.62367802
0.04600000 1517544.50811541 18187.77177526
0.04700000 1510680.24707559 14139.96777025
0.04800000 1503701.01819881 12157.42329780
0.04900000 1496610.67641896 13469.49671474
0.05000000 1489408.49913473 14812.16821364
0.05100000 1482099.26772699 12716.41230948
0.05200000 1474681.14981973 12896.08725615
0.05300000 1467160.40976185 13072.39986039
0.05400000 1459536.80274747 14449.41502103
0.05500000 1451813.04721055 15853.79921511
0.05600000 1443990.28335962 13580.72924873
0.05700000 1436073.49352165 16241.99196988
0.05800000 1428061.54236685 13902.17976407
0.05900000 1419957.28503769 12779.61616222
0.06000000 1411764.47300398 16792.93919093
0.06100000 1403484.30274993 14357.64508808
0.06200000 1395119.24768133 13183.87750685
0.06300000 1386672.10048717 14643.25806579
0.06400000 1378141.89627068 14780.57252874
0.06500000 1369534.88513381 14914.23559676
0.06600000 1360851.86336541 20514.84280009
0.06700000 1352094.34441005 16549.63555008
0.06800000 1343265.61553513 20854.19965735
0.06900000 1334368.19560811 16813.04005183
0.07000000 1325403.12246154 16938.65269827
0.07100000 1316373.15080931 19903.56297248
0.07200000 1307280.87261787 18609.14409349
0.07300000 1298128.95579791 17291.07850141
0.07400000 1288920.05739255 17400.42159026
0.07500000 1279655.07041246 18964.48903243
0.07600000 1270335.65677489 16139.61527596
0.07700000 1260967.17446825 22129.97494956
0.07800000 1251549.60737826 20763.20896012
0.07900000 1242085.33071249 16395.52713442
0.08000000 1232578.31906345 14975.82727915
0.08100000 1223029.43385662 15043.26274224
0.08200000 1213440.62846910 18128.80384003
0.08300000 1203815.24368195 15168.07278226
0.08400000 1194155.18019568 16748.02718837
0.08500000 1184462.48842497 16807.52349978
0.08600000 1174739.42408766 18396.42024495
0.08700000 1164989.45154934 23066.79222384
0.08800000 1155212.64303019 16964.29845961
0.08900000 1145413.75561512 21648.32099794
0.09000000 1135592.71094005 20151.09360224
0.09100000 1125752.57646516 20196.00217062
0.09200000 1115895.56072714 23350.11570536
0.09300000 1106026.09324026 21832.95610654
0.09400000 1096141.13276966 23430.01781410
0.09500000 1086246.59917966 21898.73246876
0.09600000 1076343.46358271 18792.95775757
0.09700000 1066436.55041727 17244.27983095
0.09800000 1056525.10597455 15689.39856140
0.09900000 1046612.36048838 17269.10476009
0.10000000 1036698.93719145 17276.58860076
0.10100000 1026787.26410927 18851.81505568
0.10200000 1016880.36416072 15710.80236526
0.10300000 1006979.52519531 15708.88133200
0.10400000 997087.77030403 17274.54643320
0.10500000 987207.56876472 17266.26119006
0.10600001 977336.32626024 23529.37316186
0.10700001 967481.66067115 21942.48509658
0.10800001 957641.82104656 21920.42231537
0.10900001 947821.26346456 23458.57737484
0.11000001 938019.50276208 18741.63054735
0.11100001 928239.37220314 21832.19106193
0.11200001 918482.53204099 17125.10761610
0.11300001 908750.38877579 17093.59561765
0.11400001 899045.73405262 23262.80946393
0.11500001 889370.05659060 15475.03971336
0.11600001 879724.06968494 24702.65304004
0.11700001 870111.11098244 33882.12825733
0.11800001 860529.86858951 15360.45887777
0.11900001 850983.36000203 18381.24144183
0.12000001 841473.09988345 18327.28497877
0.12100001 832003.28559630 15225.66084366
0.12200001 822571.85849563 22764.67725634
0.12300001 813182.51591637 16637.71505952
0.12400001 803834.36968708 21100.65319850
0.12500001 794529.85738120 16518.27651330
0.12600001 785272.39245333 19447.27171553
0.12700001 776060.80673012 20860.51546799
0.12800001 766896.84800547 17807.34564993
0.12900001 757782.76633030 17732.11756788
0.13000001 748719.30274837 20597.26898946
0.13100001 739706.40521066 19040.04376762
0.13200001 730747.37502173 17494.09298270
0.13300001 721842.40047652 15959.93622694
0.13400001 712991.76211360 15881.89224984
0.13500001 704198.35919233 17238.77664581
0.13600001 695461.99185897 15720.91906723
0.13700001 686784.11986533 15638.07514672
0.13800001 678163.87905095 19795.60456297
0.13900001 669605.71188626 15467.89267401
0.14000001 661107.46152868 15380.66581783
0.14100001 652672.46837996 18072.50150179
0.14200001 644299.52740411 19348.31572051
0.14300001 635991.51630703 19232.38436027
0.14400001 627744.88815055 16384.14235357
0.14500001 619566.35491785 14925.35419403
0.14600001 611452.88818265 13482.53682046
0.14700001 603407.20857440 20093.46099347
0.14800001 595426.69074252 15969.34459913
0.14900001 587515.10263634 18506.72660621
0.15000001 579671.55288319 15755.47355075
0.15100001 571897.10722057 14343.18012587
0.15200001 564193.15300450 14243.05681969
0.15300001 556559.46589295 23141.74368387
0.15400001 548994.23625328 15316.93991429
0.15500001 541501.70465555 15205.36858431
0.15600001 534078.59585567 23897.34789940
0.15700001 526730.23404530 16228.55927687
0.15800001 519450.73835170 14866.68083331
0.15900001 512245.61254489 15982.06386576
0.16000001 505111.01016481 21957.17664830
0.16100001 498051.53789571 13312.91823638
0.16200001 491064.54337743 15608.48724807
0.16300001 484150.39961855 13101.11043215
0.16400001 477310.39922019 15357.46281993
0.16500001 470542.94527589 12888.17187957
0.16600001 463850.09957006 13943.33465138
0.16700001 457229.79435186 14978.84877019
0.16800001 450683.77106588 14852.28437675
0.16900001 444212.62381671 11327.42244219
0.17000001 437814.05593118 15721.90349087
0.17100001 431489.88820444 12245.68360550
0.17200001 425238.98615587 16552.42831777
0.17300001 419061.99449335 19687.53343103
0.17400001 412959.33444948 11924.20134536
0.17500001 406929.16753693 11817.22358337
0.17600001 400970.92778411 12774.93436255
0.17700001 395088.95515973 12658.65072119
0.17800001 389277.80521149 13587.74243268
0.17900001 383539.35221940 12426.67559886
0.18000001 377874.58148400 14363.01352064
0.18100001 372282.41082577 15244.96544343
0.18200001 366760.07834512 10067.56462614
0.18300001 361310.34711638 9972.16605149
0.18400001 355931.79206319 9877.10769636
0.18500001 350624.66561376 10760.67149604
0.18600001 345388.48429078 9688.14744206
0.18700001 340221.57869898 15350.79835614
0.18800001 335123.48000008 10450.82621756
0.18900001 330098.27668336 10348.58146297
0.19000001 325138.03359466 11178.24612314
0.19100001 320249.14489287 9223.17580871
0.19200001 315426.60046788 11871.08066953
0.19300001 310673.83690125 14464.97452963
0.19400001 305986.47699369 12530.14682499
0.19500001 301366.52067854 10632.21135197
0.19600001 296811.58326685 8770.78270001
0.19700001 292324.16947823 9550.23106817
0.19800001 287900.68760727 11171.98671057
0.19900001 283542.24950081 11058.14825314
0.20000001 279246.18731399 10103.12753451
0.20100001 275015.30420775 11666.14975586
0.20200001 270845.97717913 9896.71247388
0.20300001 266739.53881580 9794.67632826
0.20400001 262694.82995430 8077.86640290
0.20500001 258710.50334327 10392.40141052
0.20600001 254786.48772583 7911.12081783
0.20700001 250922.40888967 10177.41338564
0.20800001 247117.10457076 7747.12159450
0.20900001 243372.45588730 9966.10253970
0.21000001 239682.80851953 8344.55737307
0.21100001 236051.86829358 8257.09474325
0.21200001 232476.34053483 8170.38137435
0.21300001 228956.71250083 8084.46190060
0.21400001 225492.61759628 8726.56471354
0.21500001 222084.04964601 9354.18061333
0.21600001 218727.71524509 11391.33994853
0.21700001 215425.22198764 7044.40509205
0.21800001 212175.32054603 8363.95153138
0.21900001 208976.09946702 8965.07509102
0.22000001 205827.89251641 7505.51445549
0.22100001 202731.27641363 7426.04700616
0.22200001 199683.99306162 11355.03080237
0.22300001 196685.33946977 9252.07880615
0.22400001 193734.22497592 7192.38344233
0.22500001 190833.13913242 7763.09246700
0.22600001 187976.85346869 7040.67337961
0.22700001 185167.87573496 8232.56414449
0.22800001 182403.69584551 6892.12397345
0.22900001 179684.24527295 6199.10675508
0.23000001 177009.40146177 7973.38886592
0.23100001 174379.01780712 8495.74614935
0.23200001 171789.71588940 7204.86102515
0.23300001 169243.80673232 10098.77842533
0.23400001 166738.38848551 6465.28131930
0.23500001 164273.60436821 9304.45739148
0.23600001 161849.47936332 6329.12418985
0.23700001 159464.84744842 5692.89532317
0.23800001 157118.60030793 5632.70208746
0.23900001 154810.70581486 7245.14137483
0.24000001 152539.82854186 8822.90410019
0.24100001 150306.90460679 6001.75498484
0.24200001 148110.20903081 6478.34084945
0.24300001 145948.44980127 5875.88486694
0.24400001 143821.75169144 7928.17443702
0.24500001 141728.84500246 5752.77409078
0.24600001 139670.01252114 8797.11615479
0.24700001 137644.97014869 7680.58969763
0.24800001 135652.15459151 5066.60821368
0.24900001 133690.06348447 5514.71537962
0.25000001 131760.60840702 7441.18071182
0.25100001 129861.09909881 6872.24968943
0.25200001 127993.71037202 6314.56999994
0.25300001 126154.21937660 6248.41878134
0.25400001 124344.88351213 7134.28802904
0.25500001 122562.52811195 6588.96182303
0.25600001 120809.63882412 5122.93297672
0.25700001 119083.29725382 6451.93335047
0.25800001 117383.99693951 7296.58959499
0.25900001 115712.07956377 6317.87984311
0.26000001 114065.26479512 6251.91745923
0.26100001 112443.46445200 5302.83403447
0.26200001 110847.84282128 5684.83188808
0.26300001 109275.47024438 4760.03970908
0.26400001 107727.76004652 4710.39653092
0.26500001 106203.64430141 6780.04097303
0.26600001 104702.26859229 4612.65866110
0.26700001 103223.86332559 6224.39925307
0.26800001 101767.98408760 4927.60602270
0.26900001 100332.86587200 6095.22189016
0.27000001 98919.84264304  4825.31015247
0.27100001 97527.57446287  5172.86279431
0.27200001 96156.50622961  6300.17458631
0.27300001 94805.39866028  8182.65434561
0.27400001 93472.64804040  5398.04567979
0.27500001 92161.49420943  4197.03464492
0.27600001 90867.02151453  4153.07741487
0.27700001 89593.33136624  4109.64630427
0.27800001 88336.79325955  4805.96346474
0.27900001 87098.75091311  4755.59202493
0.28000001 85877.91416314  5429.63137994
0.28100001 84674.70589337  3581.74022881
0.28200001 83488.86090329  4607.33300701
0.28300001 82319.65199676  4208.18080925
0.28400001 81166.25931504  3816.84352494
0.28500001 80029.69500415  3776.60148600
0.28600001 78908.72537552  3397.02078820
0.28700001 77803.94930940  5377.80923081
0.28800001 76713.01924833  3990.61145019
0.28900001 75639.01559472  3619.32706752
0.29000001 74578.81615342  3255.36547919
0.29100001 73533.85675607  3542.86138621
0.29200001 72502.90586011  3505.15314972
0.29300001 71486.43641041  3783.06239391
0.29400001 70483.08174535  4990.20242379
0.29500001 69494.66359754  3394.11953077
0.29600001 68518.61399470  3663.00527755
0.29700001 67556.26667291  3623.71831587
0.29800001 66607.34613259  3584.80753856
0.29900001 65671.75533083  3546.27495574
0.30000001 64747.73371144  3800.36841010
0.30100001 63837.59074070  3470.21159694
0.30200001 62938.79995793  4290.85289026
0.30300001 62053.18932287  3395.55068050
0.30400001 61179.29877388  3358.74366169
0.30500001 60317.87752766  3876.02699343
0.30600001 59467.07768740  3012.30496287
0.30700001 58628.95091642  3250.38919269
0.30800001 57801.95804969  3750.76923542
0.30900001 56986.83999428  2649.88818519
0.31000001 56182.96795227  2620.93557906
0.31100001 55389.74303583  4147.58415489
0.31200001 54608.55887702  2820.25915673
0.31300001 53837.38380703  2535.74089737
0.31400001 53078.63245422  4012.74480353
0.31500001 52329.06468952  3472.55689721
0.31600002 51591.65979582  2453.18353944
0.31700002 50863.96984003  2911.45377149
0.31800002 50146.71803442  3839.23291450
0.31900002 49440.54914133  3559.71970672
0.32000002 48744.86915691  3755.30489766
0.32100002 48058.91414055  3946.11762693
0.32200002 47384.27937393  2984.49897768
0.32300002 46718.09947504  3178.69963880
0.32400002 46063.39491025  4042.06309477
0.32500002 45418.07489350  2887.22715770
0.32600002 44783.09863407  3075.25552882
0.32700002 44158.10054618  3041.61010965
0.32800002 43543.69243544  2363.76945579
0.32900002 42937.40507372  2125.40165179
0.33000002 42342.02333602  2522.73786982
0.33100002 41755.47372157  2703.24949674
0.33200002 41179.90750023  2468.32377245
0.33300002 40613.20525574  2848.61035153
0.33400002 40056.67547868  2415.41764575
0.33500002 39509.44452072  2389.53131777
0.33600002 38971.18116976  2166.99263157
0.33700002 38442.38040806  1949.02877899
0.33800002 37923.99124504  2121.27855075
0.33900002 37413.98855037  3243.79296094
0.34000002 36913.41994081  2643.37012715
0.34100002 36422.27631304  2055.30914968
0.34200002 35941.13554109  2219.00581340
0.34300002 35468.28857247  2562.22928782
0.34400002 35005.53851201  2717.30505569
0.34500002 34551.39046985  1972.53897534
0.34600002 34107.11824466  2130.33070646
0.34700002 33670.65309597  2284.89062731
0.34800002 33244.11222106  1914.36229292
0.34900002 32826.10030382  1723.37034757
0.35000002 32417.50261510  1877.45975287
0.35100002 32018.29507876  1859.62266625
0.35200002 31626.51569107  2009.54890219
0.35300002 31244.88474714  2322.74484212
0.35400002 30871.32301360  2137.06743684
0.35500002 30507.00690633  2280.70394434
0.35600002 30150.95399389  1937.50039542
0.35700002 29803.51247648  1760.49356537
0.35800002 29465.03714230  2062.70002285
0.35900002 29135.56868346  1887.98494011
0.36000002 28814.36714662  1872.35766587
0.36100002 28501.09157849  2321.41401902
0.36200002 28197.75641205  1688.90470030
0.36300002 27901.23341986  1675.74815857
0.36400002 27613.79466445  1663.04086244
0.36500002 27333.77333046  1650.68664962
0.36600002 27062.97090383  1638.79828071
0.36700002 26799.66916818  1775.21016979
0.36800002 26545.47235633  1763.15035743
0.36900002 26298.88842480  1459.58837672
0.37000002 26059.75747345  1450.22557209
0.37100002 25828.45130849  1873.59594667
0.37200002 25605.82692849  2005.70451832
0.37300002 25390.63231209  1566.85599420
0.37400002 25183.12010656  1841.51574503
0.37500002 24983.30900386  1549.96456402
0.37600002 24791.34790074  1822.53602726
0.37700002 24606.68838366  2511.35873540
0.37800002 24429.34334851  1944.33152922
0.37900002 24260.29217848  2350.82242346
0.38000002 24097.73668364  1790.34143172
0.38100002 23941.72245209  1509.04683764
0.38200002 23794.08313244  2323.84923922
0.38300002 23652.77291367  1362.39978437
0.38400002 23518.70662991  2037.30805833
0.38500002 23390.99845770  1760.64053732
0.38600002 23271.09249078  1485.97568140
0.38700002 23156.95874771  1752.05558186
0.38800002 23049.41916327  1479.42703908
0.38900002 22948.55938292  2282.23433875
0.39000002 22854.61696149  2010.63502244
0.39100002 22766.20992960  1740.24916947
0.39200002 22684.81435870  2005.90480470
0.39300002 22608.74152148  2004.26503083
0.39400002 22540.07905250  2270.34957013
0.39500002 22476.01134990  2002.61270616
0.39600002 22418.01346845  1468.49204182
0.39700002 22365.21217651  1335.20323020
0.39800002 22319.23612005  1469.38697958
0.39900002 22277.63161391  2272.31853228
0.40000002 22241.89791692  1471.63524540
0.40100002 22211.14110981  1607.19824685
0.40200002 22185.95856390  2011.71188810
0.40300002 22165.65439943  1477.56259227
0.40400002 22150.21680887  1749.31345536
0.40500002 22139.22575814  1483.10680381
0.40600002 22133.99455021  1486.40847445
0.40700002 22132.58560730  2031.77145502
0.40800002 22135.64387384  1901.23054241
0.40900002 22142.87266397  1770.32275336
0.41000002 22155.02073184  1365.85709283
0.41100002 22170.90156777  1918.22649453
0.41200002 22190.00077178  1924.53885813
0.41300002 22214.41549506  1655.41832113
0.41400002 22241.80083797  1523.00738454
0.41500002 22272.76851081  1806.76706721
0.41600002 22306.44803833  1674.32206909
0.41700002 22344.83034147  2241.63348607
0.41800002 22387.07104996  1688.43297859
0.41900002 22430.45499149  2260.98997028
0.42000002 22477.62977737  1845.30110401
0.42100002 22528.35991339  1711.25430011
0.42200002 22581.54380608  2149.19853358
0.42300002 22637.03473491  1583.68702510
0.42400002 22694.97017172  2025.52618381
0.42500002 22756.03855706  1744.93311924
0.42600002 22818.09152067  1753.79859738
0.42700002 22883.56059758  1616.03712598
0.42800002 22950.35852667  1624.54120529
0.42900002 23019.86618348  1930.21587095
0.43000002 23091.20898062  1791.41607761
0.43100002 23162.66630425  1651.03493241
0.43200002 23237.10782962  1811.10027006
0.43300002 23312.23461911  3187.01574581
0.43400002 23389.35984450  1831.38696261
0.43500002 23467.02136495  1841.69192400
0.43600002 23546.61096307  2623.91671701
0.43700002 23626.50810794  2794.07098125
0.43800002 23706.84426700  2341.64365344
0.43900002 23789.03635480  2198.10706335
0.44000002 23871.11297051  1579.07419783
0.44100002 23954.22295997  2223.43108051
0.44200002 24037.53429074  1757.02365225
0.44300002 24121.39873800  2088.43080171
0.44400002 24205.26650215  1615.70161559
0.44500002 24288.75421103  2599.86837396
0.44600002 24372.29966734  1960.99532417
0.44700002 24456.69567822  1807.83903021
0.44800002 24539.86673676  2644.41616488
0.44900002 24623.44763579  2991.74902953
0.45000002 24706.90377522  2507.13317941
0.45100002 24788.83306215  2016.81955352
0.45200002 24870.84157477  2027.96851812
0.45300002 24951.70629119  2718.73804634
0.45400002 25032.14107984  1879.28808063
0.45500002 25112.07022025  2061.19882137
0.45600002 25190.49360903  2244.85094436
0.45700002 25268.36542091  2777.49885870
0.45800002 25344.64406376  1919.47670914
0.45900002 25419.75623553  1929.35958972
0.46000002 25494.18529287  1939.21529621
0.46100002 25566.34895609  2126.09767995
0.46200002 25637.83818602  2314.71233033
0.46300002 25707.68351387  2147.10582884
0.46400002 25775.43057992  1977.62000497
0.46500002 25842.72710535  1987.04738131
0.46600002 25907.18266505  2359.23770121
0.46700002 25969.95338887  2187.70897717
0.46800002 26031.69633021  2380.72890072
0.46900002 26090.66066294  2575.14832949
0.47000002 26148.03848230  2955.77441013
0.47100002 26203.49856849  2226.24934390
0.47200002 26257.12535233  2608.12038486
0.47300002 26308.48036006  3741.06608452
0.47400002 26357.06039445  2065.73470633
0.47500002 26403.94700277  2262.29028642
0.47600002 26449.38006675  2081.69855682
0.47700002 26491.17263459  2469.24231831
