# SAXS profile: number of points = 501, q_min = 0, q_max = 0.5, delta_q = 0.001
#    q    intensity    error
0.00000000 1700912.83420644 255.13692513
0.00100000 1700830.10871006 663.32375815
0.00200000 1700581.87011023 1071.36661209
0.00300000 1700168.35626755 1224.12126012
0.00400000 1699589.41153838 1529.63052851
0.00500000 1698845.57411698 1987.64940039
0.00600000 1697936.71651989 2139.40034991
0.00700000 1696863.45360276 2239.85985184
0.00800000 1695625.55300297 4120.37026776
0.00900000 1694224.31865111 3812.00487992
0.01000000 1692659.03395627 2792.88752662
0.01100000 1690931.10275311 3652.41134097
0.01200000 1689040.38019865 4611.08044011
0.01300000 1686987.99464131 3896.94243950
0.01400000 1684774.06886283 4548.89018759
0.01500000 1682399.93853173 5249.08804195
0.01600000 1679865.04946803 6425.48410146
0.01700000 1677171.69809618 6339.70930319
0.01800000 1674319.76895302 5248.99271186
0.01900000 1671310.03091105 5515.32335087
0.02000000 1668143.61371534 6305.58314508
0.02100000 1664822.48655511 7691.48023660
0.02200000 1661345.34627405 6304.80587555
0.02300000 1657715.22411268 7161.33009414
0.02400000 1653931.82925102 10543.81589225
0.02500000 1649997.70524880 7078.49047880
0.02600000 1645912.75007913 7332.54163698
0.02700000 1641679.28795786 9653.07465531
0.02800000 1637296.95230624 11395.58731065
0.02900000 1632768.49265357 12490.67954230
0.03000000 1628095.13182215 9084.77125315
0.03100000 1623277.31623695 8570.90462411
0.03200000 1618316.45199179 8811.73348695
0.03300000 1613216.36111975 9050.14420310
0.03400000 1607975.10540647 10130.24363147
0.03500000 1602596.08498869 12115.62696199
0.03600000 1597080.51179918 10636.55670014
0.03700000 1591430.30346720 14513.84503885
0.03800000 1585646.68303201 11131.24023003
0.03900000 1579732.06558747 11374.07139896
0.04000000 1573686.07518974 9678.16981089
0.04100000 1567512.92630484 11850.39827233
0.04200000 1561213.36832740 11076.80936217
0.04300000 1554788.35358845 13340.08469301
0.04400000 1548241.29112973 11495.69212052
0.04500000 1541573.70873995 18082.66044373
0.04600000 1534785.59030492 12984.28669758
0.04700000 1527881.13069489 16501.11697894
0.04800000 1520860.89482063 15649.65933585
0.04900000 1513728.81818473 13623.55999781
0.05000000 1506484.09548021 14981.98502720
0.05100000 1499131.65062913 12862.55016159
0.05200000 1491669.49173815 14230.52761434
0.05300000 1484103.90940704 16829.73911724
0.05400000 1476434.84898583 15834.76449381
0.05500000 1468664.84148955 12336.78524401
0.05600000 1460795.17147748 16236.73908865
0.05700000 1452830.64301968 15167.55262112
0.05800000 1444770.14211846 12786.21635477
0.05900000 1436616.91865376 20687.28459483
0.06000000 1428374.29349431 15683.55047528
0.06100000 1420043.62656903 14527.04697867
0.06200000 1411627.37074380 20009.81891562
0.06300000 1403128.20106966 13470.03136006
0.06400000 1394545.52731159 16316.18343260
0.06500000 1385885.26351672 16464.31770074
0.06600000 1377148.29370117 15224.37509919
0.06700000 1368336.36808620 15352.73476842
0.06800000 1359452.42713837 18291.43326335
0.06900000 1350499.15351786 21270.36266376
0.07000000 1341477.63336744 18572.75870371
0.07100000 1332390.51182667 14389.81820171
0.07200000 1323240.49214829 15938.43247459
0.07300000 1314030.38166982 16044.31171195
0.07400000 1304762.50740194 27889.29990272
0.07500000 1295438.07456936 19198.39316499
0.07600000 1286058.50617657 16339.37408697
0.07700000 1276629.39020857 22404.84684869
0.07800000 1267150.60483456 18018.88244576
0.07900000 1257624.49062653 19618.94297398
0.08000000 1248055.06701796 19713.03070831
0.08100000 1238443.38102250 19802.71059166
0.08200000 1228791.23635270 24477.52257676
0.08300000 1219101.80390298 16896.75179509
0.08400000 1209377.20531225 16961.51610066
0.08500000 1199619.39892777 18570.10916718
0.08600000 1189830.81326509 21738.20997899
0.08700000 1180015.11437283 15576.20024114
0.08800000 1170171.73282740 24994.86938705
0.08900000 1160305.74005221 15664.12822644
0.09000000 1150417.35214219 23554.79639161
0.09100000 1140509.35577541 20460.73880388
0.09200000 1130584.00443663 20503.14188383
0.09300000 1120645.56117475 26861.87536366
0.09400000 1110691.25925233 17410.08630701
0.09500000 1100727.15171394 25360.75476751
0.09600000 1090754.00209325 17457.51862414
0.09700000 1080776.65347928 17476.15930836
0.09800000 1070794.32001477 19081.55567983
0.09900000 1060810.17882905 15912.15343066
0.10000000 1050825.16877848 17512.00226123
0.10100000 1040841.37079555 17517.36109436
0.10200000 1030862.06461166 25482.91143582
0.10300000 1020888.25631624 17518.44330247
0.10400000 1010923.53261050 19106.45566520
0.10500000 1000969.86404988 20690.04806336
0.10600001 991024.76977558 20677.73279433
0.10700001 981096.08167868 19072.50872534
0.10800001 971181.86647816 20642.47154346
0.10900001 961286.44260166 17447.34975439
0.11000001 951409.63882682 19009.16547851
0.11100001 941554.27651333 17399.92384904
0.11200001 931721.70782705 23689.02553671
0.11300001 921913.88718304 18917.67385566
0.11400001 912132.98480851 17307.72420167
0.11500001 902381.00975247 25122.28849447
0.11600001 892658.46114518 17232.77240392
0.11700001 882968.65699067 15628.54596476
0.11800001 873310.29882896 23382.88435244
0.11900001 863686.51076899 17100.99371871
0.12000001 854098.68103036 20152.45932819
0.12100001 844551.36141787 23182.93596303
0.12200001 835041.86713318 16947.17549187
0.12300001 825574.79039955 18426.83018989
0.12400001 816148.23059046 15302.78004460
0.12500001 806765.40524983 21347.01362879
0.12600001 797429.41533338 18229.23729355
0.12700001 788139.10195576 15132.27147068
0.12800001 778896.39150896 19593.13965182
0.12900001 769703.28365157 15009.21473862
0.13000001 760560.88905773 16439.52439186
0.13100001 751468.67145583 19342.80451505
0.13200001 742430.62927164 20736.08845306
0.13300001 733446.23359778 14742.26999031
0.13400001 724516.08056020 17605.74158765
0.13500001 715643.30776134 18978.86141665
0.13600001 706827.33543795 15977.83267094
0.13700001 698069.87910456 20230.06605036
0.13800001 689369.87577750 14373.36258775
0.13900001 680732.18870162 14295.37663688
0.14000001 672154.07395435 18480.87713494
0.14100001 663639.39236756 24030.38353097
0.14200001 655186.63779207 16864.50485219
0.14300001 646799.03578562 13970.85983194
0.14400001 638472.54231182 15275.45629535
0.14500001 630214.36452047 15181.86475746
0.14600001 622021.07447782 16458.67840711
0.14700001 613895.84874565 13628.48848510
0.14800001 605835.79695690 18956.60298113
0.14900001 597844.53332078 17486.95342468
0.15000001 589921.26203510 14697.88893709
0.15100001 582067.65765739 19906.71483118
0.15200001 574284.16966792 14497.80454737
0.15300001 566571.22535066 18322.91429248
0.15400001 558926.50793915 16893.55449968
0.15500001 551354.98065001 14191.87787169
0.15600001 543852.80967662 12807.73427234
0.15700001 536425.55356620 13984.61484150
0.15800001 529067.16308862 17665.55340932
0.15900001 521783.31361748 16279.64015327
0.16000001 514570.20823224 16154.93245000
0.16100001 507432.20394837 13563.66345180
0.16200001 500366.81047073 13457.36600288
0.16300001 493374.51529279 13350.71501408
0.16400001 486456.58896485 18059.70171791
0.16500001 479611.35110963 13136.55552709
0.16600001 472841.06363439 15398.06996424
0.16700001 466143.17308187 18794.89362606
0.16800001 459519.81014633 13978.59328467
0.16900001 452971.84987149 13860.93926055
0.17000001 446496.46398771 17178.95226311
0.17100001 440095.63705201 12489.91476933
0.17200001 433768.19053536 12381.91358354
0.17300001 427515.17626189 13389.77595285
0.17400001 421336.45056870 12166.09058473
0.17500001 415230.50851294 13154.50313095
0.17600001 409196.79336534 11950.59291465
0.17700001 403239.57485727 11843.14687292
0.17800001 397353.46100565 13869.62321149
0.17900001 391540.07295707 14800.21545684
0.18000001 385801.17055518 11521.95250287
0.18100001 380134.75047005 15566.51876706
0.18200001 374538.37091642 12337.29452077
0.18300001 369015.18151076 10184.81949082
0.18400001 363563.04912689 13115.53761684
0.18500001 358183.04606778 9993.30745740
0.18600001 352874.11645700 12867.55526451
0.18700001 347634.71991198 14704.94934701
0.18800001 342464.41193423 12621.52649815
0.18900001 337367.35031521 11537.96392592
0.19000001 332335.69080911 11425.70158987
0.19100001 327375.62904582 10371.26041821
0.19200001 322482.19351769 10269.44593782
0.19300001 317659.02654393 11092.65373107
0.19400001 312901.51497778 9152.36974559
0.19500001 308211.76989424 9967.56910940
0.19600001 303587.34743383 8971.00654061
0.19700001 299030.98719460 9769.34281332
0.19800001 294538.68855608 11429.57434957
0.19900001 290111.85280819 11314.36279424
0.20000001 285747.80870327 10338.35620749
0.20100001 281449.37484497 8527.91646085
0.20200001 277212.63186527 9285.23754318
0.20300001 273039.36278006 10861.50636476
0.20400001 268928.21317556 9096.49724062
0.20500001 264877.69994616 8184.72131520
0.20600001 260888.02168862 9720.68814760
0.20700001 256958.54986186 12025.66070198
0.20800001 253088.38562613 11108.04977021
0.20900001 249279.21880071 7852.29576341
0.21000001 245525.49369102 13210.49981254
0.21100001 241830.89010741 10766.31173654
0.21200001 238192.05631016 10654.33118243
0.21300001 234609.47576641 10543.35033938
0.21400001 231083.07492264 11178.64427787
0.21500001 227612.34085868 11061.96028871
0.21600001 224194.39329551 9486.78620082
0.21700001 220830.77851325 8665.40015856
0.21800001 217520.24226962 7860.09432604
0.21900001 214260.49395945 15555.31259694
0.22000001 211052.40512593 9794.94258502
0.22100001 207896.32558424 8999.83236009
0.22200001 204790.16277393 9590.32377618
0.22300001 201732.89690701 8133.87078790
0.22400001 198723.53220117 6706.91952894
0.22500001 195764.81475620 7300.07028746
0.22600001 192851.19433683 6566.58347769
0.22700001 189985.50661036 6497.50463334
0.22800001 187164.87583076 10929.49344099
0.22900001 184389.63172656 6997.58685495
0.23000001 181659.32731200 6923.94558794
0.23100001 178973.96352040 7473.95307008
0.23200001 176330.20420675 7395.28911418
0.23300001 173730.25531154 7317.51869980
0.23400001 171171.03904476 9050.66911755
0.23500001 168653.18364053 5970.32298325
0.23600001 166176.40540783 5907.57149166
0.23700001 163739.29544166 5845.49312375
0.23800001 161341.34156676 6362.49610562
0.23900001 158982.15696335 6295.69371353
0.24000001 156660.44680674 6795.93050393
0.24100001 154377.11713951 9526.61234930
0.24200001 152130.40477406 6099.66886794
0.24300001 149919.23766054 9876.67984427
0.24400001 147743.43986338 7601.40034054
0.24500001 145601.89841668 5372.71030573
0.24600001 143494.98484070 6379.78732781
0.24700001 141422.43967520 9469.64700862
0.24800001 139382.42600336 6247.12062900
0.24900001 137373.49225335 6181.80744385
0.25000001 135397.79947582 5607.50013057
0.25100001 133452.48689415 5548.95466757
0.25200001 131539.89648330 5491.13323848
0.25300001 129655.41347907 5433.85863599
0.25400001 127801.72143902 5377.25768395
0.25500001 125975.29547493 7739.92252017
0.25600001 124179.01873500 5265.81153860
0.25700001 122409.71737486 6632.15880116
0.25800001 120667.75025855 6563.11924709
0.25900001 118953.75526827 5103.11634246
0.26000001 117265.20197950 4590.93287472
0.26100001 115602.30813882 6360.43929475
0.26200001 113965.75433857 5844.73398781
0.26300001 112353.11686776 5783.93873003
0.26400001 110765.56297136 4843.22447010
0.26500001 109202.00270100 5664.30814813
0.26600001 107661.66364386 5605.40478286
0.26700001 106144.66388219 4693.71725898
0.26800001 104650.73543668 4644.92311216
0.26900001 103177.95296873 5850.19021017
0.27000001 101727.70190273 4548.75440584
0.27100001 100298.70328047 4501.40601625
0.27200001 98891.32951250  4049.60013518
0.27300001 97504.34805661  6011.14334216
0.27400001 96136.04442181  5948.41803011
0.27500001 94789.90094550  5494.02291881
0.27600001 93460.93097824  5436.62261230
0.27700001 92153.07077536  4227.06155652
0.27800001 90862.74654920  4563.12734766
0.27900001 89591.35184094  4891.68804203
0.28000001 88337.52126653  4468.11203713
0.28100001 87101.72035529  4052.84323995
0.28200001 85883.84262244  5104.07700863
0.28300001 84682.96300213  6493.48991034
0.28400001 83498.24855095  5354.32544175
0.28500001 82330.86513835  3885.19370977
0.28600001 81179.42867241  3494.77456976
0.28700001 80044.61732825  3457.92763225
0.28800001 78923.96366491  4447.76018286
0.28900001 77820.82241941  4739.28830967
0.29000001 76731.66642879  4019.20487779
0.29100001 75658.21624655  4307.97903700
0.29200001 74599.14812402  4917.94907287
0.29300001 73554.95277280  4216.90564208
0.29400001 72524.28436868  4171.95965579
0.29500001 71508.91285064  4127.49464512
0.29600001 70506.27926472  3455.16037893
0.29700001 69517.67794692  4350.41649186
0.29800001 68542.95864965  4611.22776144
0.29900001 67581.86689876  3041.18415441
0.30000001 66632.69764182  3309.31308504
0.30100001 65697.82150122  5357.00061881
0.30200001 64774.55766814  2944.00378539
0.30300001 63864.88459216  4368.35831291
0.30400001 62967.33910439  3168.83149045
0.30500001 62082.56921678  4274.38509293
0.30600001 61208.68082679  4509.85581683
0.30700001 60347.82760341  3066.87674400
0.30800001 59498.60857870  3033.53670200
0.30900001 58661.42588782  3273.30771951
0.31000001 57835.94813694  3507.46124082
0.31100001 57021.29014211  4269.75440799
0.31200001 56218.99258392  3959.22274018
0.31300001 55427.10200199  3132.73995348
0.31400001 54647.95474349  3356.75077905
0.31500001 53878.12200045  2809.20541411
0.31600002 53121.00637812  4041.44635660
0.31700002 52373.82101439  2498.23138067
0.31800002 51637.35856303  2470.84772423
0.31900002 50912.26746185  2443.78895388
0.32000002 50198.13289931  2900.44825626
0.32100002 49493.74516028  2629.60280488
0.32200002 48801.06854906  2600.85307147
0.32300002 48117.20613255  3273.89486028
0.32400002 47445.13388801  3006.83550253
0.32500002 46782.53394738  2745.19922202
0.32600002 46130.51020740  2715.24195938
0.32700002 45488.91458287  2909.47111449
0.32800002 44858.07586688  3763.36845306
0.32900002 44235.65605237  2627.59809394
0.33000002 43624.36910077  2165.95002842
0.33100002 43022.12732357  3428.00326747
0.33200002 42431.20945000  2119.43901239
0.33300002 41849.34809059  3354.64390180
0.33400002 41277.77598738  2489.05000991
0.33500002 40715.92973120  2257.29125119
0.33600002 40163.28659831  2639.33050380
0.33700002 39620.23912390  3013.11932806
0.33800002 39087.83298083  2583.90132156
0.33900002 38564.10064051  2163.44614839
0.34000002 38049.92933220  2335.50477302
0.34100002 37545.61419450  2311.30811927
0.34200002 37051.29120554  1906.28902280
0.34300002 36565.48515393  2075.45703563
0.34400002 36089.99990058  2241.18909997
0.34500002 35623.36681881  2033.73810800
0.34600002 35166.83888232  2013.47745557
0.34700002 34718.17347264  1812.28874110
0.34800002 34279.77041550  2512.36449274
0.34900002 33849.94877676  2487.97135293
0.35000002 33429.81062303  2112.09553520
0.35100002 33019.26240831  2266.44227905
0.35200002 32616.23966708  2417.84196104
0.35300002 32223.55769529  1882.17809413
0.35400002 31839.06185869  2034.51614913
0.35500002 31464.01612562  3024.32137324
0.35600002 31097.47593170  3164.01283853
0.35700002 30739.59593422  2641.14620777
0.35800002 30390.96404197  2127.51953853
0.35900002 30051.40067595  1785.05328470
0.36000002 29720.31698128  2253.09733707
0.36100002 29397.23119517  1596.26972951
0.36200002 29084.34425268  2375.46392936
0.36300002 28778.29484045  1885.55396726
0.36400002 28481.45085033  2962.78306504
0.36500002 28192.28390386  1857.30775156
0.36600002 27912.36067970  2458.52084512
0.36700002 27640.11300450  1678.30774113
0.36800002 27377.01467676  1666.84961755
0.36900002 27121.69018730  2257.88081505
0.37000002 26873.89725931  2093.74543465
0.37100002 26634.16582035  2080.66113245
0.37200002 26403.12188385  1772.70568725
0.37300002 26179.64298694  2056.14925760
0.37400002 25963.97360389  1898.61565972
0.37500002 25756.06704580  2324.22760031
0.37600002 25556.14803782  1878.76031200
0.37700002 25363.67579312  2013.36867983
0.37800002 25178.50496458  1574.53788255
0.37900002 25001.84780435  1710.12647083
0.38000002 24831.58627138  1986.77531169
0.38100002 24668.09181293  2261.57076455
0.38200002 24513.03148800  1689.92847084
0.38300002 24364.50315097  1403.39544798
0.38400002 24223.17412994  1398.88837227
0.38500002 24088.27517912  1534.18231884
0.38600002 23961.24149217  1669.14016142
0.38700002 23840.08492685  1387.49300847
0.38800002 23725.53579580  1799.70060305
0.38900002 23617.75754010  1519.80276971
0.39000002 23517.02532991  2206.83776151
0.39100002 23421.75350550  1377.19917137
0.39200002 23333.78244592  1788.18450246
0.39300002 23251.04488704  1511.55049972
0.39400002 23175.82080544  1510.48419256
0.39500002 23105.12265635  1509.68878589
0.39600002 23040.65145833  1920.89920309
0.39700002 22981.42740698  1646.38953744
0.39800002 22929.09889453  1509.53729724
0.39900002 22881.12842925  2196.58843328
0.40000002 22839.11252970  1785.90448887
0.40100002 22802.03209656  1512.45886062
0.40200002 22770.62722973  1927.07827376
0.40300002 22744.17045570  1791.78583339
0.40400002 22722.67766103  1656.48327997
0.40500002 22705.58505632  1521.04721499
0.40600002 22694.20783010  1662.57774441
0.40700002 22686.85744882  1804.96646415
0.40800002 22683.89325814  1809.15399252
0.40900002 22685.18518874  1813.68064177
0.41000002 22691.36406334  1678.70719295
0.41100002 22701.41186807  1683.53678391
0.41200002 22714.55067720  2110.74972169
0.41300002 22733.15140262  1552.90164589
0.41400002 22754.63407323  1983.06645345
0.41500002 22779.79349659  1563.60509969
0.41600002 22807.60792876  2139.92391531
0.41700002 22840.23423376  2434.54068233
0.41800002 22876.74196522  1581.58363071
0.41900002 22914.38143427  2021.04853827
0.42000002 22955.78507554  1884.55526508
0.42100002 23000.93246767  1601.55500361
0.42200002 23048.29615330  1608.65590625
0.42300002 23098.12741270  2497.36965420
0.42400002 23150.36935755  1771.00333977
0.42500002 23205.80992044  1779.42158902
0.42600002 23262.24244365  1787.93603894
0.42700002 23321.99984507  2096.18144541
0.42800002 23383.13538035  1805.64579963
0.42900002 23447.09735276  1663.57163601
0.43000002 23512.83006226  2128.14634978
0.43100002 23578.69353236  1833.47929596
0.43200002 23647.47410278  2150.26492206
0.43300002 23717.05988457  2470.36907464
0.43400002 23788.52942152  1707.42178014
0.43500002 23860.69503932  1872.58743542
0.43600002 23934.63372444  1725.80684648
0.43700002 24008.92822392  2997.03465222
0.43800002 24083.73806534  1744.50564943
0.43900002 24160.34467510  2072.95767136
0.44000002 24236.83897214  1923.92036878
0.44100002 24314.35498201  1934.45017404
0.44200002 24392.12015229  2431.28469140
0.44300002 24470.35255770  2444.58833636
0.44400002 24548.71285972  1802.48932715
0.44500002 24626.65927911  1812.27594224
0.44600002 24704.59790818  1656.44336824
0.44700002 24783.53564194  2165.08977629
0.44800002 24861.02646509  1674.39021178
0.44900002 24939.08970074  2020.06636149
0.45000002 25017.00219944  2369.36039060
0.45100002 25093.45330140  2041.60345736
0.45200002 25169.94163764  2052.35713840
0.45300002 25245.19763350  1719.19804032
0.45400002 25320.11888443  1728.09819576
0.45500002 25394.53525392  2084.38355243
0.45600002 25467.40384329  1920.36967782
0.45700002 25539.75365752  1754.58115943
0.45800002 25610.51368277  3526.56790126
0.45900002 25680.06169300  1949.11677488
0.46000002 25748.93379010  1780.53885597
0.46100002 25815.55225843  2504.62499882
0.46200002 25881.46968290  1797.46815467
0.46300002 25945.91634764  2347.58662240
0.46400002 26008.13558347  2176.88105151
0.46500002 26069.92258101  2186.74520974
0.46600002 26128.89612452  1830.32926027
0.46700002 26186.15216687  2022.09476617
0.46800002 26242.42568360  2584.61662808
0.46900002 26295.88188309  2966.17561700
0.47000002 26347.78016624  2606.05905976
0.47100002 26397.83667046  2616.55369479
0.47200002 26445.96039299  1876.34097882
0.47300002 26491.93546411  1883.57670077
0.47400002 26535.08379301  2646.87473381
0.47500002 26576.53328811  2277.07748005
0.47600002 26616.49626786  2285.29247788
0.47700002 26652.93455408  3057.62479697
