# SAXS profile: number of points = 501, q_min = 0, q_max = 0.5, delta_q = 0.001
#    q    intensity    error
0.00000000 1700912.83420644 280.65061764
0.00100000 1700830.09220823 561.27394376
0.00200000 1700581.79888777 841.78801710
0.00300000 1700168.19481989 1428.14133452
0.00400000 1699589.12989257 1657.09946461
0.00500000 1698845.13906885 3057.92137136
0.00600000 1697936.08308338 1961.11625580
0.00700000 1696862.58587737 2647.10574398
0.00800000 1695624.41072113 3204.73027157
0.00900000 1694222.88637601 3049.60132584
0.01000000 1692657.25262295 2792.88458742
0.01100000 1690928.95755765 3348.03948174
0.01200000 1689037.84106895 3952.34872139
0.01300000 1686985.01083574 3896.93554690
0.01400000 1684770.62869934 4169.80749088
0.01500000 1682395.97679044 6056.62578614
0.01600000 1679860.52394109 4283.64452754
0.01700000 1677166.59587084 5434.02001438
0.01800000 1674314.04211878 5248.97475823
0.01900000 1671303.69711342 5515.30244934
0.02000000 1668136.56682976 5780.09346553
0.02100000 1664814.73559560 7142.05553952
0.02200000 1661336.81494774 8024.25718076
0.02300000 1657705.91578232 8354.83819584
0.02400000 1653921.71187792 6822.42737258
0.02500000 1649986.74988188 9652.42292764
0.02600000 1645900.93425263 7332.48899747
0.02700000 1641666.55376420 11031.99974657
0.02800000 1637283.27319435 7122.18256502
0.02900000 1632753.75928679 8816.87070497
0.03000000 1628079.41412690 11355.85443551
0.03100000 1623260.62330753 8570.81648543
0.03200000 1618298.69413359 8811.63679540
0.03300000 1613197.43081689 9050.03800409
0.03400000 1607955.07557461 10130.11744353
0.03500000 1602574.85360092 10384.68553088
0.03600000 1597058.16794541 9750.04056589
0.03700000 1591406.66932649 12699.42580854
0.03800000 1585621.80723062 11131.06560190
0.03900000 1579705.93186231 11373.88323613
0.04000000 1573658.62396430 11613.60118302
0.04100000 1567484.06735735 12837.69510690
0.04200000 1561183.15439827 11076.59499433
0.04300000 1554756.73631025 12313.67392315
0.04400000 1548208.29493400 14630.56906660
0.04500000 1541539.25048607 14891.26985162
0.04600000 1534749.63386933 11901.98396394
0.04700000 1527843.67471433 18700.80744824
0.04800000 1520821.86061171 17884.86591294
0.04900000 1513688.17617409 13623.19421969
0.05000000 1506442.00580994 13829.13825730
0.05100000 1499087.92266951 14031.46360983
0.05200000 1491624.08645894 11858.41203997
0.05300000 1484056.84219455 13222.94708038
0.05400000 1476386.13090732 15834.24199239
0.05500000 1468614.39329317 14803.63377497
0.05600000 1460742.98005939 19982.96489970
0.05700000 1452776.79299555 17694.82216465
0.05800000 1444714.47982781 15342.86849217
0.05900000 1436559.48399697 14221.93955582
0.06000000 1428315.10550923 19603.62573897
0.06100000 1419982.56474843 15847.00616314
0.06200000 1411564.40063162 17341.06947234
0.06300000 1403063.42342379 17510.23234303
0.06400000 1394478.79954003 19034.63650391
0.06500000 1385816.64743452 13719.58545137
0.06600000 1377077.73690419 13839.63190342
0.06700000 1368263.90739360 16747.55101027
0.06800000 1359377.95137459 21104.34368297
0.06900000 1350422.69702768 15597.38288092
0.07000000 1341399.16821744 21428.85271575
0.07100000 1332310.06899490 23022.31907055
0.07200000 1323158.01871056 17386.29718035
0.07300000 1313945.93633319 24794.16098035
0.07400000 1304675.96954475 17613.12641428
0.07500000 1295349.45677020 20673.77829908
0.07600000 1285967.81438729 16338.22184774
0.07700000 1276536.63471798 17922.57519180
0.07800000 1267055.68682653 16516.07165233
0.07900000 1257527.54973161 16599.36443503
0.08000000 1247955.95197861 21227.73173897
0.08100000 1238342.25470520 19801.09358177
0.08200000 1228687.92816256 18356.59850814
0.08300000 1218996.34288429 16895.29010531
0.08400000 1209269.63953655 21585.46407892
0.08500000 1199509.69752193 23210.51373667
0.08600000 1189718.87472083 18630.99845288
0.08700000 1179901.02698199 18689.63314502
0.08800000 1170055.46893154 18744.28949259
0.08900000 1160187.30359772 21927.54106793
0.09000000 1150296.62711036 17271.70466741
0.09100000 1140386.54517883 15737.33506283
0.09200000 1130459.10845151 17346.89583426
0.09300000 1120518.38870626 18959.17202784
0.09400000 1110561.91037958 22155.71115334
0.09500000 1100595.64888079 19018.29370657
0.09600000 1090620.34236331 25389.64276373
0.09700000 1080640.76435611 17473.96198114
0.09800000 1070656.40150902 15899.24830995
0.09900000 1060669.89716697 15910.04920563
0.10000000 1050682.84326342 17509.63040641
0.10100000 1040696.80787475 22291.72667310
0.10200000 1030715.33385514 19109.46318851
0.10300000 1020739.39123166 17515.88877750
0.10400000 1010772.30556836 31839.32912329
0.10500000 1000816.76170937 19095.58471185
0.10600001 990869.42270680 19084.14597931
0.10700001 980938.74656277 23836.81266318
0.10800001 971022.34350443 26989.56730788
0.10900001 961124.85354303 17444.41691284
0.11000001 951245.80105612 15838.24333308
0.11100001 941388.57738260 17396.86172896
0.11200001 931553.83165157 17368.82200882
0.11300001 921743.88211425 18914.18535148
0.11400001 911961.00716580 26743.25779433
0.11500001 902207.06396180 20407.92474778
0.11600001 892482.48747508 15663.06839278
0.11700001 882790.61663842 15625.39465038
0.11800001 873130.33230514 17143.91488226
0.11900001 863504.52027098 18651.69851638
0.12000001 853914.76810761 18598.26452545
0.12100001 844365.62089129 20087.45906729
0.12200001 834853.97663296 15403.05659454
0.12300001 825385.09856915 19957.81262370
0.12400001 815956.72950854 18359.02727897
0.12500001 806572.19529124 19817.47977212
0.12600001 797234.22152214 16706.04389924
0.12700001 787942.18751323 15128.49071321
0.12800001 778697.64300782 15067.80010234
0.12900001 769502.89106303 16505.83779126
0.13000001 760358.75988249 17929.26040312
0.13100001 751264.82015977 16362.54855437
0.13200001 742225.13542717 14807.39214980
0.13300001 733239.07116729 19159.53783284
0.13400001 724307.17469835 16133.94307705
0.13500001 715432.85967524 23351.72964079
0.13600001 706615.45136285 20329.32749425
0.13700001 697856.33719661 27446.69103614
0.13800001 689154.95307871 17242.65773912
0.13900001 680515.60965799 20007.15986745
0.14000001 671936.22728714 14211.45187734
0.14100001 663420.12715541 15543.93431235
0.14200001 654966.16043888 15453.92728444
0.14300001 646577.01709841 18155.88349649
0.14400001 638249.24268583 15270.11385155
0.14500001 629989.78861149 19315.48782998
0.14600001 621795.32927586 17823.76395452
0.14700001 613668.88756021 14985.79494120
0.14800001 605607.80468439 14888.86858060
0.14900001 597615.29903143 16135.61383514
0.15000001 589691.01356494 16027.80250493
0.15100001 581836.26539766 22551.97471093
0.15200001 574051.90105714 23714.08515167
0.15300001 566337.96177318 20931.85205489
0.15400001 558692.35429337 14288.55763534
0.15500001 551119.96150396 14185.82847858
0.15600001 543616.95935316 15362.61599636
0.15700001 536188.76325736 17790.74400455
0.15800001 528829.75978408 15135.10843938
0.15900001 521545.12523267 13768.79195604
0.16000001 514331.36509440 14905.32366400
0.16100001 507192.72676524 14789.74061061
0.16200001 500126.76696042 20787.77005002
0.16300001 493133.94790423 14557.31482935
0.16400001 486215.55552242 13237.21912402
0.16500001 479369.86331577 13129.94117610
0.16600001 472599.09680554 16574.05110748
0.16700001 465900.83344340 12914.77171282
0.16800001 459277.23952950 11642.67857180
0.16900001 452728.98527927 11544.58966973
0.17000001 446253.37056674 20603.51909196
0.17100001 439852.41937720 15887.47013813
0.17200001 433524.90725960 13499.96624957
0.17300001 427271.78887796 11151.79421635
0.17400001 421093.03732682 11053.69275185
0.17500001 414987.08050177 13146.79133119
0.17600001 408953.47605302 11943.48683221
0.17700001 402996.40927991 11836.00509957
0.17800001 397110.55579327 12794.90271199
0.17900001 391297.29662039 16904.04401244
0.18000001 385558.72691773 10467.91993027
0.18100001 379892.63775524 13482.39035079
0.18200001 374296.58951191 11301.88605419
0.18300001 368773.76732055 11195.97210474
0.18400001 363322.12708337 12098.62740342
0.18500001 357942.72121660 16977.22406934
0.18600001 352634.30735026 11869.67134617
0.18700001 347395.48488331 12735.51907751
0.18800001 342225.95266198 17463.79118944
0.18900001 337129.65151370 13451.47373094
0.19000001 332098.73926604 10466.09226248
0.19100001 327139.56814571 12248.10601010
0.19200001 322246.94650465 15859.38422160
0.19300001 317424.67974348 9237.05861701
0.19400001 312668.19332637 11889.20861305
0.19500001 307979.46223971 10865.51594127
0.19600001 303356.08630434 13446.25916086
0.19700001 298800.89921096 18636.21296449
0.19800001 294309.83798477 12299.20871063
0.19900001 289884.22864922 8696.52727047
0.20000001 285521.41420253 10330.16525406
0.20100001 281224.35866898 12781.64770560
0.20200001 276988.96057042 12651.47137201
0.20300001 272817.15020021 8348.20519070
0.20400001 268707.39752586 13220.40458314
0.20500001 264658.50761858 14720.30688953
0.20600001 260670.39696166 13759.48755400
0.20700001 256742.53785831 8010.36755982
0.20800001 252874.05585559 13476.92344388
0.20900001 249066.66088235 11768.40028300
0.21000001 245314.63423614 10093.47110279
0.21100001 241621.91373478 9220.29266399
0.21200001 237984.92424210 10645.06616459
0.21300001 234404.33208241 8276.81735712
0.21400001 230879.86483243 8190.46359215
0.21500001 227411.12303440 8104.93280813
0.21600001 223995.19860824 8020.14846535
0.21700001 220633.74183720 7214.72369919
0.21800001 217325.31237731 12850.44632845
0.21900001 214067.73786464 7770.65925190
0.22000001 210861.92936718 7689.08061793
0.22100001 207708.10073552 6916.68008154
0.22200001 204604.21883626 10266.01716553
0.22300001 201549.31460607 9480.88020738
0.22400001 198542.39262599 7370.88667478
0.22500001 195586.12385309 6630.36991215
0.22600001 192675.01816842 9840.87701831
0.22700001 189811.85398042 8439.03542704
0.22800001 186993.78379917 8992.53148816
0.22900001 184221.14186658 9533.44454244
0.23000001 181493.38717890 6917.62077947
0.23100001 178810.72756121 8089.39769744
0.23200001 176169.73545723 6772.84579997
0.23300001 173572.50672778 7310.87432914
0.23400001 171016.06016598 7233.97968715
0.23500001 168501.04231293 7157.92461600
0.23600001 166027.10744273 10033.84871287
0.23700001 163592.94940845 6424.29542713
0.23800001 161197.88810562 7512.62793050
0.23900001 158841.58181446 6861.95665895
0.24000001 156522.84432303 7921.62152588
0.24100001 154242.54758007 6158.90521620
0.24200001 151998.84417951 6094.39394565
0.24300001 149790.78144946 5482.34286038
0.24400001 147618.11064433 6509.95898736
0.24500001 145479.68955823 7515.48111809
0.24600001 143375.86588383 5843.28369051
0.24700001 141306.49707470 7884.90290977
0.24800001 139269.70911825 6242.06865797
0.24900001 137263.96268527 5147.39884421
0.25000001 135291.43315828 5603.09496932
0.25100001 133349.42962546 5544.66954614
0.25200001 131440.13368332 5985.78397112
0.25300001 129558.93462502 5923.43477130
0.25400001 127708.59489089 5373.33938425
0.25500001 125885.47609722 5317.40276192
0.25600001 124092.48332298 6218.89509596
0.25700001 122326.56909369 4734.03844791
0.25800001 120587.96866737 4684.84280439
0.25900001 118877.31296547 6954.32313752
0.26000001 117192.16270177 5505.68806423
0.26100001 115532.73972707 5902.56795194
0.26200001 113899.62910216 5841.34275490
0.26300001 112290.40561996 4891.37030025
0.26400001 110706.25750899 5720.74612747
0.26500001 109146.15154248 4790.42481788
0.26600001 107609.25263575 5171.70092640
0.26700001 106095.70061095 7250.58052285
0.26800001 104605.24929977 5064.98641077
0.26900001 103135.91746726 5012.40582610
0.27000001 101689.12594368 4547.02948175
0.27100001 100263.63806090 4090.75662647
0.27200001 98859.67893950  4857.96485298
0.27300001 97476.11484546  6410.02961559
0.27400001 96111.32425716  4361.05154455
0.27500001 94768.60277339  3923.42034050
0.27600001 93443.06909676  3882.55970472
0.27700001 92138.66328921  3842.18244100
0.27800001 90851.74611654  4182.36033041
0.27900001 89583.86182004  4138.77461196
0.28000001 88333.36110021  4840.22675057
0.28100001 87100.97246846  4052.80844077
0.28200001 85886.49771860  4375.05840086
0.28300001 84689.06978738  4329.30545244
0.28400001 83507.65405525  4283.94285580
0.28500001 82343.67157290  4239.05241321
0.28600001 81195.54692218  4194.56215254
0.28700001 80064.08526081  5879.90669986
0.28800001 78946.70096183  4106.80757842
0.28900001 77846.83779472  4063.60512523
0.29000001 76761.03118143  4355.80492057
0.29100001 75690.75843749  3646.78091414
0.29200001 74634.95999370  4592.28930579
0.29300001 73593.92152226  4219.13972059
0.29400001 72566.47494051  4174.38666855
0.29500001 71554.22218606  3494.70837700
0.29600001 70554.74567997  4086.17828949
0.29700001 69569.20232496  4353.64088759
0.29800001 68597.60845827  3384.26317350
0.29900001 67639.54659545  3043.77974089
0.30000001 66693.40241801  3312.32798789
0.30100001 65761.54679387  3872.69767403
0.30200001 64841.17948897  2947.03174729
0.30300001 63934.44629400  4081.57524464
0.30400001 63039.78264724  3172.47721191
0.30500001 62157.86267651  3423.65523831
0.30600001 61286.83161434  3386.71047534
0.30700001 60428.74486285  3350.16977380
0.30800001 59582.26469033  3037.80190906
0.30900001 58747.79996581  3004.95011052
0.31000001 57924.99751260  2702.20126190
0.31100001 57112.99497422  2672.88829134
0.31200001 56313.28526880  3701.47241597
0.31300001 55523.94545873  2615.17795492
0.31400001 54747.27824772  3104.17082362
0.31500001 53979.92902340  2558.64875685
0.31600002 53225.26994562  3290.12021747
0.31700002 52480.45478509  2503.31781178
0.31800002 51746.34210066  2723.66884543
0.31900002 51023.55355312  2694.04375517
0.32000002 50311.64958353  2907.00725058
0.32100002 49609.47104209  3354.59259071
0.32200002 48918.92884386  2844.14665765
0.32300002 48237.18455938  3282.05819283
0.32400002 47567.14540821  3478.34767268
0.32500002 46906.57960829  2752.47822175
0.32600002 46256.46499652  2268.87971552
0.32700002 45616.82686131  2917.65238421
0.32800002 44987.82272684  2886.19390371
0.32900002 44367.19687065  2855.02925382
0.33000002 43757.63509055  2607.08002215
0.33100002 43157.15664766  3008.91710396
0.33200002 42567.83847824  2551.51635921
0.33300002 41987.62004414  2103.57986383
0.33400002 41417.54505057  2705.60125855
0.33500002 40857.23840119  2676.96638682
0.33600002 40305.99790268  2444.96194856
0.33700002 39764.35048985  2016.05266531
0.33800002 39233.27404137  2793.01691127
0.33900002 38710.77450105  2369.09951166
0.34000002 38197.86502392  2539.96715505
0.34100002 37694.65365639  2127.10940657
0.34200002 37201.44599148  2105.41593560
0.34300002 36716.69385973  1894.58149289
0.34400002 36242.25855548  3188.41284742
0.34500002 35776.50251047  2042.48062505
0.34600002 35320.86701812  2022.29633690
0.34700002 34872.98845312  2548.51811685
0.34800002 34435.36276534  1802.69132614
0.34900002 34006.23664242  2142.39300994
0.35000002 33586.75894584  1945.17723648
0.35100002 33176.77923139  2277.25423430
0.35200002 32774.31879322  2082.48031475
0.35300002 32382.12935292  2579.23672512
0.35400002 31998.04219982  2555.84374176
0.35500002 31623.34448426  1857.55534299
0.35600002 31257.06487376  1841.19749360
0.35700002 30899.47322205  1825.23196968
0.35800002 30551.04694808  2961.31312094
0.35900002 30211.61383363  1957.71266915
0.36000002 29880.56870405  2103.44273355
0.36100002 29557.47240960  1765.46791065
0.36200002 29244.63054654  1910.84425042
0.36300002 28938.46662779  1738.04438799
0.36400002 28641.49778901  2352.18311734
0.36500002 28352.04252248  1712.17992903
0.36600002 28071.92529640  1854.43147292
0.36700002 27799.33228678  1841.42785790
0.36800002 27535.84913009  1676.52025370
0.36900002 27280.16239886  1816.85890183
0.37000002 27031.89083575  1805.18975552
0.37100002 26791.58537886  2242.45580244
0.37200002 26559.98785813  1486.03139106
0.37300002 26335.85330920  2068.41801689
0.37400002 26119.48676893  2056.90968049
0.37500002 25910.86114724  1461.37263793
0.37600002 25710.06967397  1599.29495983
0.37700002 25516.80499556  1591.48320296
0.37800002 25330.75103399  1584.05859095
0.37900002 25153.12726856  1863.84681890
0.38000002 24981.88695510  1427.71490712
0.38100002 24817.36542566  1422.03510626
0.38200002 24661.20077426  1841.82186708
0.38300002 24511.52882145  1411.86412700
0.38400002 24368.98820645  1407.30913559
0.38500002 24232.88059860  1824.00900907
0.38600002 24104.63003913  1679.12860807
0.38700002 23982.08954834  1954.06074897
0.38800002 23866.21914784  1810.37213923
0.38900002 23756.97907023  1528.76167560
0.39000002 23654.83777916  1942.29882206
0.39100002 23558.05700587  1385.21381757
0.39200002 23468.53057363  1798.51092572
0.39300002 23384.22833056  1796.61034775
0.39400002 23307.42248108  2485.73672537
0.39500002 23235.03244162  1518.17709166
0.39600002 23168.89413163  1517.67848200
0.39700002 23107.89096944  1379.54115624
0.39800002 23053.83160830  1379.77188713
0.39900002 23004.08214321  1518.26949339
0.40000002 22960.18859256  1795.37203206
0.40100002 22921.26791469  1796.79827696
0.40200002 22888.00563984  1521.93800713
0.40300002 22859.56049977  1800.87626150
0.40400002 22836.09976321  1526.02243898
0.40500002 22817.03768920  1528.51342722
0.40600002 22803.59254409  1809.80720801
0.40700002 22794.21542303  1395.00604999
0.40800002 22789.18210601  1398.11638845
0.40900002 22788.34757546  1541.63178652
0.41000002 22792.42991682  1686.18404514
0.41100002 22800.29200228  2113.58716876
0.41200002 22811.23439481  1554.47164149
0.41300002 22827.61714072  1559.35460077
0.41400002 22846.93601601  1564.44401782
0.41500002 22869.81887240  1569.78444178
0.41600002 22895.36897604  1861.73701650
0.41700002 22925.77042344  1437.44587366
0.41800002 22959.95874284  1875.94351797
0.41900002 22995.27174647  1738.44262641
0.42000002 23034.36341609  2327.39218984
0.42100002 23077.12092815  2337.25091835
0.42200002 23122.14649222  1613.81029090
0.42300002 23169.63308940  1473.58873431
0.42400002 23219.49811012  1776.29168960
0.42500002 23272.53148609  1933.24928216
0.42600002 23326.55180824  1494.06571412
0.42700002 23383.93468745  1651.37354588
0.42800002 23442.63389881  2262.80034431
0.42900002 23504.17928733  2122.42749022
0.43000002 23567.49783220  1523.63880705
0.43100002 23630.92007891  1684.41206304
0.43200002 23697.26456871  1846.96488801
0.43300002 23764.44140499  2475.30433404
0.43400002 23833.46755374  2332.70074737
0.43500002 23903.20887551  1875.92392145
0.43600002 23974.69299773  1571.54120047
0.43700002 24046.55808012  2211.80251702
0.43800002 24118.93305438  1747.05499859
0.43900002 24193.07583172  1916.09169668
0.44000002 24267.19389093  1926.32994235
0.44100002 24342.30379120  1613.89481784
0.44200002 24417.64187406  1622.55237942
0.44300002 24493.46740973  1794.39150747
0.44400002 24569.43554772  1968.01188064
0.44500002 24644.99408585  1813.62520073
0.44600002 24720.54864724  2817.77187109
0.44700002 24797.17118365  2166.28097727
0.44800002 24872.32699125  2010.18156270
0.44900002 24948.03743692  2020.79112816
0.45000002 25023.62736217  1692.84847128
0.45100002 25097.80243531  2212.12041149
0.45200002 25171.97543314  2223.56655527
0.45300002 25244.93999387  2063.01659407
0.45400002 25317.65805901  1900.72326886
0.45500002 25389.82563021  1910.33057095
0.45600002 25460.44885536  2443.43939245
0.45700002 25530.61570980  2806.32541182
0.45800002 25599.19402673  2115.00551073
0.45900002 25666.61986206  2125.19622530
0.46000002 25733.36322738  2491.24701211
0.46100002 25797.87939800  1966.57243971
0.46200002 25861.73311797  1796.09745017
0.46300002 25924.06984346  1804.31534662
0.46400002 25984.29805058  1993.64536242
0.46500002 26044.07508259  2002.52902801
0.46600002 26101.06902880  2011.21796934
0.46700002 26156.38470506  2019.79612266
0.46800002 26210.70656506  2397.10028252
0.46900002 26262.30141009  2777.23850575
0.47000002 26312.35874186  2974.34917315
0.47100002 26360.56848116  2799.49250539
0.47200002 26406.90877366  1873.57026629
0.47300002 26451.11472998  2068.74178108
0.47400002 26492.52184193  2076.35149777
0.47500002 26532.30785289  2083.84755754
0.47600002 26570.55290923  2091.23546584
0.47700002 26605.33239991  2479.88315054
