# SAXS profile: number of points = 501, q_min = 0, q_max = 0.5, delta_q = 0.001
#    q    intensity    error
0.00000000 1700912.83420644 280.65061764
0.00100000 1700830.09709100 561.27394537
0.00200000 1700581.82299692 918.31421350
0.00300000 1700168.24843551 1428.14137956
0.00400000 1699589.21957477 1784.56874836
0.00500000 1698845.29192699 2140.54515255
0.00600000 1697936.29958918 2317.68314330
0.00700000 1696862.86830193 2647.10618457
0.00800000 1695624.78698111 2518.00291498
0.00900000 1694223.34801757 2795.46864373
0.01000000 1692657.83459261 3910.03976674
0.01100000 1690929.65276635 4261.14291050
0.01200000 1689038.66364493 5269.80086162
0.01300000 1686985.99655133 4959.73904861
0.01400000 1684771.75052565 4548.88392808
0.01500000 1682397.28190555 4845.30438764
0.01600000 1679862.01788195 7710.56700677
0.01700000 1677168.26113273 4528.35450819
0.01800000 1674315.94028024 6203.34083787
0.01900000 1671305.80559670 5013.91764303
0.02000000 1668138.85672510 5780.10140002
0.02100000 1664817.28469199 5493.89728857
0.02200000 1661339.61333511 7451.10850433
0.02300000 1657708.96636252 8354.85357077
0.02400000 1653925.04659875 8062.88496982
0.02500000 1649990.39037332 10939.43678779
0.02600000 1645904.81677014 8665.68925665
0.02700000 1641670.73955570 9653.02439071
0.02800000 1637287.78561208 9971.08307165
0.02900000 1632758.60191067 9551.63825973
0.03000000 1628084.60198141 9841.77187136
0.03100000 1623266.07704147 16362.52280947
0.03200000 1618304.51022344 10413.79000293
0.03300000 1613203.67346314 9872.80693674
0.03400000 1607961.65522774 9285.97898740
0.03500000 1602581.87881549 11250.12530879
0.03600000 1597065.48326105 10636.45661007
0.03700000 1591414.48232194 9978.16926562
0.03800000 1585630.03731774 14841.49783615
0.03900000 1579714.58090400 9478.28792436
0.04000000 1573667.69988528 12581.47384360
0.04100000 1567493.62527967 10862.73132686
0.04200000 1561193.10924235 14097.57443049
0.04300000 1554767.13902954 11287.60995330
0.04400000 1548219.24363363 12540.57645584
0.04500000 1541550.64455783 11700.36993585
0.04600000 1534761.53774703 12984.08321293
0.04700000 1527856.11291485 14300.73388198
0.04800000 1520834.77020357 16767.20412164
0.04900000 1513701.66094540 11352.76298553
0.05000000 1506455.96456343 11524.38866556
0.05100000 1499102.42155825 16370.19920601
0.05200000 1491639.12528259 11858.53159862
0.05300000 1484072.48187536 15627.28396266
0.05400000 1476402.30726700 15834.41548386
0.05500000 1468631.19002354 14803.80308602
0.05600000 1460760.28712296 14987.40124526
0.05700000 1452794.65026078 15167.17685670
0.05800000 1444733.09302948 15343.06616438
0.05900000 1436578.58230395 19393.81176691
0.06000000 1428334.78655480 15683.11668907
0.06100000 1420002.85674017 14526.62990330
0.06200000 1411585.37186568 14673.43062643
0.06300000 1403085.03125798 26939.23385971
0.06400000 1394501.08095068 17675.30202767
0.06500000 1385839.59938518 20579.71901354
0.06600000 1377101.29941439 24911.76367199
0.06700000 1368288.15797403 16747.84783738
0.06800000 1359402.88486577 15476.80256865
0.06900000 1350448.29425131 19851.59085492
0.07000000 1341425.44907210 14286.18170162
0.07100000 1332337.10949752 20144.93803915
0.07200000 1323185.70183885 18835.54934806
0.07300000 1313974.34512233 17502.13909710
0.07400000 1304705.00721991 17613.51842291
0.07500000 1295379.32569621 16244.05750563
0.07600000 1285998.22792964 16338.60825181
0.07700000 1276567.87539324 19416.59829515
0.07800000 1267087.61694898 18017.98675799
0.07900000 1257560.25426748 15090.72375902
0.08000000 1247989.36761476 21228.30013897
0.08100000 1238376.36737357 22848.04505003
0.08200000 1228722.85679321 15297.60028492
0.08300000 1219031.90368677 16895.78297805
0.08400000 1209306.09543463 18502.38412863
0.08500000 1199546.85594993 18568.98620183
0.08600000 1189756.90177677 18631.59395661
0.08700000 1179939.56939701 17132.72335216
0.08800000 1170094.83439311 17182.84345003
0.08900000 1160227.51973593 21928.30115297
0.09000000 1150337.55124634 23553.16246819
0.09100000 1140428.26908782 17311.70193808
0.09200000 1130501.54106101 22078.69613433
0.09300000 1120561.69015214 20539.89674570
0.09400000 1110605.98192879 18991.36318353
0.09500000 1100640.46603073 17434.14580138
0.09600000 1090665.90216949 17456.10858480
0.09700000 1080687.16795051 19063.32253887
0.09800000 1070703.54904692 15899.94845093
0.09900000 1060717.90098036 17501.84618916
0.10000000 1050731.52238583 15918.58331275
0.10100000 1040746.29670450 20700.44481503
0.10200000 1030765.59418061 23887.99376874
0.10300000 1020790.56776282 17516.76696681
0.10400000 1010824.21574771 19104.57857641
0.10500000 1000869.34542420 17505.20567508
0.10600001 990922.85251554 28627.76255621
0.10700001 980992.91710274 15892.08600491
0.10800001 971077.26333185 19052.53680322
0.10900001 961180.57775535 17445.42830734
0.11000001 951302.32318511 19007.02131189
0.11100001 941445.82328729 18979.54869090
0.11200001 931611.88700642 23686.23334222
0.11300001 921802.72328502 20491.67550339
0.11400001 912020.63550927 15732.35670328
0.11500001 902267.44083478 17269.39963076
0.11600001 892543.40593190 21929.79251645
0.11700001 882852.32871113 23439.73043117
0.11800001 873192.83155383 17145.14205507
0.11900001 863567.78131631 18653.06495502
0.12000001 853978.80026768 18599.65914597
0.12100001 844430.33134847 18543.69094997
0.12200001 834919.47488996 16944.69154118
0.12300001 825451.29780919 24565.43178019
0.12400001 816023.71155128 16830.48984376
0.12500001 806639.83605754 16770.04298185
0.12600001 797302.56505101 15188.61457996
0.12700001 788011.21073819 15129.81595919
0.12800001 778767.42338227 24110.64056423
0.12900001 769573.24549134 16507.34689381
0.13000001 760429.79886402 16436.69087719
0.13100001 751336.54821822 16364.11079156
0.13200001 742297.46345355 14808.83509399
0.13300001 733312.16096584 16213.53264331
0.13400001 724380.98424723 19069.33030934
0.13500001 715507.16233806 17515.61615987
0.13600001 706690.36547276 14522.48769521
0.13700001 697931.93505770 21670.78760539
0.13800001 689231.08687452 14370.46883898
0.13900001 680592.35551430 25726.39225165
0.14000001 672013.60161031 14213.08834436
0.14100001 663497.98745935 16959.00935930
0.14200001 655044.63537241 14050.70809144
0.14300001 646656.16046347 13967.77372484
0.14400001 638328.86700270 22213.84561952
0.14500001 630069.85752457 13798.53053069
0.14600001 621875.96750138 13712.36573028
0.14700001 613750.07036152 13625.25220482
0.14800001 605689.34960860 14890.87336266
0.14900001 597697.42101953 14793.01186818
0.15000001 589773.61214377 18701.72212348
0.15100001 581919.30013734 19901.64100376
0.15200001 574135.38165473 13176.40763073
0.15300001 566421.89926756 13084.34649052
0.15400001 558776.76630443 14290.71647263
0.15500001 551204.67871384 14188.00909967
0.15600001 543702.09692070 14084.60348545
0.15700001 536274.34376845 15251.64305660
0.15800001 528915.52922668 15137.56316094
0.15900001 521631.43522204 15022.98604349
0.16000001 514417.88969468 12423.19262253
0.16100001 507279.62855406 17257.65377804
0.16200001 500214.07287361 13453.25812501
0.16300001 493221.53237880 12133.25026930
0.16400001 486303.29419483 13239.60780949
0.16500001 479457.97951467 15520.05552961
0.16600001 472687.43505700 18945.31329155
0.16700001 465989.41932715 21137.28105867
0.16800001 459365.99004019 12809.42123709
0.16900001 452817.92686689 12701.54344836
0.17000001 446342.44313926 13738.42104855
0.17100001 439941.65154382 14755.64368956
0.17200001 433614.33244278 13502.75094991
0.17300001 427361.36558722 12269.54538543
0.17400001 421182.71583227 14372.86085655
0.17500001 415076.84287621 18628.64958807
0.17600001 409043.36314194 14118.13234563
0.17700001 403086.22132748 11838.64287953
0.17800001 397200.42132721 13864.28136127
0.17900001 391387.12914385 11624.19828462
0.18000001 385648.61512435 10470.36039519
0.18100001 379982.59625083 10373.52536766
0.18200001 374386.48296031 15415.36416408
0.18300001 368863.54862397 11198.69786524
0.18400001 363411.97431834 14118.55586924
0.18500001 358032.35911561 10988.01362035
0.18600001 352723.81379315 12862.07447762
0.18700001 347484.96977175 9799.07661052
0.18800001 342315.22871653 9704.63719262
0.18900001 337218.69964430 11532.88007273
0.19000001 332187.60292794 13324.04538298
0.19100001 327228.26620455 9424.17451198
0.19200001 322335.42795973 13997.41662055
0.19300001 317512.93495949 10163.58952831
0.19400001 312756.11994500 10062.92863474
0.19500001 308067.14288524 12680.04420035
0.19600001 303443.39497670 10760.10329436
0.19700001 298887.87101456 9764.66720750
0.19800001 294396.52753444 10545.28411464
0.19900001 289970.52060076 8699.11602914
0.20000001 285607.28695752 8611.06010874
0.20100001 281309.81924589 10228.42551120
0.20200001 277074.14081285 8436.90798651
0.20300001 272901.77344403 14196.35092554
0.20400001 268791.52566723 11571.47572691
0.20500001 264742.13289890 9816.63875189
0.20600001 260753.49974374 9715.67585969
0.20700001 256825.22707567 11218.12644894
0.20800001 252956.14638687 10309.22823332
0.20900001 249148.19305127 14126.70321379
0.21000001 245395.57717305 8543.44742315
0.21100001 241702.30658141 9223.36045517
0.21200001 238064.57395536 8366.77984720
0.21300001 234483.27059935 12043.06134732
0.21400001 230958.15708374 10427.76128532
0.21500001 227488.79941403 7370.63744948
0.21600001 224072.10046461 7293.54721495
0.21700001 220710.02503724 10825.82723992
0.21800001 217400.77243016 7855.77728319
0.21900001 214142.43846762 8480.04096427
0.22000001 210935.69844232 9090.27435418
0.22100001 207781.16813606 6919.11322609
0.22200001 204676.50127834 8215.71514979
0.22300001 201620.69910094 7451.90139114
0.22400001 198612.91508246 10054.77930150
0.22500001 195655.67587055 7959.27327079
0.22600001 192743.67930019 8531.79936768
0.22700001 189879.70697760 9091.44080001
0.22800001 187060.62189891 7068.08593270
0.22900001 184286.95611342 8901.06040122
0.23000001 181558.23845345 6920.09258592
0.23100001 178874.58152050 7469.80287756
0.23200001 176232.60137010 6159.32970918
0.23300001 173634.36584686 8532.39314125
0.23400001 171076.86640786 7839.59777392
0.23500001 168560.77723450 10143.98805374
0.23600001 166085.74832116 8266.08808491
0.23700001 163650.49099532 7595.01964632
0.23800001 161254.24770214 6359.06155891
0.23900001 158896.92302226 7436.37634918
0.24000001 156576.97926710 6792.30968189
0.24100001 154295.45668004 6161.01787666
0.24200001 152050.71221471 6650.69846686
0.24300001 149841.29017646 6032.61062786
0.24400001 147667.47226515 7054.81382119
0.24500001 145527.82074811 6980.96989152
0.24600001 143422.78173906 6376.57717776
0.24700001 141352.09939448 7361.61768471
0.24800001 139314.04894952 6764.39396674
0.24900001 137306.99069905 6178.81487376
0.25000001 135333.19766644 6623.88367315
0.25100001 133389.87472406 7058.99250435
0.25200001 131479.20171541 4989.63594116
0.25300001 129596.75408401 6418.92753346
0.25400001 127745.01268588 5374.87166305
0.25500001 125920.58808795 5318.88589248
0.25600001 124126.28206606 5263.57524004
0.25700001 122358.87541948 5682.34644333
0.25800001 120618.87211331 5623.25208398
0.25900001 118906.84880077 4637.36732265
0.26000001 117220.25984515 5048.09072908
0.26100001 115559.35838710 6812.22449925
0.26200001 113924.83855234 5842.63562161
0.26300001 112314.12980731 6226.69565115
0.26400001 110728.61115919 7042.34000296
0.26500001 109167.05082651 6098.07174772
0.26600001 107628.58383302 5172.62998378
0.26700001 106113.66103475 5118.92325054
0.26800001 104621.72359505 6332.23012024
0.26900001 103150.89842335 5430.89505899
0.27000001 101702.56291589 4961.05125380
0.27100001 100275.55206672 6955.11262048
0.27200001 98870.12540808  5263.35137518
0.27300001 97484.99863955  4407.29699707
0.27400001 96118.77326793  4757.87950193
0.27500001 94774.45575666  4316.02891942
0.27600001 93447.44614508  4659.28988530
0.27700001 92141.54695849  4226.53295901
0.27800001 90853.00923185  4942.85820119
0.27900001 89583.67633506  4138.76604256
0.28000001 88331.65797752  5212.45138395
0.28100001 87097.73507222  3684.23436793
0.28200001 85881.66433430  5468.51523531
0.28300001 84682.81526529  4328.98572125
0.28400001 83499.82530045  3569.61770055
0.28500001 82334.25337841  4238.56756454
0.28600001 81184.58889241  3844.49638897
0.28700001 80051.58454879  4149.87433943
0.28800001 78932.67427034  3763.90475074
0.28900001 77831.29279913  4739.92595583
0.29000001 76743.93152082  4019.84732334
0.29100001 75672.19295226  3977.33064984
0.29200001 74614.84488674  3607.25484680
0.29300001 73572.31665671  3893.44718177
0.29400001 72543.26716079  3852.04766858
0.29500001 71529.53985931  3175.91172009
0.29600001 70528.53710629  3456.25112450
0.29700001 69541.55955567  3730.20943115
0.29800001 68568.42871607  3997.88242554
0.29900001 67608.93969634  3650.88291643
0.30000001 66661.34124067  3310.73566945
0.30100001 65727.92557188  3275.22268630
0.30200001 64806.14819793  3239.98353254
0.30300001 63897.90758065  4370.61708543
0.30400001 63001.88304350  3747.03717140
0.30500001 62118.45186282  3136.36078304
0.30600001 61246.03223615  3102.41790980
0.30700001 60386.54146401  3347.83001726
0.30800001 59538.69342426  3035.58042795
0.30900001 58702.80563458  3548.58476862
0.31000001 57878.67206229  3510.05223340
0.31100001 57065.21920711  3738.91333947
0.31200001 56264.21101357  2641.60483216
0.31300001 55473.51602323  3135.36327408
0.31400001 54695.55978015  4393.42104735
0.31500001 53926.85528464  3067.35967382
0.31600002 53170.89265956  4298.06931164
0.31700002 52424.80684582  3000.79608594
0.31800002 51689.45299237  3215.34257563
0.31900002 50965.42564362  2446.34054673
0.32000002 50252.23515323  2419.64523720
0.32100002 49548.85390512  2871.85170832
0.32200002 48857.17551077  3313.98237181
0.32300002 48174.20005655  3746.02597377
0.32400002 47503.05625715  2547.35151241
0.32500002 46841.32182816  2977.70296962
0.32600002 46190.14282524  2945.31459672
0.32700002 45549.34819404  2465.13084099
0.32800002 44919.34313360  2216.76968861
0.32900002 44297.57394454  3727.64102395
0.33000002 43686.98806406  2819.77677812
0.33100002 43085.41062568  2145.65355077
0.33200002 42495.17206600  2971.68752330
0.33300002 41913.96914617  2099.88995366
0.33400002 41342.98849046  2077.48527003
0.33500002 40781.59991903  3083.08909988
0.33600002 40229.54780613  2847.04523307
0.33700002 39687.01190809  2615.77107874
0.33800002 39154.96368959  2986.54499686
0.33900002 38631.69255781  3152.34626201
0.34000002 38117.92565113  2729.62478515
0.34100002 37614.00267780  2701.43780026
0.34200002 37120.01069727  1909.82464082
0.34300002 36634.51270258  2079.37503948
0.34400002 36159.29033138  1871.24336327
0.34500002 35692.89593287  2037.70752531
0.34600002 35236.57523736  2017.47021076
0.34700002 34788.03355632  2360.71606894
0.34800002 34349.78757085  2877.13834320
0.34900002 33920.09393830  1958.88551771
0.35000002 33500.06872666  2292.91231259
0.35100002 33089.58694940  2271.26935578
0.35200002 32686.56058369  1730.75346488
0.35300002 32293.93740554  2743.69305192
0.35400002 31909.33983675  2039.00691214
0.35500002 31534.20427832  2020.71190586
0.35600002 31167.53228413  3338.04286573
0.35700002 30809.52542999  1654.47159395
0.35800002 30460.79612507  1640.31394903
0.35900002 30121.05619034  1789.19082245
0.36000002 29789.74865026  2580.98394531
0.36100002 29466.35301331  1920.02765329
0.36200002 29153.30451716  1587.39750615
0.36300002 28846.90044466  1575.04083888
0.36400002 28549.79872678  1875.72186520
0.36500002 28260.17915131  2637.52264513
0.36600002 27979.96825465  1848.35679046
0.36700002 27707.29391280  1682.38696608
0.36800002 27443.70692620  1822.81110038
0.36900002 27188.01450840  1659.82836436
0.37000002 26939.71646628  2098.87340931
0.37100002 26699.48823204  2085.76411949
0.37200002 26467.90559395  1925.14320457
0.37300002 26243.89396202  1619.51077311
0.37400002 26027.58971218  2196.07798600
0.37500002 25819.06528964  1601.81488645
0.37600002 25618.56839354  1593.60312241
0.37700002 25425.47963028  2018.27466866
0.37800002 25239.67366495  2152.31327374
0.37900002 25062.29134809  1571.40574197
0.38000002 24891.37836055  1707.05080883
0.38100002 24727.15081052  1558.55238942
0.38200002 24571.31417539  1976.27089275
0.38300002 24422.00956423  1688.04938105
0.38400002 24279.93810200  1682.59979018
0.38500002 24144.22420768  1537.74571264
0.38600002 24016.43846969  1951.81604690
0.38700002 23894.40546716  2085.98169611
0.38800002 23779.08850626  1803.76284410
0.38900002 23670.35158003  1938.60188625
0.39000002 23568.80581071  2211.69684206
0.39100002 23472.58604959  2070.28218766
0.39200002 23383.70761299  1378.46962909
0.39300002 23300.04120326  2065.54875053
0.39400002 23223.91432434  2201.62718225
0.39500002 23152.29019393  1512.77071294
0.39600002 23086.84796949  1512.30404789
0.39700002 23026.64294243  1787.09784343
0.39800002 22973.37381565  1512.45213681
0.39900002 22924.38784141  1650.55600278
0.40000002 22881.38149205  1651.57819435
0.40100002 22843.30813422  1652.94185491
0.40200002 22810.93610529  1654.70538348
0.40300002 22783.36239668  1380.67182666
0.40400002 22760.97092356  1935.82066877
0.40500002 22742.80545063  2216.05906811
0.40600002 22730.35283547  1665.22572763
0.40700002 22721.97198243  1529.64322633
0.40800002 22717.99866705  1533.12421269
0.40900002 22718.28931123  1397.17485884
0.41000002 22723.34218918  1540.98352357
0.41100002 22732.34582952  1545.34494271
0.41200002 22744.42165401  1549.91868705
0.41300002 22761.93470542  1696.21945462
0.41400002 22782.40858110  2269.12800220
0.41500002 22806.52857268  1565.44019540
0.41600002 22833.21720148  1571.03958399
0.41700002 22864.92741439  1863.72032186
0.41800002 22900.28724457  1871.06805798
0.41900002 22936.87105868  2023.03212324
0.42000002 22977.18651521  1596.11033691
0.42100002 23021.27014034  1894.42040962
0.42200002 23067.64774158  1463.64231856
0.42300002 23116.45523236  1911.26860918
0.42400002 23167.64094187  1476.93718003
0.42500002 23222.06465981  1780.66800249
0.42600002 23277.46597152  1490.92176612
0.42700002 23336.19161277  1498.18357253
0.42800002 23396.29524567  1505.55167040
0.42900002 23459.31917456  2421.00185354
0.43000002 23524.04062562  1977.07808807
0.43100002 23588.91579433  2292.84272386
0.43200002 23656.70998298  1690.15372483
0.43300002 23725.34393538  1698.97195972
0.43400002 23795.89560389  1707.95048791
0.43500002 23867.07625711  2341.36029178
0.43600002 23940.09648475  1883.12807873
0.43700002 24013.46096458  2050.98979818
0.43800002 24087.35804749  1744.76786285
0.43900002 24163.02761031  2073.18786721
0.44000002 24238.68161389  2405.08329711
0.44100002 24315.30101947  1773.31498739
0.44200002 24392.19680223  1620.86155432
0.44300002 24469.63063881  2118.58072111
0.44400002 24547.11750349  1802.37218811
0.44500002 24624.27361234  2141.57317756
0.44600002 24701.42469153  2318.72284568
0.44700002 24779.55921847  2164.74239592
0.44800002 24856.31460219  2845.92387525
0.44900002 24933.53038157  2356.21873272
0.45000002 25010.73077721  2537.96402590
0.45100002 25086.51430960  1870.95232588
0.45200002 25162.28865757  2564.66639297
0.45300002 25236.85570729  2749.80792819
0.45400002 25311.16637373  2418.48206163
0.45500002 25384.85328784  2430.85366605
0.45600002 25457.07874183  2617.62424569
0.45700002 25528.84845974  1753.83197230
0.45800002 25598.97650006  2467.48546179
0.45900002 25668.00898990  2656.63905636
0.46000002 25736.32092199  2135.60001132
0.46100002 25802.37409088  2145.72553109
0.46200002 25867.77190839  2694.77526627
0.46300002 25931.68386106  3248.72150809
0.46400002 25993.45016056  1994.34755809
0.46500002 26054.76542712  2549.71946554
0.46600002 26113.28179610  2560.92966712
0.46700002 26170.13282115  1837.14341112
0.46800002 26226.00213289  2029.49927124
0.46900002 26279.10125595  1852.67672635
0.47000002 26330.59896028  2046.28259518
0.47100002 26380.31015864  2988.36167641
0.47200002 26428.12434131  2062.58306198
0.47300002 26473.81711871  2070.51733499
0.47400002 26516.63031724  2456.10299955
0.47500002 26557.84839473  1896.23046526
0.47600002 26597.55490954  2283.66617277
0.47700002 26633.74404999  2291.56744668
