# SAXS profile: number of points = 501, q_min = 0, q_max = 0.5, delta_q = 0.001
#    q    intensity    error
0.00000000 1682732.95097188 328.13292544
0.00100000 1682650.66179115 908.63137895
0.00200000 1682403.72584631 1211.33072097
0.00300000 1681992.37649030 1110.11500803
0.00400000 1681416.48298816 1891.59361524
0.00500000 1680676.56346686 1512.60896699
0.00600000 1679772.47993751 1940.13729331
0.00700000 1678704.85485200 3626.00263718
0.00800000 1677473.45843041 3170.42497029
0.00900000 1676079.59488173 2514.11949980
0.01000000 1674522.56047428 4144.44351613
0.01100000 1672803.73281868 3613.25622021
0.01200000 1670922.98347758 3909.95995277
0.01300000 1668881.41237079 5957.90690494
0.01400000 1666679.18847141 5625.04251045
0.01500000 1664317.61914508 4793.23495658
0.01600000 1661796.12640535 5508.85440530
0.01700000 1659117.01464669 6271.46259669
0.01800000 1656280.18391139 5192.43861021
0.01900000 1653286.43851874 4959.85953936
0.02000000 1650136.79801371 5197.93114888
0.02100000 1646833.32688662 5978.00524763
0.02200000 1643374.63744067 6236.60703243
0.02300000 1639763.90916092 9445.04054669
0.02400000 1636000.68968939 6748.50315268
0.02500000 1632087.56902829 10184.22689586
0.02600000 1628024.45717552 7912.19922376
0.02700000 1623813.71404149 9548.02507587
0.02800000 1619454.90087888 7749.09205608
0.02900000 1614950.68306610 10174.18977046
0.03000000 1610302.51462603 8985.48844463
0.03100000 1605510.73291921 7706.45187261
0.03200000 1600576.57021714 9507.42526498
0.03300000 1595504.05509564 9764.48526733
0.03400000 1590291.29116410 11688.64152937
0.03500000 1584941.49466749 9414.55291307
0.03600000 1579455.97364336 9642.57916471
0.03700000 1573836.48023063 9867.95518741
0.03800000 1568084.52064925 11007.95384440
0.03900000 1562202.27786471 12185.17833164
0.04000000 1556189.51291548 14355.84892188
0.04100000 1550050.25779690 14647.97561536
0.04200000 1543785.38855374 10953.15783994
0.04300000 1537395.81711124 11161.49415032
0.04400000 1530885.11301232 11366.82249201
0.04500000 1524254.56953217 10517.35701846
0.04600000 1517504.19949845 14977.76714532
0.04700000 1510638.33391460 11964.25616104
0.04800000 1503657.40773041 14367.44719935
0.04900000 1496565.34508922 11224.24061063
0.05000000 1489361.38367412 12532.97662723
0.05100000 1482050.45883467 16183.99176439
0.05200000 1474630.48380251 15240.30676032
0.05300000 1467107.82477234 15448.64611504
0.05400000 1459482.47471864 18061.09646690
0.05500000 1451756.87094194 15853.18577023
0.05600000 1443932.11236711 17283.86819157
0.05700000 1436013.42980285 13742.64916470
0.05800000 1427999.58434044 16429.13598495
0.05900000 1419893.38375040 19168.56157591
0.06000000 1411698.72174914 12917.04390747
0.06100000 1403416.49750731 15662.12884409
0.06200000 1395049.34227588 18456.50366103
0.06300000 1386600.17031007 13311.36225735
0.06400000 1378067.95603762 18810.62847962
0.06500000 1369458.82026388 16269.17154577
0.06600000 1360773.69373394 16410.93151427
0.06700000 1352014.10231928 19306.76228466
0.06800000 1343183.23890020 16682.33660803
0.06900000 1334283.66585354 22415.96663583
0.07000000 1325316.51893620 23994.85669898
0.07100000 1316284.34293231 14215.87156951
0.07200000 1307189.88778164 17176.47593011
0.07300000 1298035.91294288 15849.01923965
0.07400000 1288824.66745859 18849.06164493
0.07500000 1279557.54657423 17504.34805761
0.07600000 1270235.86897936 16138.34747196
0.07700000 1260865.19012526 23603.39746587
0.07800000 1251445.33410462 16312.59069505
0.07900000 1241978.91008681 17884.49714410
0.08000000 1232469.57119799 19466.85779028
0.08100000 1222918.60970403 21058.65944714
0.08200000 1213327.63277158 24169.48757897
0.08300000 1203699.86612877 21233.26663503
0.08400000 1194037.50313440 16746.37676751
0.08500000 1184342.66455853 16805.82319904
0.08600000 1174617.22255748 21460.25766372
0.08700000 1164865.00756755 19989.08446850
0.08800000 1155085.87238836 15420.39712058
0.08900000 1145284.73748942 18553.61361879
0.09000000 1135461.36313089 17048.95316829
0.09100000 1125619.14912944 15533.54498777
0.09200000 1115759.90518990 17121.33654961
0.09300000 1105888.02568232 18711.62627384
0.09400000 1096000.85040002 15618.01285221
0.09500000 1086104.07287280 18767.87926138
0.09600000 1076198.74049074 17224.56165124
0.09700000 1066289.57094561 18809.34891576
0.09800000 1056376.01723846 21962.05843099
0.09900000 1046460.84549646 15696.91342055
0.10000000 1036545.30093680 18844.39445723
0.10100000 1026631.49133742 20419.70132308
0.10200000 1016722.45942601 15708.36273700
0.10300000 1006819.34437259 15706.38251105
0.10400000 996925.32364382 17271.73204468
0.10500000 987043.15175321 23540.98027690
0.10600001 977169.76453894 20388.64809646
0.10700001 967313.08296593 20371.61448590
0.10800001 957471.19309235 15654.65474379
0.10900001 947648.51445335 18763.44146929
0.11000001 937844.47908681 15615.11131179
0.11100001 928062.41897411 20268.88418452
0.11200001 918303.49158428 17121.76940663
0.11300001 908569.39335956 26412.11350847
0.11400001 898862.77886990 21707.53713179
0.11500001 889185.15469552 18566.18690429
0.11600001 879537.21882167 15435.87891722
0.11700001 869922.16553441 20016.90997164
0.11800001 860339.19822142 19964.17203501
0.11900001 850790.83891768 18377.08298621
0.12000001 841278.63392890 16796.12871757
0.12100001 831807.08352097 16744.27738007
0.12200001 822373.63765482 18207.35319545
0.12300001 812982.72102851 16633.62725593
0.12400001 803632.88971549 24108.98782742
0.12500001 794326.76786971 16514.05428216
0.12600001 785067.50419152 17946.64399153
0.12700001 775854.25772821 16386.04269543
0.12800001 766688.70385113 19286.05525431
0.12900001 757572.99022655 19204.47620739
0.13000001 748508.08864936 16179.00309875
0.13100001 739493.69072054 21962.96364968
0.13200001 730533.19735663 21861.20696144
0.13300001 721626.75071148 17405.63804771
0.13400001 712774.61850094 20207.16138718
0.13500001 703979.77200801 14361.18802607
0.13600001 695242.22399463 18573.39688977
0.13700001 686562.98525047 18475.41080427
0.13800001 677941.56103883 16962.09865705
0.13900001 669381.98969842 14057.02244657
0.14000001 660882.66563555 15375.43594113
0.14100001 652446.43889301 15286.82078423
0.14200001 644072.62508878 17959.96599769
0.14300001 635763.44134979 16478.98917706
0.14400001 627515.71787182 15013.31425826
0.14500001 619336.18084590 18988.84820048
0.14600001 611221.90840075 16172.93245923
0.14700001 603175.42598952 17407.64361529
0.14800001 595194.00634631 13302.58666944
0.14900001 587281.60455765 18499.37141638
0.15000001 579437.16355493 15749.10284851
0.15100001 571662.16552053 16944.06738553
0.15200001 563957.58923912 14237.11001215
0.15300001 556323.19928170 16706.38646279
0.15400001 548757.34001068 16586.19138454
0.15500001 541264.38836217 16465.26347102
0.15600001 533840.80982193 16343.53716403
0.15700001 526491.89153219 17469.00178552
0.15800001 519211.99004357 13621.52720171
0.15900001 512006.61033412 18432.23884204
0.16000001 504871.65235747 17069.71137194
0.16100001 497811.90019969 16935.56164422
0.16200001 490824.72618641 15600.86465829
0.16300001 483910.51437959 16665.87890199
0.16400001 477070.36269105 12988.24123743
0.16500001 470302.95121612 15223.70724960
0.16600001 463610.01140360 13936.11760076
0.16700001 456989.78091445 12667.75732505
0.16800001 450444.01537118 14844.38322746
0.16900001 443973.04216239 14717.70704262
0.17000001 437574.62075363 11223.78955231
0.17100001 431250.70722924 12238.89564910
0.17200001 425000.26220712 17646.01172014
0.17300001 418823.63251359 14210.68652228
0.17400001 412721.40707809 13000.72493693
0.17500001 406691.53403524 11810.32270616
0.17600001 400734.02304652 12767.38657725
0.17700001 394852.55877849 11596.82019905
0.17800001 389042.16844308 10445.78271607
0.17900001 383304.27634910 11384.13754528
0.18000001 377640.39938899 11278.23106048
0.18100001 372049.00822574 11172.63224477
0.18200001 366527.46682905 12073.41532767
0.18300001 361078.54534957 11958.92198691
0.18400001 355700.95162526 10857.77206129
0.18500001 350394.92292785 13686.42633614
0.18600001 345159.69386738 10649.90285742
0.18700001 339994.08159734 14381.75033103
0.18800001 334897.05300405 15190.93104198
0.18900001 329873.12998397 13161.93850823
0.19000001 324914.09232516 13032.30485892
0.19100001 320026.63637650 11981.79783208
0.19200001 315205.43103013 11862.75695735
0.19300001 310454.10939592 12647.90101444
0.19400001 305768.21767612 11626.83702655
0.19500001 301149.80186738 10624.56551195
0.19600001 296596.39084780 14899.52039834
0.19700001 292110.77936947 10410.82866872
0.19800001 287688.90518678 12881.27133849
0.19900001 283332.17523550 11049.95535640
0.20000001 279037.88851551 8412.99273635
0.20100001 274808.90082455 8326.71008852
0.20200001 270641.41237140 10713.34081507
0.20300001 266536.85906091 15496.45371824
0.20400001 262494.13002726 10493.20334381
0.20500001 258511.86554144 14378.43064104
0.20600001 254589.93218791 11857.52665213
0.20700001 250727.97940474 7822.71332720
0.20800001 246924.87965095 7741.09534298
0.20900001 243182.47494193 9192.29798734
0.21000001 239495.15488112 10612.03081444
0.21100001 235866.57077709 10500.78022740
0.21200001 232293.30348106 7421.77139708
0.21300001 228776.09114017 7343.71287278
0.21400001 225314.44401728 7993.03027940
0.21500001 221908.39538831 10065.76529070
0.21600001 218554.42699426 9959.52570900
0.21700001 215254.68907582 7038.82866557
0.21800001 212007.37461832 9750.21961969
0.21900001 208810.81531056 11714.28729279
0.22000001 205665.17798517 9544.92136160
0.22100001 202571.42242939 6745.62868586
0.22200001 199526.91492768 6674.17561992
0.22300001 196531.01635173 12546.54067716
0.22400001 193582.79991755 6533.41980616
0.22500001 190684.52663522 6464.20575861
0.22600001 187831.15880129 6395.65125962
0.22700001 185025.25076972 9491.79581335
0.22800001 182264.08505274 7512.92594116
0.22900001 179547.54549344 6813.82967371
0.23000001 176875.70663745 8580.24093476
0.23100001 174248.39777205 9702.15124679
0.23200001 171662.34008579 7799.47879066
0.23300001 169119.60688366 7123.31817883
0.23400001 166617.37948600 6460.58919513
0.23500001 164155.76499136 6392.22579109
0.23600001 161734.85657116 7474.57674996
0.23700001 159353.46137011 7395.59449198
0.23800001 157010.51065712 6191.70978062
0.23900001 154706.00803191 6126.35820784
0.24000001 152438.37798245 6612.77714967
0.24100001 150208.84625018 8178.87206519
0.24200001 148015.52836533 6474.19951694
0.24300001 145857.12558601 5872.20815386
0.24400001 143733.95450901 8451.55692492
0.24500001 141644.44663286 6794.68442640
0.24600001 139589.15373426 5688.95622956
0.24700001 137567.53811597 5629.26392600
0.24800001 135578.23311439 7089.38614493
0.24900001 133619.48074996 5010.73076517
0.25000001 131693.54720354 5454.08851546
0.25100001 129797.67343738 6378.25797446
0.25200001 127933.74767353 5340.59454929
0.25300001 126097.84261222 8167.35765239
0.25400001 124292.15103945 5229.59250240
0.25500001 122513.34873054 5645.41537660
0.25600001 120764.03906051 4655.45392604
0.25700001 119041.29642931 5528.27806774
0.25800001 117345.59646429 5014.76430217
0.25900001 115677.20443539 5413.69342372
0.26000001 114033.96855801 6250.20211240
0.26100001 112415.84863209 8394.09181453
0.26200001 110823.82515390 4809.20012011
0.26300001 109255.00716068 6489.74773242
0.26400001 107710.95812117 4709.66186670
0.26500001 106190.47925271 4237.00032267
0.26600001 104692.59813893 5870.11425542
0.26700001 103217.87154832 4564.29449585
0.26800001 101765.49595164 4927.48554715
0.26900001 100333.98605421 5282.58461573
0.27000001 98924.64008248  5227.67285254
0.27100001 97535.93830589  4377.41311832
0.27200001 96168.44490783  4725.71760641
0.27300001 94820.79044625  4676.56160612
0.27400001 93491.72786662  4242.18735271
0.27500001 92183.97056313  4198.05821812
0.27600001 90893.03538442  4154.26637885
0.27700001 89622.91287431  4858.45833685
0.27800001 88369.83957891  4807.76134983
0.27900001 87135.36170713  5123.55951087
0.28000001 85917.80922760  4345.72299641
0.28100001 84718.05038807  3941.93107112
0.28200001 83535.62807419  3546.08757958
0.28300001 82369.88003931  4912.53987806
0.28400001 81219.77691268  4513.78931556
0.28500001 80086.57279427  4122.85696259
0.28600001 78968.87701618  4079.53237975
0.28700001 77867.50324716  3700.26392945
0.28800001 76779.74997310  3661.24255077
0.28900001 75709.03536478  3622.67751368
0.29000001 74652.06732356  3258.56289291
0.29100001 73610.32385432  3868.95880492
0.29200001 72582.43637825  4146.99769877
0.29300001 71569.12123146  3156.19839571
0.29400001 70568.87827970  3434.94031286
0.29500001 69583.48609767  3707.40831478
0.29600001 68610.48885961  3362.25716573
0.29700001 67651.12403185  4233.60754232
0.29800001 66705.21030840  3290.90170635
0.29900001 65772.48954352  2959.76216957
0.30000001 64851.42182382  5270.47530112
0.30100001 63944.12031617  5503.67069616
0.30200001 63048.09260796  4871.41110597
0.30300001 62165.17250627  3401.67840058
0.30400001 61294.11412113  3365.04702456
0.30500001 60435.29097149  4438.36797907
0.30600001 59587.20826351  4939.18392680
0.30700001 58751.67442776  3257.19298448
0.30800001 57927.35252440  3221.91949994
0.30900001 57114.65275531  4780.49666195
0.31000001 56313.24355846  2889.71423002
0.31100001 55522.41391129  2858.29400348
0.31200001 54743.58869318  3084.25393300
0.31300001 53974.75386080  2796.43212993
0.31400001 53218.32405369  2514.56593059
0.31500001 52470.89201788  2984.54447929
0.31600002 51735.76111086  3198.04622449
0.31700002 51010.12102806  3163.13775472
0.31800002 50295.05269443  3128.60390099
0.31900002 49590.96172553  2856.43953064
0.32000002 48897.27138966  3296.16522045
0.32100002 48213.15289671  2561.56493469
0.32200002 47540.46554318  2994.33636402
0.32300002 46876.07070232  4328.53657361
0.32400002 46223.12600716  3380.06624932
0.32500002 45579.64366325  2228.84468067
0.32600002 44946.22211329  3306.91844858
0.32700002 44322.87120896  2398.75390342
0.32800002 43710.05745735  2588.50972520
0.32900002 43105.15506180  2773.81685958
0.33000002 42511.24185452  2321.75158383
0.33100002 41926.08881822  2505.50318642
0.33200002 41351.87625113  2272.07894821
0.33300002 40786.49042015  2043.40326682
0.33400002 40231.10960125  2425.93602384
0.33500002 39685.00692474  2200.13688810
0.33600002 39147.93769515  2176.82117863
0.33700002 38620.19078109  2545.45689493
0.33800002 38102.75969944  4262.55592944
0.33900002 37593.64284333  2684.18622613
0.34000002 37093.99182334  2087.09354878
0.34100002 36603.68191891  2441.09966278
0.34200002 36123.33287323  2230.25467722
0.34300002 35651.14960672  2575.43916956
0.34400002 35189.11941820  2367.34812098
0.34500002 34735.52753503  1983.05136089
0.34600002 34291.73716923  1784.88500419
0.34700002 33855.72748085  1767.26905820
0.34800002 33429.59003876  1750.03912141
0.34900002 33011.92877861  2599.68951444
0.35000002 32603.65626159  2059.89910017
0.35100002 32204.71421329  2210.53168830
0.35200002 31813.14359722  2189.85784323
0.35300002 31431.61853429  2002.82282787
0.35400002 31058.11312268  1819.22906233
0.35500002 30693.76762587  1802.95199574
0.35600002 30337.57687474  2111.95051417
0.35700002 29990.05997224  1932.55955615
0.35800002 29651.47534381  1916.07842747
0.35900002 29321.79128609  1741.71448489
0.36000002 29000.31912768  2512.58776823
0.36100002 28686.63817210  1557.68452653
0.36200002 28383.02813407  1854.54714612
0.36300002 28086.05339440  1533.49858797
0.36400002 27798.16475770  1674.14455183
0.36500002 27517.49693593  2417.13704535
0.36600002 27246.19117220  2099.86405311
0.36700002 26982.19199610  2085.18389623
0.36800002 26727.18197757  1923.15447029
0.36900002 26479.93757450  1616.60026550
0.37000002 26239.95198681  1606.27873696
0.37100002 26007.84636416  2321.98063338
0.37200002 25784.26186046  1875.41837526
0.37300002 25568.11395974  1721.24551331
0.37400002 25359.53155210  1426.47371738
0.37500002 25158.65562466  1418.94824445
0.37600002 24965.60173350  1552.98532940
0.37700002 24779.77239287  1686.01579348
0.37800002 24601.28956548  1538.44171586
0.37900002 24431.03922540  1810.34009236
0.38000002 24267.09326843  1525.55089059
0.38100002 24109.78000977  1795.93759801
0.38200002 23960.73545512  2477.77977080
0.38300002 23818.02886927  1371.91852786
0.38400002 23682.50943989  1641.19798193
0.38500002 23553.26391232  1363.73404513
0.38600002 23431.88871999  1632.26544556
0.38700002 23316.02985858  1764.09090267
0.38800002 23206.97941470  1895.77823820
0.38900002 23104.32290197  1757.08383994
0.39000002 23008.76829287  1754.30362160
0.39100002 22918.48228313  1751.88886872
0.39200002 22835.31243699  1480.75590513
0.39300002 22757.48868234  1613.96117382
0.39400002 22687.02675871  1613.04767897
0.39500002 22620.99441091  1746.79327117
0.39600002 22561.05281009  1343.51075849
0.39700002 22506.28157566  1477.98758110
0.39800002 22458.35089804  1612.95883792
0.39900002 22414.75085798  1882.83916128
0.40000002 22376.93720545  1615.16740401
0.40100002 22344.10766274  1616.81970708
0.40200002 22316.89635547  2158.49031777
0.40300002 22294.37723534  1351.03932447
0.40400002 22276.88651098  1759.31719556
0.40500002 22263.69562530  1491.44504060
0.40600002 22256.20940603  1630.48997834
0.40700002 22252.61655208  1498.04621727
0.40800002 22253.53202571  1911.35595625
0.40900002 22258.45860076  1779.56384945
0.41000002 22268.23958522  2059.25555321
0.41100002 22281.87686945  1377.02005578
0.41200002 22298.65805691  1933.96270491
0.41300002 22320.70969096  1524.72775124
0.41400002 22345.76269021  1391.02379338
0.41500002 22374.39601744  2233.85980423
0.41600002 22405.59342750  1681.76392236
0.41700002 22441.71293302  1829.22410785
0.41800002 22481.44902468  1412.95913815
0.41900002 22522.49213735  1702.70048626
0.42000002 22567.22015648  1567.63202245
0.42100002 22615.47757962  2004.18371807
0.42200002 22666.23880816  1725.80750463
0.42300002 22719.33277901  2311.91941314
0.42400002 22774.79182024  1887.46096154
0.42500002 22833.41117480  2042.67706049
0.42600002 22892.99391721  1612.92596287
0.42700002 22956.04094015  1915.91126765
0.42800002 23020.32399766  1925.76529528
0.42900002 23087.44981967  1786.96870072
0.43000002 23156.32730344  1796.46795733
0.43100002 23225.31265903  1655.50036479
0.43200002 23297.29165223  1664.47508097
0.43300002 23369.98329402  1673.52458299
0.43400002 23444.63436653  1835.71495789
0.43500002 23519.87310728  2153.47968375
0.43600002 23597.04607182  1701.46508764
0.43700002 23674.46160756  2022.03586172
0.43800002 23752.38551451  1720.50412628
0.43900002 23832.13740490  1887.50537192
0.44000002 23911.85018661  1581.76896480
0.44100002 23992.57790946  1590.70799078
0.44200002 24073.47621056  2399.52385500
0.44300002 24154.97348913  2413.08196592
0.44400002 24236.54743554  2588.46338878
0.44500002 24317.67461049  2114.90826110
0.44600002 24398.88798873  1799.54006889
0.44700002 24481.05600283  2138.66515376
0.44800002 24561.91718415  1819.66972082
0.44900002 24643.13144437  1829.75259646
0.45000002 24724.30348962  2007.11905241
0.45100002 24804.11844469  1681.71931025
0.45200002 24883.91386577  2029.03443278
0.45300002 24962.58929575  2549.92861741
0.45400002 25040.92239725  2905.37315884
0.45500002 25118.63709074  1889.92634428
0.45600002 25194.93220357  2245.24648973
0.45700002 25270.70513116  2256.92678223
0.45800002 25344.93313816  2268.49834804
0.45900002 25418.01401196  1753.84304995
0.46000002 25490.40017736  2115.19350697
0.46100002 25560.51755476  1948.47834555
0.46200002 25630.07778735  2136.01078403
0.46300002 25697.97648638  2325.15302269
0.46400002 25763.83501323  3414.35239695
0.46500002 25829.22895278  2527.64846512
0.46600002 25891.85265893  2176.46923767
0.46700002 25952.79835200  2368.45248986
0.46800002 26012.74074991  2012.99603834
0.46900002 26069.99270410  2389.31494458
0.47000002 26125.57154888  2399.50323264
0.47100002 26179.38387403  2224.20055936
0.47200002 26231.35022852  2605.56014169
0.47300002 26281.08819078  2429.16109661
0.47400002 26328.05233038  2251.04858094
0.47500002 26373.45616353  2636.29080306
0.47600002 26417.31905431  2268.19112151
0.47700002 26457.61547314  2086.71223127
