# SAXS profile: number of points = 501, q_min = 0, q_max = 0.5, delta_q = 0.001
#    q    intensity    error
0.00000000 1664650.74656090 374.54641798
0.00100000 1664568.97991517 499.37070583
0.00200000 1664323.60916385 1048.52390697
0.00300000 1663914.87468023 1397.68854452
0.00400000 1663342.63727073 1871.26053803
0.00500000 1662607.41421911 1795.61607843
0.00600000 1661709.07137937 1919.27405558
0.00700000 1660648.23491774 2192.05576119
0.00800000 1659424.67161349 2240.22340126
0.00900000 1658039.65846874 3233.17747222
0.01000000 1656492.54049714 3553.17665279
0.01100000 1654784.64489660 3872.19623765
0.01200000 1652915.86229063 4190.14189462
0.01300000 1650887.28893152 4506.92249756
0.01400000 1648699.09121291 4080.53043165
0.01500000 1646352.58516567 4346.37101838
0.01600000 1643847.22788962 4610.99168036
0.01700000 1641185.21368550 5760.56035845
0.01800000 1638366.49490345 5603.21366470
0.01900000 1635391.83728895 7359.26359987
0.02000000 1632262.42412073 5655.78955542
0.02100000 1628980.10290151 8063.45187495
0.02200000 1625543.57475720 8412.18838155
0.02300000 1621956.05618643 7006.85048167
0.02400000 1618216.97419679 8495.63950191
0.02500000 1614329.02906831 6295.88350090
0.02600000 1610292.07132094 8478.18814328
0.02700000 1606108.48085537 11467.61507854
0.02800000 1601777.80471018 6967.73377003
0.02900000 1597302.71225425 9344.22129572
0.03000000 1592684.62336406 8146.58222297
0.03100000 1587923.80245442 7622.03460250
0.03200000 1583021.58502835 8619.55292748
0.03300000 1577982.06995469 10462.02160610
0.03400000 1572803.30095589 10734.38302431
0.03500000 1567488.37999986 9310.88140716
0.03600000 1562038.58215829 9536.24598478
0.03700000 1556455.78083960 11533.33786941
0.03800000 1550741.47519295 9979.02185469
0.03900000 1544897.76152472 10196.32569826
0.04000000 1538924.51189826 12303.70204277
0.04100000 1532825.70076395 9656.80236257
0.04200000 1526602.06892847 10831.24218154
0.04300000 1520254.66323817 12040.41749174
0.04400000 1513787.01715010 14305.28797643
0.04500000 1507200.46790881 12479.62045415
0.04600000 1500494.89851592 11636.33847893
0.04700000 1493674.70925136 15056.24176949
0.04800000 1486740.39907642 13113.05092998
0.04900000 1479695.63954461 12207.48959447
0.05000000 1472539.82799479 15770.90229221
0.05100000 1465278.01394634 12572.08594532
0.05200000 1457907.92573521 11590.36854972
0.05300000 1450436.00757393 11748.53220904
0.05400000 1442862.16281281 15474.69741781
0.05500000 1435188.89400771 14466.70472646
0.05600000 1427417.25705998 18306.62717606
0.05700000 1419552.30212611 16055.13728648
0.05800000 1411593.24470457 14991.12095873
0.05900000 1403542.46228380 16421.44757570
0.06000000 1395403.85486229 28089.48091068
0.06100000 1387178.61366466 18061.06639393
0.06200000 1378869.07602017 14333.34471522
0.06300000 1370478.45700208 21050.55008378
0.06400000 1362005.40286236 13279.55329895
0.06500000 1353455.93403292 16079.05724845
0.06600000 1344831.43443643 17570.22351300
0.06700000 1336132.87515109 13628.55596434
0.06800000 1327363.90517615 20607.32559247
0.06900000 1318527.06808467 23535.70926723
0.07000000 1309623.03833598 13947.48601142
0.07100000 1300654.76774247 15451.77936451
0.07200000 1291624.83774274 19800.60969019
0.07300000 1282535.86812374 17083.37856386
0.07400000 1273390.34443784 27218.71988794
0.07500000 1264189.71098645 17294.11605691
0.07600000 1254935.12034023 18842.85171527
0.07700000 1245631.93307793 14573.89430036
0.07800000 1236280.25843067 17579.90609932
0.07900000 1226882.42469893 20611.62570170
0.08000000 1217442.44060867 16271.11898203
0.08100000 1207961.12225129 19315.29925104
0.08200000 1198440.41592835 17904.70065415
0.08300000 1188883.70130354 14979.93533946
0.08400000 1179292.51906091 16539.57835617
0.08500000 1169669.67958486 16597.61353249
0.08600000 1160016.49765506 16652.03760568
0.08700000 1150337.11811330 16702.89573933
0.08800000 1140631.17140672 19795.65490944
0.08900000 1130903.83090757 18320.64292122
0.09000000 1121154.83783704 16834.14068092
0.09100000 1111387.29193229 18404.57441907
0.09200000 1101602.76135574 18440.83109157
0.09300000 1091806.52505229 23091.70908999
0.09400000 1081995.17666931 18502.11839060
0.09500000 1072174.67944767 18527.17933168
0.09600000 1062345.94711693 15457.13425716
0.09700000 1052513.66318594 18566.34189146
0.09800000 1042677.39729910 17032.13608569
0.09900000 1032840.01209556 20140.38118291
0.10000000 1023002.39957091 18598.18449882
0.10100000 1013166.98617520 15501.45561754
0.10200000 1003336.61937651 18601.86179820
0.10300000 993512.39124676 18598.55283903
0.10400000 983697.75554143 21690.53653012
0.10500000 973894.87169333 17033.42210733
0.10600001 964101.34888144 24758.12380423
0.10700001 954324.54872123 26282.09930856
0.10800001 944562.96445071 18532.32623469
0.10900001 934820.81746229 18509.45305691
0.11000001 925097.37875714 20023.73370571
0.11100001 915395.95985864 15378.65284955
0.11200001 905718.20797501 16887.11678269
0.11300001 896065.39414863 16854.99085748
0.11400001 886440.22666032 16820.20409285
0.11500001 876844.03706773 19834.21305243
0.11600001 867277.88371354 15220.72757594
0.11700001 857744.69852584 16700.29006680
0.11800001 848243.70964569 19683.49620939
0.11900001 838777.55941975 19627.39581490
0.12000001 829347.52564345 15052.65829948
0.12100001 819958.13908609 16505.75811736
0.12200001 810607.23285011 16451.27456573
0.12300001 801298.61139580 19375.40133641
0.12400001 792031.31217219 16335.64658325
0.12500001 782807.51899267 16274.56908672
0.12600001 773630.95563969 17685.20447931
0.12700001 764500.30120727 16146.24712241
0.12800001 755417.34746567 17540.79163484
0.12900001 746384.11950970 16009.94011806
0.13000001 737401.88384548 21734.92155082
0.13100001 728470.35373992 18750.82778913
0.13200001 719592.11848886 15791.44978465
0.13300001 710768.18570615 24286.95005054
0.13400001 701998.68062873 15637.02134822
0.13500001 693286.26018559 16971.64844953
0.13600001 684630.79737845 21103.74532425
0.13700001 676033.94173899 20990.85488078
0.13800001 667494.75970373 16700.71967532
0.13900001 659017.16656009 16607.23338048
0.14000001 650599.74451422 13760.18524541
0.14100001 642245.32431528 15047.80865841
0.14200001 633953.18994546 16317.95587884
0.14300001 625725.57967263 18921.94242180
0.14400001 617559.45495684 16118.30253467
0.14500001 609461.07333260 17351.35757628
0.14600001 601427.83698533 19892.22664669
0.14700001 593462.22054397 14492.34810938
0.14800001 585561.39684524 15704.75740432
0.14900001 577729.54223229 16898.58990758
0.15000001 569965.43050201 14200.68937099
0.15100001 562270.52915456 20511.62987140
0.15200001 554645.78637692 12729.12139800
0.15300001 547090.85725560 17692.91915856
0.15400001 539604.41596088 17564.12456840
0.15500001 532190.64316853 16189.24012921
0.15600001 524845.92780878 12360.12218323
0.15700001 517575.75324125 14719.85511691
0.15800001 510374.12885977 15824.15061218
0.15900001 503246.85154378 14493.51000856
0.16000001 496189.60395328 15577.87335143
0.16100001 489207.52443478 16642.84076688
0.16200001 482297.59906209 12971.39453910
0.16300001 475460.15202982 12865.95232130
0.16400001 468696.49459748 16240.33430450
0.16500001 462005.21649659 13804.71652066
0.16600001 455388.11583145 15970.46197622
0.16700001 448843.59668602 13573.03100463
0.16800001 442373.07572728 16821.23699877
0.16900001 435976.82003182 11117.40943575
0.17000001 429652.80923221 12122.65458491
0.17100001 423402.94412878 13108.55576923
0.17200001 417226.30986046 10827.02325216
0.17300001 411122.83368914 11803.33711262
0.17400001 405093.77885166 11697.08341675
0.17500001 399136.50162922 14752.08579692
0.17600001 393251.05984822 10440.81613208
0.17700001 387441.37462005 13448.09074822
0.17800001 381702.23067510 15373.05806654
0.17900001 376035.43593018 15229.43587451
0.18000001 370441.85664708 14080.49563625
0.18100001 364920.66433015 14943.50191020
0.18200001 359468.73567458 13814.38416454
0.18300001 354089.10166259 16613.86143484
0.18400001 348780.36303764 13550.11774413
0.18500001 343542.66156278 10543.32478145
0.18600001 338375.34200633 9491.42879169
0.18700001 333277.24368918 12217.94433088
0.18800001 328247.17422323 12097.55017756
0.18900001 323289.75349766 11056.51009201
0.19000001 318396.73755365 15507.51383526
0.19100001 313574.81656609 11740.24168696
0.19200001 308818.93784051 10728.37040751
0.19300001 304132.10578786 9735.26916629
0.19400001 299510.33853552 13141.01672421
0.19500001 294955.60055706 9538.86457278
0.19600001 290465.53768929 11158.23415763
0.19700001 286042.49954309 12743.19395686
0.19800001 281682.76346217 8408.23088671
0.19900001 277387.82550164 10818.12570583
0.20000001 273154.72157224 9059.17676909
0.20100001 268986.42453847 12225.43357308
0.20200001 264879.17445756 12904.91398950
0.20300001 260834.25772831 8779.68153010
0.20400001 256850.88708150 9477.79818128
0.20500001 252927.38289943 8597.00215111
0.20600001 249063.54649623 8506.76583268
0.20700001 245259.39064380 8417.30268477
0.20800001 241513.34606738 9085.73250854
0.20900001 237827.65444179 10488.20005667
0.21000001 234196.43428767 8153.54924516
0.21100001 230623.39592556 8067.20677084
0.21200001 227105.37130658 8707.22034752
0.21300001 223642.66524768 8614.71587261
0.21400001 220235.13846889 9943.61697197
0.21500001 216882.57342832 7729.69528243
0.21600001 213581.80784107 10428.13226087
0.21700001 210334.43879447 8941.31741589
0.21800001 207139.12520541 8165.42470166
0.21900001 203994.21199814 7404.99024565
0.22000001 200899.47998609 6659.81807643
0.22100001 197856.37489048 7247.47935492
0.22200001 194861.57283439 9125.36788732
0.22300001 191915.20204855 7738.02131249
0.22400001 189015.85918441 6379.28554913
0.22500001 186165.95121705 9466.53906703
0.22600001 183360.47999387 8116.45203074
0.22700001 180601.93181588 7411.90363223
0.22800001 177887.58908615 7332.52676889
0.22900001 175217.33462911 8462.99766281
0.23000001 172591.26539008 7176.34515430
0.23100001 170009.46062809 5916.32950966
0.23200001 167468.09953403 7608.91346218
0.23300001 164969.56757841 6948.51851503
0.23400001 162511.31259621 6301.37644394
0.23500001 160092.95193703 6800.74891993
0.23600001 157714.77547714 6167.43658673
0.23700001 155375.77164400 8320.37296507
0.23800001 153074.67540889 7134.04558486
0.23900001 150811.40668740 6515.05307705
0.24000001 148584.69654095 5908.47073742
0.24100001 146395.42468550 5845.56958419
0.24200001 144241.96282287 8412.19166974
0.24300001 142122.92208029 5721.86911361
0.24400001 140038.66060154 5661.06312261
0.24500001 137987.60327274 7128.43992228
0.24600001 135970.25665103 6549.00772140
0.24700001 133986.10879479 5482.71183125
0.24800001 132033.71083924 8383.48086633
0.24900001 130111.73631289 5367.10937681
0.25000001 128221.83317194 5793.06269677
0.25100001 126361.57133098 5254.11438451
0.25200001 124532.84141748 6143.82802199
0.25300001 122731.66914396 6078.89986030
0.25400001 120960.16926020 6477.41737034
0.25500001 119215.36143555 5035.65710528
0.25600001 117499.41973850 6794.40426784
0.25700001 115809.70128886 5378.20278232
0.25800001 114146.57338080 4434.59458566
0.25900001 112510.21727290 4826.68854938
0.26000001 110898.71605897 5210.02192696
0.26100001 109311.76650420 6014.33367764
0.26200001 107750.70940091 5525.99539310
0.26300001 106212.24283797 4626.60551694
0.26400001 104698.33336231 4161.75894808
0.26500001 103207.46965465 4529.77605749
0.26600001 101738.92118145 4482.10838474
0.26700001 100292.99471349 4434.95643609
0.26800001 98869.03345878  3989.36568884
0.26900001 97465.66714178  5526.30358845
0.27000001 96084.06252907  5077.56252463
0.27100001 94722.58798724  5024.08630460
0.27200001 93382.09075754  4206.39647723
0.27300001 92061.10235760  4540.45378315
0.27400001 90758.26820534  4866.91236284
0.27500001 89476.45863551  4815.62323166
0.27600001 88210.93554081  4398.19745421
0.27700001 86965.97234471  3989.12934024
0.27800001 85737.76125373  5023.37566960
0.27900001 84527.72738894  4615.21413386
0.28000001 83334.48318508  5971.33267524
0.28100001 82158.59324268  4517.90125624
0.28200001 80999.71619852  4813.81336151
0.28300001 79857.09567166  4762.67741128
0.28400001 78729.98101411  4711.98958672
0.28500001 77619.32871969  5660.77791146
0.28600001 76523.99355789  3623.79388646
0.28700001 75444.48826111  3585.12225186
0.28800001 74378.55384856  3869.17255434
0.28900001 73329.17496486  3508.80118815
0.29000001 72293.42660658  3471.16904282
0.29100001 71272.58117314  3746.08704378
0.29200001 70265.34316663  3705.79437402
0.29300001 69272.27880683  4276.87069598
0.29400001 68292.05170575  4230.69280344
0.29500001 67326.62590181  3587.16279785
0.29600001 66373.12935058  4435.38457881
0.29700001 65433.12729563  3802.31920714
0.29800001 64506.27775809  3471.72803329
0.29900001 63592.36607521  2861.65660885
0.30000001 62689.97942680  5094.81486920
0.30100001 61801.01608597  3079.54477735
0.30200001 60923.21862458  4153.44062636
0.30300001 60058.26069969  4107.98522634
0.30400001 59204.89303691  3792.07357854
0.30500001 58363.71716400  3214.67369358
0.30600001 57532.89148371  4239.02364521
0.30700001 56714.49830689  3406.27292958
0.30800001 55907.11998290  2850.42464728
0.30900001 55111.17953319  2562.66996962
0.31000001 54326.36591897  3041.19010813
0.31100001 53551.88806121  3007.47417591
0.31200001 52789.34988298  2974.15211322
0.31300001 52036.63760881  2696.01832216
0.31400001 51296.03704928  3635.60679800
0.31500001 50564.56354282  2396.76042541
0.31600002 49844.93534019  3318.17750270
0.31700002 49134.74375664  3281.21834343
0.31800002 48434.91596815  2549.37192269
0.31900002 47745.90116962  2750.16403759
0.32000002 47067.24910096  2946.17459697
0.32100002 46398.09044255  2689.23344939
0.32200002 45740.13299970  2437.72050365
0.32300002 45090.36439251  2629.67017589
0.32400002 44451.83622300  2600.43254218
0.32500002 43822.76068838  2785.81302887
0.32600002 43203.72007204  3178.71385482
0.32700002 42594.54650713  2305.21696612
0.32800002 41995.77531513  2901.48825392
0.32900002 41404.82295032  3074.30824964
0.33000002 40824.89108680  2026.95593844
0.33100002 40253.45439243  2405.54654840
0.33200002 39692.98409505  2379.19757932
0.33300002 39141.18263117  1960.97334268
0.33400002 38599.43804387  3297.35715105
0.33500002 38066.77822419  2877.84857003
0.33600002 37543.04596621  2846.70159520
0.33700002 37028.54492772  2628.28624344
0.33800002 36524.43164040  2042.99418056
0.33900002 36028.52053564  2021.20009777
0.34000002 35542.01280645  1817.97404115
0.34100002 35064.67955799  2338.46359047
0.34200002 34597.34700961  1780.03358795
0.34300002 34138.19732186  2113.83727828
0.34400002 33689.08869555  2092.09250707
0.34500002 33248.33556699  1898.14756742
0.34600002 32817.33368898  2391.39921917
0.34700002 32394.13224442  1690.97378324
0.34800002 31980.76698111  2176.45119998
0.34900002 31575.83711003  1989.27783215
0.35000002 31180.15308636  2462.45270662
0.35100002 30793.90507141  2113.69374421
0.35200002 30414.90170826  2254.65677042
0.35300002 30045.92614468  2393.15813077
0.35400002 29685.10688501  1738.80521815
0.35500002 29333.37032219  2506.24327903
0.35600002 28989.76470541  2018.12256555
0.35700002 28654.74644669  2308.13993561
0.35800002 28328.54916891  1983.14017850
0.35900002 28011.36997280  1966.39826523
0.36000002 27702.39585596  1500.08480665
0.36100002 27401.24076306  1487.88744391
0.36200002 27109.95482622  1918.97824327
0.36300002 26825.51592650  1904.07521065
0.36400002 26550.03625311  1889.69891982
0.36500002 26281.82157711  1442.87207293
0.36600002 26022.93759006  1719.07533863
0.36700002 25771.37235685  1564.83780363
0.36800002 25528.86054153  1413.02249791
0.36900002 25294.05102437  2105.72984753
0.37000002 25066.55486899  1673.94461344
0.37100002 24846.86164574  1525.10044006
0.37200002 24635.71313168  1654.04185801
0.37300002 24432.05217864  2055.95728822
0.37400002 24235.98898508  1499.60188949
0.37500002 24047.65343919  1627.54526186
0.37600002 23867.00000119  1619.61469680
0.37700002 23693.59603746  1612.11235076
0.37800002 23527.69666116  1738.81450411
0.37900002 23369.88653476  2131.33375294
0.38000002 23218.56031226  1725.02302012
0.38100002 23073.77082695  1586.55255722
0.38200002 22937.31036033  1317.74854263
0.38300002 22807.01427356  1576.42090127
0.38400002 22684.09188510  1703.00827895
0.38500002 22567.48915149  1829.32075728
0.38600002 22458.58834560  1825.20956132
0.38700002 22355.43041509  1431.19472298
0.38800002 22258.93567836  1818.33254171
0.38900002 22168.98578608  1685.95144890
0.39000002 22086.00145686  1683.94726086
0.39100002 22008.48386195  1423.50880363
0.39200002 21937.87099101  1551.88506743
0.39300002 21872.70292998  1421.94448485
0.39400002 21814.85200315  1551.03605091
0.39500002 21761.52831912  1421.89832774
0.39600002 21714.34953741  1293.08957622
0.39700002 21672.23986786  2199.51572840
0.39800002 21636.92546524  1942.45507567
0.39900002 21606.09932084  1555.63922480
0.40000002 21580.98026459  1557.71522930
0.40100002 21560.89842430  1950.18335488
0.40200002 21546.41953302  1953.72168372
0.40300002 21536.60778506  1827.16589106
0.40400002 21531.79395250  1438.86219905
0.40500002 21531.30022807  1966.88436903
0.40600002 21536.56517029  1446.28810254
0.40700002 21545.73463760  1977.89853345
0.40800002 21559.35499722  1719.46643927
0.40900002 21576.92202639  1592.37692100
0.41000002 21599.42467321  1597.92551304
0.41100002 21625.71229731  1737.40980829
0.41200002 21655.25993900  1744.00644182
0.41300002 21689.99007956  1481.64329254
0.41400002 21727.67415635  2434.58600458
0.41500002 21768.91812184  2037.57083275
0.41600002 21812.93152465  1773.71861097
0.41700002 21861.64417105  2193.16024716
0.41800002 21913.95592430  1652.75063412
0.41900002 21967.58624134  1522.35379866
0.42000002 22024.89071028  1947.22067996
0.42100002 22085.70264442  1817.43255673
0.42200002 22148.99474995  1686.42454017
0.42300002 22214.62189773  1977.99002750
0.42400002 22282.61441757  1562.56841008
0.42500002 22353.59506296  1714.07375065
0.42600002 22425.59003741  1579.99502096
0.42700002 22501.04117372  1589.02360299
0.42800002 22577.73782569  1598.16524772
0.42900002 22657.17139120  1607.52638638
0.43000002 22738.29777830  1764.03722523
0.43100002 22819.54032554  2513.80068138
0.43200002 22903.76652013  1636.35967657
0.43300002 22988.59411014  1945.52481174
0.43400002 23075.34415284  1656.23290506
0.43500002 23162.70705154  1969.29344684
0.43600002 23251.89714641  1524.16193018
0.43700002 23341.28922008  1993.57960676
0.43800002 23431.11385263  2314.40838047
0.43900002 23522.78441767  1707.75422965
0.44000002 23614.25833221  2811.74987286
0.44100002 23706.76431985  1728.93440378
0.44200002 23799.46289404  1897.76926111
0.44300002 23892.57502970  2068.61924410
0.44400002 23985.74974451  2401.57330698
0.44500002 24078.34812486  1610.84156589
0.44600002 24171.04412466  2106.86916097
0.44700002 24264.56275358  1793.63656375
0.44800002 24356.82212289  2624.69127635
0.44900002 24449.27981378  1650.32646564
0.45000002 24541.61384282  1660.24025515
0.45100002 24632.40521910  1837.08486830
0.45200002 24723.21343482  2183.92516227
0.45300002 24812.89231051  2027.70965571
0.45400002 24902.01605971  2209.43147961
0.45500002 24990.52802332  2393.09307693
0.45600002 25077.52674106  2234.78390144
0.45700002 25163.83811478  2247.38248854
0.45800002 25248.57647388  2259.87394440
0.45900002 25332.14808424  2796.66928105
0.46000002 25414.85658115  1933.18115747
0.46100002 25495.28337594  2296.87018820
0.46200002 25574.95003354  2309.03447321
0.46300002 25652.88128623  2678.16093321
0.46400002 25728.63866190  3050.77347393
0.46500002 25803.93929545  1803.69544224
0.46600002 25876.23360644  2175.15630005
0.46700002 25946.91070242  2003.62053940
0.46800002 26016.32726241  2013.27358062
0.46900002 26083.03601597  2022.73953891
0.47000002 26147.98087099  2216.82592331
0.47100002 26211.00358152  2969.18262644
0.47200002 26272.04387567  2236.80192159
0.47300002 26330.74427799  2246.53920828
0.47400002 26386.66653701  2068.05508786
0.47500002 26440.80573675  2454.23570481
0.47600002 26493.26919199  3032.94960085
0.47700002 26542.16459902  1903.07329195
