# SAXS profile: number of points = 501, q_min = 0, q_max = 0.5, delta_q = 0.001
#    q    intensity    error
0.00000000 1682732.95097188 277.65093691
0.00100000 1682650.73187461 555.27475471
0.00200000 1682404.00648963 984.20637496
0.00300000 1681993.01761935 1009.19584652
0.00400000 1681417.61482285 1513.27591084
0.00500000 1680678.32319869 1815.13266090
0.00600000 1679775.01770707 2116.51660848
0.00700000 1678708.31987349 2417.34008108
0.00800000 1677477.98183387 2491.05490820
0.00900000 1676085.31507121 3268.36650410
0.01000000 1674529.61352580 3591.86617611
0.01100000 1672812.25837461 3312.16841579
0.01200000 1670933.12783701 3584.15171635
0.01300000 1668893.30040089 3855.14369396
0.01400000 1666692.96079827 4500.07119365
0.01500000 1664333.38948845 5991.60046896
0.01600000 1661814.08765235 5085.15133554
0.01700000 1659137.27402786 5823.57209308
0.01800000 1656302.86743145 4720.46338459
0.01900000 1653311.62391345 5951.92211465
0.02000000 1650164.73644030 6237.62298591
0.02100000 1646864.07843150 5978.11687575
0.02200000 1643408.35339017 6236.73498447
0.02300000 1639800.70301838 7083.93935949
0.02400000 1636040.63590668 7362.18319728
0.02500000 1632130.88739960 7638.37290188
0.02600000 1628071.25611341 9890.53333326
0.02700000 1623864.05322334 7502.25226950
0.02800000 1619508.93395116 7749.35060434
0.02900000 1615008.56992643 7267.53889835
0.03000000 1610364.35436299 7488.19459198
0.03100000 1605576.59032650 12330.82878109
0.03200000 1600646.63093511 11092.48166328
0.03300000 1595578.37962020 12206.17516680
0.03400000 1590370.03596858 11689.22030371
0.03500000 1585024.75595608 10270.96089289
0.03600000 1579543.83097713 9643.11553376
0.03700000 1573929.06740827 10765.67531896
0.03800000 1568181.88839640 10091.25091885
0.03900000 1562304.59430434 9373.82799993
0.04000000 1556296.87046303 9571.22619687
0.04100000 1550162.75079373 9766.02578282
0.04200000 1543903.15893438 11949.81100454
0.04300000 1537518.95754325 13191.91326806
0.04400000 1531013.61050696 13434.64505613
0.04500000 1524388.59936363 12621.93818921
0.04600000 1517643.86660685 14979.14565974
0.04700000 1510783.62003115 13053.17108414
0.04800000 1503808.50647223 14368.89094790
0.04900000 1496722.19414205 13470.50037430
0.05000000 1489524.18855807 14813.31874501
0.05100000 1482219.25690293 12717.44181666
0.05200000 1474805.35544860 12897.17343442
0.05300000 1467288.90744055 11885.04070432
0.05400000 1459669.79015968 13246.50396343
0.05500000 1451950.39413215 13416.02226763
0.05600000 1444132.21603498 12347.33102328
0.05700000 1436219.79062170 13744.62403783
0.05800000 1428212.37243006 16431.58411204
0.05900000 1420112.80638451 15337.21902529
0.06000000 1411924.59841786 12919.11067909
0.06100000 1403649.03527798 23497.08594860
0.06200000 1395288.60145359 21096.76464012
0.06300000 1386846.22596570 13313.72439176
0.06400000 1378320.81654678 14782.49144879
0.06500000 1369718.48336645 14916.23498161
0.06600000 1361040.24941870 15046.30066132
0.06700000 1352287.54151290 15172.66692584
0.06800000 1343463.50574874 16685.81752245
0.06900000 1334571.05910490 14012.99677667
0.07000000 1325610.74779441 15529.53063764
0.07100000 1316585.60296949 15641.03769587
0.07200000 1307498.17377069 15748.81624085
0.07300000 1298351.23404731 20176.37912247
0.07400000 1289147.02762011 21754.35711059
0.07500000 1279887.08309024 18967.92746047
0.07600000 1270572.62425378 17610.13739773
0.07700000 1261208.90639661 17707.37387608
0.07800000 1251796.25094036 20767.30077701
0.07900000 1242336.86369626 14908.04306360
0.08000000 1232834.62773206 16476.83557258
0.08100000 1223290.67982249 21065.06649488
0.08200000 1213706.77761948 16621.71509948
0.08300000 1204086.21448443 18205.78441744
0.08400000 1194430.83465304 21320.59139932
0.08500000 1184743.00524406 18339.82258214
0.08600000 1175024.60364468 21467.70051653
0.08700000 1165279.59268126 19996.19874939
0.08800000 1155507.29479959 24681.63697606
0.08900000 1145713.06662692 21653.97797633
0.09000000 1135896.87671204 18605.99171457
0.09100000 1126061.53503010 34187.22980967
0.09200000 1116208.89803225 17128.22634510
0.09300000 1106343.96546471 18719.34077533
0.09400000 1096463.35539512 15624.60354870
0.09500000 1086573.42220383 17211.32381669
0.09600000 1076674.85712944 20365.30587993
0.09700000 1066772.20169770 17249.70731241
0.09800000 1056865.27426118 20402.78507890
0.09900000 1046956.65614726 18845.22069680
0.10000000 1037047.65089869 20424.65444496
0.10100000 1027140.01821190 18858.29162131
0.10200000 1017237.37728415 15716.31821828
0.10300000 1007340.49340923 26714.67114189
0.10400000 997452.82203601 20422.84749198
0.10500000 987576.65418325 20413.21040240
0.10600001 977709.36455270 21969.13045522
0.10700001 967858.60393566 23518.96518238
0.10800001 958022.66632549 17230.03846474
0.10900001 948205.78830762 20339.01511647
0.11000001 938407.52153522 15624.48596900
0.11100001 928630.94824543 26521.70113036
0.11200001 918877.54154983 17132.47256874
0.11300001 909149.00294101 18655.73841868
0.11400001 899447.62255425 21721.66110744
0.11500001 889775.29354995 15482.09083679
0.11600001 880132.60409645 18535.59351514
0.11700001 870522.63957032 15408.25144605
0.11800001 860944.47452679 16904.64555351
0.11900001 851401.03683808 19922.78520041
0.12000001 841893.54930476 18336.44236759
0.12100001 832426.61807342 24373.45252538
0.12200001 822997.66003586 18221.16905162
0.12300001 813611.14401196 19673.11838910
0.12400001 804265.48239515 22619.96775816
0.12500001 794963.36562542 16527.28915013
0.12600001 785708.21396985 14967.74218146
0.12700001 776498.88944235 16399.65731788
0.12800001 767337.07898160 20787.16244929
0.12900001 758224.94513646 16263.92583973
0.13000001 749163.55604832 16193.17102725
0.13100001 740152.63225768 19051.52965236
0.13200001 731195.30704598 16046.08176954
0.13300001 722291.92302199 18873.48883832
0.13400001 713442.76311304 17336.65996099
0.13500001 704650.94571656 20124.83195851
0.13600001 695915.80028212 20021.49851815
0.13700001 687239.13511060 15648.43584434
0.13800001 678620.19006272 14149.23163003
0.13900001 670062.96007480 15478.45510766
0.14000001 661565.62038289 15391.32488407
0.14100001 653131.36138461 16694.03838433
0.14200001 644759.25156163 17979.11257779
0.14300001 636451.76045371 15122.09454165
0.14400001 628205.69012020 20495.21160693
0.14500001 620027.47615425 24441.48426296
0.14600001 611914.17001800 16191.24970249
0.14700001 603868.84615191 13405.88901702
0.14800001 595888.40530970 17313.53843310
0.14900001 587976.60044294 14552.42154756
0.15000001 580132.77291134 19710.01188964
0.15100001 572358.23573148 13049.76839043
0.15200001 564653.88847455 14254.68808718
0.15300001 557019.51365832 16727.29678450
0.15400001 549453.54039804 16607.23404224
0.15500001 541960.46679471 19022.81328224
0.15600001 534536.37040186 18882.49817560
0.15700001 527187.03087426 18741.49983212
0.15800001 519906.37494097 13639.74439035
0.15900001 512700.07865213 15996.24320898
0.16000001 505564.19137821 17093.12611733
0.16100001 498503.27578960 14536.35620820
0.16200001 491514.68351251 14421.04149502
0.16300001 484598.81105454 15497.47070913
0.16400001 477757.08403092 11824.48838799
0.16500001 470987.55316466 12900.34969022
0.16600001 464292.87048606 16282.75173670
0.16700001 457670.40573982 18453.27163070
0.16800001 451122.22017446 17153.92323208
0.16900001 444648.75404017 12472.39813975
0.17000001 438247.61580510 17985.68300192
0.17100001 431920.90569724 17829.69582912
0.17200001 425667.30734117 13255.28057656
0.17300001 419487.57366480 16422.93928454
0.17400001 413382.09524907 13021.53661530
0.17500001 407348.84836303 11829.41111514
0.17600001 401387.48464693 18116.62497517
0.17700001 395502.30033818 10559.91191778
0.17800001 389687.86721594 17787.30353920
0.17900001 383945.82197698 11403.19145133
0.18000001 378277.66227261 13351.31072056
0.18100001 372681.83857909 11191.63614118
0.18200001 367155.66501386 10078.42348071
0.18300001 361702.17791013 14974.47087286
0.18400001 356319.64378279 9887.87058208
0.18500001 351008.54053717 10772.45261800
0.18600001 345768.26325748 14548.20036387
0.18700001 340597.04794837 12486.28836770
0.18800001 335494.60218501 12364.65414771
0.18900001 330464.87722330 12243.72427961
0.19000001 325500.22485425 12123.25644751
0.19100001 320606.72053518 9233.47398770
0.19200001 315779.51168500 10970.18075429
0.19300001 311021.95109351 11765.96096584
0.19400001 306329.68200898 10752.17234660
0.19500001 301704.77311968 13305.18112332
0.19600001 297144.85377392 15805.13551913
0.19700001 292652.38777298 9560.95396037
0.19800001 288223.60942899 9463.82266285
0.19900001 283859.92417253 11922.11737869
0.20000001 279558.41582038 9271.55529887
0.20100001 275322.18451862 9176.48884371
0.20200001 271147.29511630 11559.00973713
0.20300001 267035.17472989 12256.91509942
0.20400001 262984.92949567 8086.78696422
0.20500001 258994.87545059 12804.70724752
0.20600001 255065.06639352 11879.65602881
0.20700001 251195.07112711 9404.74390755
0.20800001 247383.90293796 9306.58286845
0.20900001 243633.20358499 10744.22478599
0.21000001 239937.45381173 8353.42284934
0.21100001 236300.48855511 10520.09824779
0.21200001 232718.81030505 11896.58614520
0.21300001 229192.79891497 12507.05162807
0.21400001 225722.52343198 7279.55172483
0.21500001 222307.60346726 11524.42670859
0.21600001 218944.87502584 8551.98722284
0.21700001 215635.97708798 7051.29678416
0.21800001 212379.64917191 6976.67180516
0.21900001 209173.93260075 7593.01411242
0.22000001 206019.05820954 8878.39173333
0.22100001 202916.00501489 9459.94460109
0.22200001 199862.01650749 8022.46172195
0.22300001 196856.70429155 7275.82413466
0.22400001 193898.83991260 7852.90338780
0.22500001 190991.04956963 6474.59688658
0.22600001 188127.96028234 7046.33308558
0.22700001 185312.31951482 7605.21795253
0.22800001 182541.26275277 8778.40974091
0.22900001 179814.91589348 7444.33787004
0.23000001 177133.21928586 7365.19960622
0.23100001 174495.95560825 6679.70549659
0.23200001 171899.90239504 7810.27243469
0.23300001 169347.03404857 7727.30552910
0.23400001 166834.66645685 7645.19895197
0.23500001 164363.02320120 5818.45129651
0.23600001 161931.97735689 6908.01848077
0.23700001 159540.30826959 6265.14820207
0.23800001 157187.18730619 7325.70921090
0.23900001 154872.40136991 5575.40671303
0.24000001 152594.55480987 6619.55210076
0.24100001 150354.69529461 6003.66326709
0.24200001 148151.01735839 6480.12580578
0.24300001 145982.36478862 6411.54576480
0.24400001 143848.78924128 8458.30920750
0.24500001 141748.93019950 8891.91081204
0.24600001 139683.24400856 5175.26443533
0.24700001 137651.34523989 5632.69331368
0.24800001 135651.72803248 6586.56996621
0.24900001 133682.66596617 6015.72025307
0.25000001 131746.43662448 5952.30428829
0.25100001 129840.21178442 5398.75626141
0.25200001 127966.09197012 6313.20744602
0.25300001 126119.77323352 5285.67994628
0.25400001 124303.75392346 6181.00445627
0.25500001 122514.76165107 5175.02377698
0.25600001 120755.32208111 5586.14146377
0.25700001 119022.43262119 5988.01886849
0.25800001 117316.57725334 5925.07401452
0.25900001 115638.12278433 4960.87570217
0.26000001 113984.73852039 5801.25354148
0.26100001 112356.62021067 6181.86153649
0.26200001 110754.64963734 5243.12536192
0.26300001 109175.93612633 4323.36727517
0.26400001 107621.93812898 5561.36391597
0.26500001 106091.62565259 4233.05606384
0.26600001 104584.07321529 4188.59233047
0.26700001 103099.57785400 4973.52387103
0.26800001 101637.63475038 7792.04963686
0.26900001 100196.54713884 4057.96035115
0.27000001 98777.60685223  4416.84089941
0.27100001 97379.47085086  5959.62389810
0.27200001 96002.68353345  5896.96511511
0.27300001 94645.75914417  5056.92315039
0.27400001 93307.43013347  4233.82484267
0.27500001 91990.61080191  5712.61720115
0.27600001 90690.63144676  6029.11346391
0.27700001 89411.49641604  4474.15149240
0.27800001 88149.58379839  4426.87230787
0.27900001 86906.26400071  3650.06326078
0.28000001 85680.18098124  5417.12969892
0.28100001 84471.79458263  3930.47278795
0.28200001 83280.88832483  4949.38342740
0.28300001 82106.77790292  4197.29868506
0.28400001 80948.46129899  3460.54688432
0.28500001 79807.10417465  3423.72493114
0.28600001 78681.45578683  3725.96051514
0.28700001 77572.00312316  3351.11069354
0.28800001 76476.52469143  3315.25750229
0.28900001 75398.09026341  3279.81708170
0.29000001 74333.54244555  3893.59113760
0.29100001 73284.33200821  5777.73700901
0.29200001 72249.21975193  3810.42403008
0.29300001 71228.61636886  3455.30034361
0.29400001 70221.25401667  4660.93595599
0.29500001 69229.08685557  3688.52592227
0.29600001 68249.25290567  4560.75654132
0.29700001 67283.10995644  3609.06618891
0.29800001 66330.64710154  3272.42262967
0.29900001 65391.56527077  3825.40674943
0.30000001 64464.17012116  3201.61316063
0.30100001 63550.70056189  3454.61624609
0.30200001 62648.75104862  3132.12445695
0.30300001 61759.95650520  3097.87956496
0.30400001 60883.09333068  4456.64264279
0.30500001 60018.93527703  3030.35618560
0.30600001 59165.23163673  3269.47085503
0.30700001 58324.48792093  3772.42805732
0.30800001 57495.04213684  3997.34299381
0.30900001 56677.40865403  2899.04958991
0.31000001 55871.20741123  2606.39194913
0.31100001 55075.76726366  2835.30063297
0.31200001 54292.33605460  3058.83035814
0.31300001 53519.25502922  3529.05984371
0.31400001 52758.57844883  2991.41153968
0.31500001 52007.14955268  3204.68070717
0.31600002 51268.15591348  4144.26157949
0.31700002 50538.80337385  3857.12165612
0.31800002 49820.09290981  3575.83733791
0.31900002 49112.48474934  2593.13931755
0.32000002 48415.64101088  2564.33454756
0.32100002 47728.45901893  2535.81314775
0.32200002 47052.82017047  2279.70924520
0.32300002 46385.72098735  2705.21537608
0.32400002 45730.20412655  2452.28231241
0.32500002 45084.18773982  2866.00195033
0.32600002 44448.53902109  2834.26122489
0.32700002 43823.10755106  2371.70669297
0.32800002 43208.32305685  2132.33084383
0.32900002 42601.68127225  2741.41831969
0.33000002 42006.17236868  2085.60655687
0.33100002 41419.49117708  2681.49798578
0.33200002 40844.00404582  2652.20552831
0.33300002 40277.41595959  2219.68849865
0.33400002 39721.05148932  2594.77781142
0.33500002 39174.34436315  1974.38704940
0.33600002 38636.49591735  2929.61244167
0.33700002 38108.23285026  2511.71374611
0.33800002 37590.49819492  2484.92000085
0.33900002 37081.25848865  2269.37312698
0.34000002 36581.56931197  2993.83577427
0.34100002 36091.41325664  2592.08542285
0.34200002 35611.33003617  2198.64362056
0.34300002 35139.62569444  2357.16620322
0.34400002 34678.21239208  1974.05733391
0.34500002 34225.33875697  1953.92468217
0.34600002 33782.55302432  1934.22016501
0.34700002 33347.65543844  1740.74769633
0.34800002 32922.76679798  1723.50692350
0.34900002 32506.47401361  2047.90795985
0.35000002 32099.69020541  2028.05852323
0.35100002 31702.45735920  2510.83474177
0.35200002 31312.68845976  2321.20970546
0.35300002 30933.12471039  2299.56859989
0.35400002 30561.78502591  1952.89815565
0.35500002 30199.77378461  2580.26879437
0.35600002 29846.08567785  2077.73535287
0.35700002 29501.07826841  1584.20797805
0.35800002 29165.14944758  1727.59770936
0.35900002 28838.30869052  1868.72249166
0.36000002 28519.76881823  1698.78011012
0.36100002 28209.32509765  1991.29635296
0.36200002 27908.87500272  2279.45747382
0.36300002 27615.21488024  1809.34896466
0.36400002 27330.80096437  1945.26985078
0.36500002 27053.80849557  1782.30498811
0.36600002 26786.19997122  1916.95449174
0.36700002 26526.13315492  1903.51540536
0.36800002 26275.18322606  2036.06404463
0.36900002 26031.95854202  1444.77376752
0.37000002 25796.24470205  2009.78551994
0.37100002 25568.49028163  2140.08273795
0.37200002 25349.34950250  2127.44425777
0.37300002 25137.85487930  1551.25709809
0.37400002 24933.91977468  1542.78635914
0.37500002 24737.93657605  1953.30756458
0.37600002 24549.65407858  1388.28300391
0.37700002 24368.89917068  2210.74663749
0.37800002 24195.49465188  1650.61672334
0.37900002 24030.39274970  1780.65218711
0.38000002 23871.82605866  1909.98489343
0.38100002 23719.84161885  1495.06168806
0.38200002 23576.32975223  1625.35225012
0.38300002 23439.17588906  1890.13523324
0.38400002 23309.27287227  2288.38797265
0.38500002 23185.79031690  1610.94878754
0.38600002 23070.15469223  1740.98930633
0.38700002 22960.30206432  1336.28964345
0.38800002 22857.11787776  1467.08418049
0.38900002 22760.64611428  1997.24679115
0.39000002 22671.05737914  1595.58909394
0.39100002 22587.07426327  1726.55603848
0.39200002 22510.20196930  1857.76705654
0.39300002 22438.62004100  1723.95925943
0.39400002 22374.50091295  1458.25816609
0.39500002 22314.98280407  1325.51004136
0.39600002 22261.50738299  1325.67282746
0.39700002 22213.30424754  1591.36119169
0.39800002 22171.91126184  1459.68784708
0.39900002 22134.95358058  1726.52646109
0.40000002 22103.84539781  1861.36490914
0.40100002 22077.68908055  2263.18401488
0.40200002 22057.20712175  1466.69405705
0.40300002 22041.58174174  1469.29190852
0.40400002 22030.86273346  2141.39995915
0.40500002 22024.49887594  1609.55045411
0.40600002 22023.96709278  1479.01958019
0.40700002 22027.22582557  1752.48616972
0.40800002 22035.07448601  1757.40744890
0.40900002 22046.93193943  1491.47501637
0.41000002 22063.71505216  1768.29652664
0.41100002 22084.36409875  1910.73927236
0.41200002 22108.05717820  2054.39131063
0.41300002 22137.23181224  1512.19437675
0.41400002 22169.22286707  2208.05470218
0.41500002 22204.88340296  1524.14326900
0.41600002 22243.18341158  1530.44230715
0.41700002 22286.21810757  1397.34594156
0.41800002 22333.03724914  1543.99460338
0.41900002 22381.06945157  1551.00818649
0.42000002 22432.78883904  1983.28295524
0.42100002 22488.10344064  1708.19641829
0.42200002 22545.77663608  1859.68847395
0.42300002 22605.78178535  1725.27334761
0.42400002 22668.21299418  1589.60851154
0.42500002 22733.76210054  1597.95621377
0.42600002 22800.20737835  1606.38868696
0.42700002 22870.10057235  1615.08657895
0.42800002 22941.24211372  2066.77659996
0.42900002 23015.09424811  1929.81574415
0.43000002 23090.70155679  1791.37671166
0.43100002 23166.48603060  1501.18836592
0.43200002 23245.11251450  2415.63220698
0.43300002 23324.43609087  1670.26294762
0.43400002 23405.73128869  1985.39125065
0.43500002 23487.50298651  2457.73242898
0.43600002 23571.17648256  2163.12696831
0.43700002 23655.05208992  1864.96439515
0.43800002 23739.33813181  2344.85323509
0.43900002 23825.51091315  1572.48379479
0.44000002 23911.46395677  2056.26644041
0.44100002 23998.38831468  2545.74915306
0.44200002 24085.56619437  1760.53454441
0.44300002 24173.11414784  2253.90126996
0.44400002 24260.72621788  1781.34390697
0.44500002 24347.79405201  1791.75424920
0.44600002 24434.93036039  3112.88810079
0.44700002 24522.93451842  2307.11778883
0.44800002 24609.57073928  2651.92746854
0.44900002 24696.49295877  2000.41602446
0.45000002 24783.33048174  1844.25162520
0.45100002 24868.57371800  2529.13406698
0.45200002 24953.80729944  2882.53918681
0.45300002 25037.84925254  1875.58537640
0.45400002 25121.40316948  1885.98943233
0.45500002 25204.46084338  1896.38372373
0.45600002 25285.80612169  2080.01051015
0.45700002 25366.60568076  1916.95448215
0.45800002 25445.74978540  2102.32794691
0.45900002 25523.70133914  1761.13547587
0.46000002 25600.87608202  2124.36079797
0.46100002 25675.71016432  1957.25947859
0.46200002 25749.77718065  1967.15432095
0.46300002 25822.18208746  1976.94635431
0.46400002 25892.37432931  2167.19183408
0.46500002 25962.12440807  2540.65361499
0.46600002 26028.87481816  2552.65187440
0.46700002 26093.98836625  2198.15768416
0.46800002 26157.85137942  1840.20493176
0.46900002 26219.00307533  2772.65970663
0.47000002 26278.40559439  1856.56944324
0.47100002 26335.88128541  2423.95462840
0.47200002 26391.43355778  1872.47229967
0.47300002 26444.65323508  2256.25792096
0.47400002 26494.97479174  2831.65056508
0.47500002 26543.59740711  2084.73423917
0.47600002 26590.64410380  1902.56067580
0.47700002 26633.97327090  2291.58716885
