# SAXS profile: number of points = 501, q_min = 0, q_max = 0.5, delta_q = 0.001
#    q    intensity    error
0.00000000 1664650.74656091 299.63713438
0.00100000 1664568.96355017 898.86726166
0.00200000 1664323.53932158 1198.31298626
0.00300000 1663914.71411936 1198.01863684
0.00400000 1663342.34104672 1497.00816383
0.00500000 1662606.94416497 1645.98093987
0.00600000 1661708.40876018 2617.19085035
0.00700000 1660647.33329484 2590.60994761
0.00800000 1659423.50113587 2240.22182112
0.00900000 1658038.18613122 2735.76312406
0.01000000 1656490.71637110 3826.49372004
0.01100000 1654782.44717249 2978.60853460
0.01200000 1652913.25635410 5479.40768505
0.01300000 1650884.25240820 4506.91420785
0.01400000 1648695.59806026 4451.47831210
0.01500000 1646348.50895002 5136.60757665
0.01600000 1643842.57895116 5449.33839283
0.01700000 1641180.00923601 6203.66071320
0.01800000 1638360.63338247 6070.12641982
0.01900000 1635385.36683108 5396.77195406
0.02000000 1632255.20456831 5141.60412697
0.02100000 1628972.12585817 5913.16908496
0.02200000 1625534.85998759 6729.71462610
0.02300000 1621946.52852373 9342.41242955
0.02400000 1618206.67838657 6068.27532065
0.02500000 1614317.80421008 8184.59164114
0.02600000 1610279.97100783 7173.79759896
0.02700000 1606095.43240776 8094.72135008
0.02800000 1601763.73502421 11148.27610702
0.02900000 1597287.70021321 7906.57447908
0.03000000 1592668.48173928 11108.86317075
0.03100000 1587906.72288005 8384.14788259
0.03200000 1583003.49141308 8619.45440774
0.03300000 1577962.58264609 20119.02385623
0.03400000 1572782.78493560 11559.95400266
0.03500000 1567466.53799592 11850.04757446
0.03600000 1562015.61804780 13003.78062120
0.03700000 1556431.58692409 11533.15859249
0.03800000 1550715.91958266 9071.68854939
0.03900000 1544870.99066294 10196.14901056
0.04000000 1538896.40492649 14196.31999329
0.04100000 1532796.24260165 15450.58684182
0.04200000 1526571.16226376 10831.02289874
0.04300000 1520222.30616219 10033.46768640
0.04400000 1513753.08966750 10217.83382979
0.04500000 1507165.08868768 13519.27147370
0.04600000 1500458.02859181 12693.87551199
0.04700000 1493636.36027762 13980.43698240
0.04800000 1486700.32276468 13112.69745689
0.04900000 1479654.06014971 15536.36835475
0.05000000 1472496.69221596 14643.98028600
0.05100000 1465233.14330427 13714.58286021
0.05200000 1457861.40600768 12748.99858966
0.05300000 1450387.73760984 15272.58358901
0.05400000 1442812.21308271 14283.84157563
0.05500000 1435137.20549749 13260.66839740
0.05600000 1427363.75396188 13424.35673245
0.05700000 1419497.03737055 14819.54976190
0.05800000 1411536.13533237 13741.30491908
0.05900000 1403483.53326546 15157.62286722
0.06000000 1395343.18024173 12767.39069569
0.06100000 1387115.98865901 12900.17929737
0.06200000 1378804.53851306 14332.67384780
0.06300000 1370411.84658703 23680.71781622
0.06400000 1361936.85171100 14606.77341771
0.06500000 1353385.49397976 16078.22042058
0.06600000 1344759.08444377 18920.76120340
0.06700000 1336058.46447393 17716.13606802
0.06800000 1327287.63843521 15111.17047092
0.06900000 1318448.41942118 15228.07995728
0.07000000 1309542.47278406 15341.29078707
0.07100000 1300572.20105231 21069.27064388
0.07200000 1291540.18265908 21213.54849396
0.07300000 1282449.36987023 15658.70753981
0.07400000 1273301.57614427 15757.10774323
0.07500000 1264098.64917671 14410.72527608
0.07600000 1254842.07466134 17392.11197016
0.07700000 1245536.67334262 16030.05773755
0.07800000 1236182.81675152 19043.39718512
0.07900000 1226782.74777715 22082.09049572
0.08000000 1217340.59697781 23665.10231540
0.08100000 1207857.20288967 19313.63758037
0.08200000 1198334.21699230 16411.18787181
0.08300000 1188775.43545497 19472.14254662
0.08400000 1179182.01962075 21048.40003821
0.08500000 1169556.83225304 24139.65415094
0.08600000 1159901.52065585 19677.73022183
0.08700000 1150219.97568688 16701.19483122
0.08800000 1140511.70319066 18270.99834319
0.08900000 1130782.25390637 15265.56114475
0.09000000 1121030.55983202 16832.27464658
0.09100000 1111260.93271808 16868.94175118
0.09200000 1101474.38816539 24584.90949902
0.09300000 1091675.83116241 16931.89293700
0.09400000 1081862.22478440 18499.84491326
0.09500000 1072039.39701244 16981.10484683
0.09600000 1062208.62169159 17000.64978934
0.09700000 1052374.14790590 17016.89077165
0.09800000 1042535.52905729 15481.65333441
0.09900000 1032695.71706250 20137.56742964
0.10000000 1022856.05586973 20145.15096772
0.10100000 1013018.23246171 15499.17968562
0.10200000 1003185.84803987 20148.98870561
0.10300000 993359.36534345 17046.04751115
0.10400000 983542.34312186 20138.03042282
0.10500000 973737.26384908 23223.63483546
0.10600001 963941.68289065 18565.51768605
0.10700001 954162.61340478 20094.66558391
0.10800001 944398.90931329 15440.92289395
0.10900001 934654.61645912 16963.98208715
0.11000001 924929.03836482 16940.07613501
0.11100001 915225.38574447 19988.52336559
0.11200001 905545.44897047 19953.69490743
0.11300001 895890.58185503 16851.70263808
0.11400001 886263.24614082 16816.84588733
0.11500001 876664.95737156 15253.97097654
0.11600001 867096.85144519 18261.06055138
0.11700001 857561.48307538 19732.49065486
0.11800001 848058.53045897 18165.41457799
0.11900001 838590.41242590 15094.62813465
0.12000001 829158.44953360 19563.99453831
0.12100001 819767.11905452 19502.26068102
0.12200001 810413.98174913 14952.13866769
0.12300001 801103.45590584 16390.57748007
0.12400001 791834.22316676 22270.33857589
0.12500001 782608.67099594 16270.43503668
0.12600001 773430.09510291 17680.61280722
0.12700001 764297.67301068 17609.41921603
0.12800001 755212.97099607 14613.37167749
0.12900001 746177.99700899 14550.47162747
0.13000001 737193.93792805 14485.86156308
0.13100001 728260.61594059 15861.51696286
0.13200001 719380.63133602 18657.13755320
0.13300001 710554.99552908 18566.80290847
0.13400001 701783.65315899 17053.34357575
0.13500001 693069.66345575 21207.93270166
0.13600001 684412.74253491 16877.61902670
0.13700001 675814.36774797 26579.78033685
0.13800001 667273.78520243 15303.92498529
0.13900001 658794.40879967 13834.68323721
0.14000001 650375.81194808 17882.08379284
0.14100001 642019.89219820 15042.52678365
0.14200001 633726.28215686 16312.11527208
0.14300001 625497.14139132 16212.88666959
0.14400001 617329.73641905 13426.92240046
0.14500001 609230.03290576 14676.35218501
0.14600001 601195.64888427 15907.63761991
0.14700001 593228.89010181 14486.65017972
0.14800001 585326.72627805 17006.66883436
0.14900001 577494.03783732 14292.97811083
0.15000001 569728.80194308 16775.66536474
0.15100001 562032.63501845 16658.64808798
0.15200001 554406.88797901 16540.73028336
0.15300001 546851.05802623 12632.26003651
0.15400001 539363.72330089 21318.35216950
0.15500001 531948.92289583 12447.60538320
0.15600001 524603.51860226 14825.29613538
0.15700001 517332.57325371 13486.86082126
0.15800001 510130.13994719 18249.90661798
0.15900001 503002.23098427 16900.87575880
0.16000001 495944.22508869 14372.46432149
0.16100001 488961.47229959 15446.29363907
0.16200001 482050.85538497 12964.75836759
0.16300001 475213.03912878 11690.24131444
0.16400001 468448.89033114 13912.93269966
0.16500001 461757.08976202 14947.07770127
0.16600001 455139.59553640 13681.49688777
0.16700001 448594.72752737 15826.42273441
0.16800001 442123.91926554 15690.97863561
0.16900001 435727.57024524 14444.36963566
0.17000001 429403.39683134 14318.45694345
0.17100001 423153.15754141 12009.08717811
0.17200001 416976.67480170 11902.59974429
0.17300001 410873.11640586 16085.68326693
0.17400001 404844.03025312 11689.87192563
0.17500001 398886.71536471 14742.85369615
0.17600001 393001.52954798 11477.61021253
0.17700001 387191.82487002 11371.82443353
0.17800001 381452.99544599 10242.01341148
0.17900001 375786.42844116 14204.72766602
0.18000001 370193.33501817 11055.82447254
0.18100001 364672.23171514 10951.10763570
0.18200001 359220.82514507 13804.85696244
0.18300001 353841.74607797 16602.25551026
0.18400001 348533.45008583 10638.98406646
0.18500001 343296.24213644 13409.15185133
0.18600001 338129.49247944 11381.43925456
0.18700001 333032.16662432 10330.65829676
0.18800001 328002.85512886 10228.76952046
0.18900001 323046.06498433 9206.81328705
0.19000001 318153.99820636 13672.66871894
0.19100001 313333.00900162 10828.78930276
0.19200001 308578.05751576 18760.00389311
0.19300001 303892.16389925 10611.91486480
0.19400001 299271.54572852 11379.80106407
0.19500001 294717.55512988 11264.10548935
0.19600001 290228.72008485 9433.88499217
0.19700001 285806.89536196 14430.39082877
0.19800001 281448.40145230 9241.35869842
0.19900001 277154.80839910 8314.64464492
0.20000001 272923.07768195 9051.49429911
0.20100001 268756.13007045 10586.30446381
0.20200001 264650.32951471 8058.60291460
0.20300001 260606.88592470 9569.48530345
0.20400001 256625.08571273 7891.22175865
0.20500001 252702.97641214 10931.93127631
0.20600001 248840.95039265 8499.16306240
0.20700001 245038.40422007 10703.27800227
0.20800001 241294.16133736 7564.57231551
0.20900001 237610.30076401 7484.72482788
0.21000001 233980.90204959 8886.59507993
0.21100001 230409.70434849 8059.73183912
0.21200001 226893.54963800 10148.94895509
0.21300001 223432.84470269 8606.63358483
0.21400001 220027.33160437 9224.64631362
0.21500001 216676.90002693 9126.43146061
0.21600001 213378.11711008 6945.45804030
0.21700001 210132.96928002 8245.61810440
0.21800001 206939.80373908 8837.36473651
0.21900001 203797.11848541 8070.36627360
0.22000001 200704.69062849 8649.36905160
0.22100001 197663.66505339 7898.64042901
0.22200001 194671.51323396 9116.46739581
0.22300001 191727.52915037 9018.86339769
0.22400001 188830.65125127 6373.03478109
0.22500001 185983.19653045 6304.83066052
0.22600001 183180.21233677 7484.74383002
0.22700001 180424.15236766 7404.60756333
0.22800001 177712.42821255 8546.19107689
0.22900001 175044.93806647 8454.67090844
0.23000001 172421.55688078 7169.28867415
0.23100001 169842.34343853 7683.66798054
0.23200001 167303.65104556 9355.62060893
0.23300001 164808.05336745 7520.19183082
0.23400001 162352.55516177 7439.80619216
0.23500001 159937.04728782 5661.77174177
0.23600001 157561.65569429 6161.44883734
0.23700001 155225.58554669 10528.95196563
0.23800001 152927.33230304 7675.42317133
0.23900001 150667.12877501 5966.41858170
0.24000001 148443.40067416 5366.22918820
0.24100001 146257.17659547 7432.79006616
0.24200001 144106.80072136 5777.96244823
0.24300001 141990.69608365 5196.85972249
0.24400001 139909.52832730 6684.17803202
0.24500001 137861.61637725 8139.35021594
0.24600001 135847.43533070 5536.46248881
0.24700001 133866.34519504 6971.75958756
0.24800001 131917.19392392 5419.81816876
0.24900001 129998.38007636 6824.91527688
0.25000001 128111.78445626 7235.11336945
0.25100001 126254.63161453 5726.91036097
0.25200001 124429.17937851 6138.71385506
0.25300001 122631.36801685 6541.15747948
0.25400001 120863.07118161 5085.31396056
0.25500001 119121.52678718 5031.69352955
0.25600001 117408.94603303 4978.72659209
0.25700001 115722.36048663 5821.99223154
0.25800001 114062.59757489 6646.99818817
0.25900001 112429.72556796 4384.75950461
0.26000001 110821.58098421 6074.13114114
0.26100001 109237.87955598 4293.04886968
0.26200001 107680.23560847 6796.77679321
0.26300001 106145.17332676 5464.35378142
0.26400001 104634.53835193 4575.14540593
0.26500001 103147.11101853 4527.12691682
0.26600001 101681.86523412 6108.53834299
0.26700001 100239.31224909 5641.46876033
0.26800001 98818.81809829  5183.54134864
0.26900001 97418.77457121  4734.55266821
0.27000001 96040.52362166  4684.85696396
0.27100001 94682.42310385  6567.17317726
0.27200001 93345.39429293  4586.99289263
0.27300001 92027.61644629  4538.80225793
0.27400001 90728.16449811  4865.29805146
0.27500001 89449.70368555  4073.53969862
0.27600001 88187.57695414  4763.45219461
0.27700001 86945.97360110  3625.64727076
0.27800001 85721.05991898  6457.36774931
0.27900001 84514.30769344  3549.60109112
0.28000001 83324.45157270  3863.33838001
0.28100001 82151.83778457  4170.02748331
0.28200001 80996.22195031  4125.94774143
0.28300001 79856.85076443  4762.66280501
0.28400001 78732.97838161  4039.00198215
0.28500001 77625.50023405  4329.17435296
0.28600001 76533.31310956  3294.75928531
0.28700001 75457.12211282  3259.74782957
0.28800001 74394.37031140  3547.49571621
0.28900001 73348.14069805  3509.70869853
0.29000001 72315.46520562  3472.22722620
0.29100001 71297.74248508  4684.26190300
0.29200001 70293.64951438  3398.34664663
0.29300001 69303.53921574  3361.91484649
0.29400001 68326.38394104  3628.13115901
0.29500001 67363.94660743  5084.63093062
0.29600001 66413.48559767  3254.59301578
0.29700001 65476.26391100  4390.18370306
0.29800001 64552.54451079  3763.73628587
0.29900001 63641.53641751  3150.25620180
0.30000001 62741.90690132  3682.63639991
0.30100001 61855.71486900  3362.47681946
0.30200001 60980.74911204  3325.89021402
0.30300001 60118.54286909  3837.96795846
0.30400001 59267.95880492  3524.96201680
0.30500001 58429.43431735  3486.48451077
0.30600001 57601.30761937  3448.30244389
0.30700001 56785.58067007  3935.24092674
0.30800001 55980.77489590  3373.12175105
0.30900001 55187.34691241  2822.83292821
0.31000001 54405.12020214  3045.59877311
0.31100001 53633.10266629  2510.02932362
0.31200001 52872.91172611  2730.62165538
0.31300001 52122.66163301  3682.46621872
0.31400001 51384.46996699  2670.70795298
0.31500001 50655.24805401  2641.16475859
0.31600002 49937.86614384  2612.00021233
0.31700002 49229.99166434  2583.09778493
0.31800002 48532.36849697  3251.18351955
0.31900002 47845.47022848  2526.24094768
0.32000002 47168.85337218  3179.65255637
0.32100002 46501.78472135  3369.05446259
0.32200002 45845.81170225  2221.22968215
0.32300002 45197.96966479  3514.59428755
0.32400002 44561.54902209  2172.37561769
0.32500002 43934.28447343  3007.74125747
0.32600002 43317.01109452  2337.16944427
0.32700002 42709.63602075  2731.70844924
0.32800002 42112.67171972  2286.08649256
0.32900002 41523.40979001  2466.49065832
0.33000002 40945.20459555  2236.22245488
0.33100002 40375.30357208  2613.89727704
0.33200002 39816.29099365  3182.11812690
0.33300002 39266.06535787  2754.12195462
0.33400002 38725.76092397  1945.96957858
0.33500002 38194.56852342  2502.50824816
0.33600002 37672.10573505  2666.05504912
0.33700002 37158.97472747  2449.14814027
0.33800002 36656.08730260  3168.73561694
0.33900002 36161.34395426  2213.07435481
0.34000002 35675.96321156  2372.27328610
0.34100002 35199.86903117  2166.90404018
0.34200002 34733.58577525  1965.74738005
0.34300002 34275.47987818  1945.47633002
0.34400002 33827.23430813  1925.61540419
0.34500002 33387.43590265  2425.93120758
0.34600002 32957.30830858  2916.22756380
0.34700002 32534.93318825  1868.15595215
0.34800002 32122.32884613  2186.08519316
0.34900002 31718.11308815  1998.24121919
0.35000002 31323.02725414  1649.15746304
0.35100002 30937.45345227  2123.54690554
0.35200002 30559.02195525  2103.53037592
0.35300002 30190.60000891  2244.36931096
0.35400002 29830.24911163  1906.15300852
0.35500002 29478.92177743  2361.26174621
0.35600002 29135.63079154  1716.23441306
0.35700002 28800.98603965  2319.91953538
0.35800002 28475.07325109  1686.72104392
0.35900002 28158.15396292  1976.70250182
0.36000002 27849.35064367  1809.65089054
0.36100002 27548.33437569  1795.04955294
0.36200002 27257.15205082  2523.05839909
0.36300002 26972.71468667  1619.98132082
0.36400002 26697.27043915  1607.84318836
0.36500002 26428.98428535  1596.04643659
0.36600002 26170.06292897  1728.79443898
0.36700002 25918.38491818  2289.11186441
0.36800002 25675.67543765  2984.41227586
0.36900002 25440.61794181  2117.93154398
0.37000002 25212.86205494  1964.33417575
0.37100002 24992.93127240  1673.52675727
0.37200002 24781.40401794  1525.17158253
0.37300002 24577.34092690  1792.42555871
0.37400002 24380.78833883  2331.41299534
0.37500002 24192.00626572  1637.31506163
0.37600002 24010.85285346  1357.81379318
0.37700002 23836.93465782  1486.70968504
0.37800002 23670.51100003  1749.36919833
0.37900002 23511.99485556  1474.20214728
0.38000002 23360.01400689  1468.52735011
0.38100002 23214.47653679  1463.20852543
0.38200002 23077.30021326  1723.52824808
0.38300002 22946.27497928  1718.21715185
0.38400002 22822.59628754  1845.20699726
0.38500002 22705.03082426  1314.62134700
0.38600002 22595.29693073  1573.98845876
0.38700002 22491.20684261  1439.88713028
0.38800002 22393.88224984  1437.35140030
0.38900002 22302.87914909  1565.66219044
0.39000002 22218.86574352  1694.07749887
0.39100002 22140.36754031  1952.78050957
0.39200002 22068.65448944  1821.32614130
0.39300002 22002.42312836  2080.54922959
0.39400002 21943.39702737  1300.14633547
0.39500002 21889.01288113  1820.29039744
0.39600002 21840.65218393  1690.79416893
0.39700002 21797.38827258  1431.43455568
0.39800002 21760.85001204  1432.62562842
0.39900002 21728.70331659  1434.09448684
0.40000002 21702.34667095  1566.47545693
0.40100002 21680.90550028  1438.09452997
0.40200002 21665.11029736  1309.65597953
0.40300002 21654.03142306  1443.45780305
0.40400002 21647.88093243  2367.19589212
0.40500002 21646.01255977  1318.24222735
0.40600002 21649.84263151  1321.72295528
0.40700002 21657.57331416  1855.62096948
0.40800002 21669.75801366  2260.04751912
0.40900002 21685.94906701  1467.05452389
0.41000002 21706.95576781  1739.70405244
0.41100002 21731.77411605  1745.93081521
0.41200002 21759.78678322  1482.82074060
0.41300002 21793.00221101  1759.34915186
0.41400002 21829.20689987  2038.30229086
0.41500002 21868.95126276  2729.24524691
0.41600002 21911.43768987  1781.72864018
0.41700002 21958.57646706  2065.20421458
0.41800002 22009.35783011  1659.94584620
0.41900002 22061.43649418  1667.84467799
0.42000002 22117.12187055  1815.70520600
0.42100002 22176.32829397  1684.51397703
0.42200002 22238.14741916  1552.11157267
0.42300002 22302.09410085  1560.25457723
0.42400002 22368.46735719  1568.58884775
0.42500002 22437.94880060  1577.16349593
0.42600002 22508.31090056  2306.65181039
0.42700002 22582.15782969  1739.72952164
0.42800002 22657.22930875  1603.79205262
0.42900002 22735.09411109  1906.33773155
0.43000002 22814.57799226  1622.45879080
0.43100002 22894.21435206  2076.96322444
0.43200002 22976.84696133  1790.81553703
0.43300002 23060.06450239  1951.57335132
0.43400002 23145.24905381  1812.27308679
0.43500002 23230.98331804  1975.09829530
0.43600002 23318.56465374  1681.38518404
0.43700002 23406.39096607  2306.69993902
0.43800002 23494.59245308  1701.83088499
0.43900002 23584.73029846  2023.56995550
0.44000002 23674.61755184  1879.29123032
0.44100002 23765.57681181  1890.78938075
0.44200002 23856.75454917  1902.33769790
0.44300002 23948.36479535  2232.94563934
0.44400002 24039.91452213  2086.06368152
0.44500002 24131.01203836  2098.67421643
0.44600002 24222.21906462  1948.91983830
0.44700002 24314.19117164  2287.47921383
0.44800002 24404.92247679  1972.40592805
0.44900002 24495.92855728  1818.82278158
0.45000002 24586.87950097  1663.30247707
0.45100002 24676.14877303  1673.04296610
0.45200002 24765.51234497  2524.22496539
0.45300002 24853.73132054  1692.53918314
0.45400002 24941.49770506  2042.70875885
0.45500002 25028.56830222  2225.54039891
0.45600002 25114.17806962  2926.68088005
0.45700002 25199.17869332  1904.30202411
0.45800002 25282.51082045  2436.98133348
0.45900002 25364.73675722  2100.20030304
0.46000002 25446.14947561  2463.44184749
0.46100002 25525.28520827  1945.79258365
0.46200002 25603.59967610  2311.62110632
0.46300002 25680.30983804  2323.55454427
0.46400002 25754.86372880  2514.96256231
0.46500002 25828.89739521  2527.61601889
0.46600002 25900.01252851  2358.58475270
0.46700002 25969.49807825  2187.67062180
0.46800002 26037.74433081  2198.10648059
0.46900002 26103.28959040  2208.33840402
0.47000002 26167.13102495  2218.44947344
0.47100002 26229.01682232  2042.71592694
0.47200002 26288.99002522  2051.72432376
0.47300002 26346.56953739  2622.53765605
0.47400002 26401.46605161  2821.65681801
0.47500002 26454.55493448  2266.62637422
0.47600002 26506.08911403  2275.81291920
0.47700002 26553.90856401  2855.87300142
