# SAXS profile: number of points = 501, q_min = 0, q_max = 0.5, delta_q = 0.001
#    q    intensity    error
0.00000000 1700912.83420644 357.19169518
0.00100000 1700830.07959111 561.27393959
0.00200000 1700581.75663015 1224.41890354
0.00300000 1700168.09041457 1632.16142494
0.00400000 1699588.93562115 1912.03762523
0.00500000 1698844.83185329 1528.96040919
0.00600000 1697935.65918146 1782.83251472
0.00700000 1696862.01372377 2036.23450109
0.00800000 1695623.66884947 2975.81966447
0.00900000 1694221.95002164 2795.46633704
0.01000000 1692656.10363101 3351.45922990
0.01100000 1690927.56773624 3652.40370533
0.01200000 1689036.18420672 5928.51726649
0.01300000 1686983.08170394 3896.93109061
0.01400000 1684768.39900328 4169.80197238
0.01500000 1682393.37784008 6864.16528724
0.01600000 1679857.63952706 5140.36460675
0.01700000 1677163.32598350 4981.17530162
0.01800000 1674310.35686016 6203.32015130
0.01900000 1671299.60915555 5013.89905371
0.02000000 1668132.03385846 5254.61614435
0.02100000 1664809.73454529 9888.97027155
0.02200000 1661331.36421581 8597.39020042
0.02300000 1657699.94188950 6564.49206869
0.02400000 1653915.26299830 6822.40077095
0.02500000 1649979.73430752 7078.41338345
0.02600000 1645893.35532663 8665.62891215
0.02700000 1641658.38043730 9652.95171909
0.02800000 1637274.48691684 7122.14434471
0.02900000 1632744.45932703 7347.35040432
0.03000000 1628069.41783639 8327.57545501
0.03100000 1623249.97977215 7791.60026142
0.03200000 1618287.39681951 8010.52298321
0.03300000 1613185.42429787 10695.41985616
0.03400000 1607942.38690464 11818.37708905
0.03500000 1602561.47100359 12115.36528025
0.03600000 1597043.99095777 10636.31347132
0.03700000 1591391.76362312 13606.40020824
0.03800000 1585606.10312297 12986.11458557
0.03900000 1579689.48228609 15165.01973224
0.04000000 1573641.37177381 13549.05283882
0.04100000 1567466.09437227 14812.55527863
0.04200000 1561164.34987270 14097.31473337
0.04300000 1554736.97802871 13339.64389069
0.04400000 1548187.67964702 11495.29405524
0.04500000 1541517.79008474 11700.12057039
0.04600000 1534727.33686865 14065.77669628
0.04700000 1527820.55197754 11000.30848584
0.04800000 1520797.78063013 12295.65062849
0.04900000 1513663.19922040 18163.95923613
0.05000000 1506416.10435016 13828.90048189
0.05100000 1499061.07062831 11692.67689559
0.05200000 1491596.30942497 13044.01033379
0.05300000 1484028.07566322 15626.81636522
0.05400000 1476356.43180621 14615.92935648
0.05500000 1468583.73033498 16036.93508337
0.05600000 1460711.37888922 16235.80773398
0.05700000 1452744.14707823 15166.64960345
0.05800000 1444680.85310719 19178.13922047
0.05900000 1436524.93430288 21978.83252137
0.06000000 1428279.47968145 16989.38520453
0.06100000 1419945.82617475 13205.49680054
0.06200000 1411526.86776304 16006.71542864
0.06300000 1403024.66142473 18856.65233120
0.06400000 1394439.04440121 14955.35945062
0.06500000 1385775.94928860 15091.10079368
0.06600000 1377036.08975305 13839.21334953
0.06700000 1368221.18319590 20933.78508258
0.06800000 1359334.22300451 19696.75381332
0.06900000 1350377.90387737 18432.65925092
0.07000000 1341353.33076916 19999.57909832
0.07100000 1332263.23020148 15827.28791611
0.07200000 1323110.09639345 14488.05623423
0.07300000 1313897.15346810 20417.96272159
0.07400000 1304625.92474652 19080.15504359
0.07500000 1295298.41245548 17719.68311296
0.07600000 1285915.87888103 17822.79491683
0.07700000 1276483.57516268 17921.83023561
0.07800000 1267001.73985557 31529.33977491
0.07900000 1257472.42060601 21125.53765705
0.08000000 1247899.88707071 16678.18277309
0.08100000 1238285.19872842 27415.63558614
0.08200000 1228629.83164463 18355.73054612
0.08300000 1218937.42023139 16894.47343730
0.08400000 1209209.55041431 18500.90698975
0.08500000 1199448.51338838 18567.46385890
0.08600000 1189656.98861431 20182.53175944
0.08700000 1179838.12392887 18688.63676061
0.08800000 1169991.44648212 21867.14116171
0.08900000 1160122.40387233 23492.47978185
0.09000000 1150230.70733331 15700.64989265
0.09100000 1140319.80932766 17310.05551884
0.09200000 1130391.37535056 18922.75251249
0.09300000 1120449.88910601 20537.84743243
0.09400000 1110492.40078908 22154.32443694
0.09500000 1100525.25194432 26940.85943389
0.09600000 1090549.13826040 15867.49070758
0.09700000 1080568.55884431 19061.23027414
0.09800000 1070583.32227295 15898.16308325
0.09900000 1060595.95958899 28636.09225544
0.10000000 1050608.09403517 20691.72738510
0.10100000 1040621.24020455 22290.10801353
0.10200000 1030639.09359363 19108.04969400
0.10300000 1020662.37529887 20699.03394476
0.10400000 1010694.56869115 20693.97226750
0.10500000 1000738.09416250 19094.08373498
0.10600001 990790.09230518 15902.18172975
0.10700001 980858.73689716 19067.89474257
0.10800001 970941.59171302 15874.89577161
0.10900001 961043.41453036 19028.66050330
0.11000001 951163.89921234 25339.00746771
0.11100001 941305.61515383 15813.93507900
0.11200001 931470.45018889 17367.26736137
0.11300001 921659.89778103 17336.42349347
0.11400001 911876.35144268 17302.85458332
0.11500001 902121.77422273 18836.30353273
0.11600001 892396.60438279 18793.87337333
0.11700001 882704.33547857 18748.64096853
0.11800001 873043.37673423 18700.59001041
0.11900001 863417.24907642 18649.81345849
0.12000001 853826.98642956 17046.65658705
0.12100001 844277.31398477 16995.30313113
0.12200001 834765.27591426 26182.41411254
0.12300001 825295.96395416 18420.60678333
0.12400001 815867.11468433 22946.26368167
0.12500001 806482.02183943 19815.26421030
0.12600001 797143.81740862 21259.82661212
0.12700001 787851.46902631 19664.77359363
0.12800001 778606.67219844 18079.24778051
0.12900001 769411.45395560 16503.87646521
0.13000001 760267.08823894 16433.17388686
0.13100001 751172.91007204 22309.83648077
0.13200001 742132.90560957 17766.66259782
0.13300001 733146.54021872 20630.74461435
0.13400001 724214.48208851 21998.01593055
0.13500001 715339.93376388 23348.69653890
0.13600001 706522.51329758 15970.94216613
0.13700001 697763.28814699 20221.18104399
0.13800001 689061.72794368 17240.32524613
0.13900001 680422.41289634 20004.41988252
0.14000001 671842.82873355 15630.42414763
0.14100001 663326.72738273 22606.17593538
0.14200001 654872.51332998 15451.71768081
0.14300001 646483.63145106 22342.47535679
0.14400001 638155.81608415 16655.86758545
0.14500001 629896.27977017 13794.72917769
0.14600001 621701.91654681 15079.38069720
0.14700001 613575.60592249 16345.65491291
0.14800001 605514.54174205 14886.57571106
0.14900001 597522.27678258 16133.10223430
0.15000001 589597.98355944 20031.59243658
0.15100001 581743.45577891 13263.75141761
0.15200001 573959.15729818 21075.78125049
0.15300001 566245.48828067 17004.35281549
0.15400001 558600.15373459 12987.45418722
0.15500001 551027.94473495 14183.45996684
0.15600001 543525.13538510 14080.01929666
0.15700001 536097.34276074 16517.15991002
0.15800001 528738.54332182 20176.66376547
0.15900001 521454.28664629 16269.37451129
0.16000001 514240.78087016 16144.59007748
0.16100001 507102.51346615 14787.10999069
0.16200001 500036.83498156 14671.08143092
0.16300001 493044.37544545 15767.55987110
0.16400001 486126.43154671 19250.60759806
0.16500001 479281.21683368 11934.10286258
0.16600001 472510.91478306 14203.67876898
0.16700001 465813.18561942 11738.49283184
0.16800001 459189.88383880 15132.60333641
0.16900001 452642.20145787 13850.85201862
0.17000001 446167.07135331 11444.18592060
0.17100001 439766.52654643 12480.57461274
0.17200001 433439.64693385 11247.75936909
0.17300001 427187.09656343 16724.37562026
0.17400001 421008.79131713 11051.48129399
0.17500001 414903.49953571 12048.79819555
0.17600001 408870.51490918 15197.71775695
0.17700001 402913.98672027 16136.70593029
0.17800001 397028.57756477 10660.21781112
0.17900001 391215.89613165 14787.96157226
0.18000001 385478.16556899 12558.87922746
0.18100001 379812.61662345 11405.77341597
0.18200001 374217.23511170 13353.94266577
0.18300001 368695.13705738 12211.18351619
0.18400001 363244.26144404 12096.03447751
0.18500001 357865.31808331 11981.33141545
0.18600001 352557.68065298 14833.86511428
0.18700001 347319.65236959 15671.06345529
0.18800001 342150.70598438 10669.97027024
0.18900001 337055.06468515 11527.28375687
0.19000001 332024.97842264 10463.76768939
0.19100001 327066.51773290 15071.22584925
0.19200001 322174.69438569 13990.43676477
0.19300001 317353.12352728 9234.97633102
0.19400001 312597.38412050 11886.51609287
0.19500001 307909.29532429 10863.04045238
0.19600001 303286.79982569 11650.76296588
0.19700001 298732.27930471 11534.05384903
0.19800001 294242.02787081 9661.43744173
0.19900001 289817.14038510 9563.96608470
0.20000001 285455.16502227 9467.12099539
0.20100001 281158.85548862 11926.75921351
0.20200001 276924.29032207 11805.28305439
0.20300001 272753.16556334 9180.87198679
0.20400001 268644.18947184 9086.89013838
0.20500001 264596.01924498 11446.42433357
0.20600001 260608.70198756 9710.28069504
0.20700001 256681.61613347 8008.46680192
0.20800001 252813.98804439 8718.29078983
0.20900001 249007.35326580 8628.10519852
0.21000001 245256.13418792 8538.59271539
0.21100001 241564.18629346 8449.91563600
0.21200001 237927.77631455 9882.33065641
0.21300001 234347.90954697 9027.08190251
0.21400001 230824.26675005 9677.30784101
0.21500001 227356.31874132 9576.24859813
0.21600001 223941.10565080 7289.28333356
0.21700001 220580.35782228 9376.87145436
0.21800001 217272.65348056 7137.40700430
0.21900001 214015.80691641 9887.53074704
0.22000001 210810.55916071 11880.22962323
0.22100001 207657.54531629 7606.49624460
0.22200001 204554.42436637 11631.98789161
0.22300001 201500.16536221 8124.48705157
0.22400001 198493.84631481 7369.08439289
0.22500001 195538.30288085 6628.74878112
0.22600001 192627.73848514 8526.66724726
0.22700001 189765.28882562 9734.95977711
0.22800001 186947.77505236 10274.65020277
0.22900001 184175.78419723 7624.87782635
0.23000001 181448.74683852 9430.79906293
0.23100001 178766.65326888 9953.72772475
0.23200001 176126.21232120 8002.29483527
0.23300001 173529.57961149 8527.24394540
0.23400001 170973.73791875 7232.18945601
0.23500001 168459.20559144 6559.80177598
0.23600001 165985.80363586 6490.87515818
0.23700001 163552.11202274 7590.45387799
0.23800001 161157.50616897 7510.74593025
0.23900001 158801.86888117 8575.30132519
0.24000001 156483.60756152 9616.70055757
0.24100001 154203.68057335 7276.87203046
0.24200001 151960.54106880 8308.44297594
0.24300001 149752.68765151 6577.13835277
0.24400001 147580.45541817 6508.29839181
0.24500001 145442.39296421 6440.18946510
0.24600001 143339.02254591 5310.71103655
0.24700001 141269.93593948 6831.81442522
0.24800001 139233.51059556 7280.52061346
0.24900001 137228.08045572 5660.65858659
0.25000001 135255.91614391 5601.62403210
0.25100001 133314.18740925 6551.05947921
0.25200001 131405.11247117 8976.28365757
0.25300001 129524.22958867 4934.87338080
0.25400001 127673.97286190 6836.94157022
0.25500001 125851.12585991 5315.95180783
0.25600001 124058.42424801 5260.69772913
0.25700001 122292.51852950 7099.08103652
0.25800001 120554.12461377 5620.23355541
0.25900001 118843.71083673 6025.37642451
0.26000001 117158.69165388 5045.43929480
0.26100001 115499.26385490 4539.12128427
0.26200001 113866.26347333 4941.22673723
0.26300001 112257.02903139 4889.91641599
0.26400001 110672.95458950 5719.02519903
0.26500001 109112.90078127 5224.32593662
0.26600001 107575.91766033 5600.94041802
0.26700001 106062.42850039 4263.70982748
0.26800001 104571.90928558 4641.42441328
0.26900001 103102.56483056 6263.48110985
0.27000001 101655.64073685 6198.45298725
0.27100001 100230.01988350 6134.07750715
0.27200001 98826.05850691  5665.69820232
0.27300001 97442.32021824  4405.36750555
0.27400001 96077.29462852  4359.50745008
0.27500001 94734.42439361  4314.20589106
0.27600001 93408.79159761  3881.13547456
0.27700001 92104.20849458  4608.89481119
0.27800001 90817.03463914  4180.76238748
0.27900001 89548.85269323  6017.68318579
0.28000001 88298.21626776  4466.12399020
0.28100001 87065.54234917  4419.44713881
0.28200001 85850.66756349  5102.10541478
0.28300001 84652.96763605  5048.70322877
0.28400001 83471.24593317  4282.07511905
0.28500001 82306.82871693  4237.15574290
0.28600001 81158.30773992  4192.63837629
0.28700001 80026.48974729  4148.57342486
0.28800001 78908.79188367  4104.83554808
0.28900001 77808.46012356  4061.60181070
0.29000001 76722.10382056  4018.70398834
0.29100001 75651.59238031  3976.24788372
0.29200001 74595.27290591  4917.69359910
0.29300001 73553.74925521  5189.95279312
0.29400001 72525.72713992  3530.18993564
0.29500001 71513.07776516  4127.73504400
0.29600001 70513.06384733  3769.62857172
0.29700001 69526.98407559  4040.21323589
0.29800001 68554.93296524  3689.62666685
0.29900001 67596.32766075  3954.38535535
0.30000001 66649.57626077  3310.15136169
0.30100001 65716.98823941  4465.46956226
0.30200001 64796.15970129  4122.97983698
0.30300001 63888.79413456  4661.32664073
0.30400001 62993.56846008  4034.73825088
0.30500001 62111.03248677  3706.16548394
0.30600001 61239.37010062  3384.08775197
0.30700001 60380.66481322  3068.54553108
0.30800001 59533.55372671  2759.38034587
0.30900001 58698.38793569  3548.31771870
0.31000001 57875.06632787  2969.85916922
0.31100001 57062.24380523  3204.61576382
0.31200001 56261.90264129  2905.64609948
0.31300001 55471.88945471  3919.08917553
0.31400001 54694.62456381  2842.75324630
0.31500001 53926.56693897  3322.95521211
0.31600002 53171.11672002  2781.11539172
0.31700002 52425.68882175  3000.84657024
0.31800002 51690.87166363  4204.79415457
0.31900002 50967.36459810  3180.36370151
0.32000002 50254.66778421  3145.69107890
0.32100002 49551.86508983  2393.35519716
0.32200002 48860.66171105  3314.21884079
0.32300002 48178.16100634  2341.45873578
0.32400002 47507.51476573  2779.18974539
0.32500002 46846.16239044  2519.85519430
0.32600002 46195.39160386  3398.82609820
0.32700002 45555.04933085  2241.30853321
0.32800002 44925.46972876  2217.07203610
0.32900002 44304.04999729  2412.35563659
0.33000002 43693.92560494  2169.40350901
0.33100002 43092.59618912  2360.61253103
0.33200002 42502.70413912  2335.31118951
0.33300002 41921.73935734  2520.33508951
0.33400002 41351.14977901  2077.89537480
0.33500002 40790.02623856  2466.98090373
0.33600002 40238.21207407  2440.85006000
0.33700002 39695.93802939  2415.10098408
0.33800002 39164.10160587  2588.94305926
0.33900002 38641.09129768  2561.90447436
0.34000002 38127.43442826  3315.37121772
0.34100002 37623.79821464  2316.12112778
0.34200002 37129.97247264  1910.33717419
0.34300002 36644.65433741  2647.20995471
0.34400002 36169.49172887  2246.12554274
0.34500002 35703.27897310  1853.00026646
0.34600002 35247.10083867  1834.61168554
0.34700002 34798.66631610  2361.43760805
0.34800002 34360.55919697  1978.65289507
0.34900002 33930.92586245  1781.37369215
0.35000002 33510.90158979  1940.78395749
0.35100002 33100.55853776  2272.02244564
0.35200002 32697.55313494  1904.46907255
0.35300002 32304.92306231  2573.08724378
0.35400002 31920.43694896  1869.73968284
0.35500002 31545.29123796  2358.32608465
0.35600002 31178.65823121  3005.31100925
0.35700002 30820.67023728  2151.59109117
0.35800002 30471.88396082  1640.91102901
0.35900002 30132.13599111  1627.13542059
0.36000002 29800.81331502  2097.82835268
0.36100002 29477.39342690  1600.62253890
0.36200002 29164.23197915  2223.18950908
0.36300002 28857.82635434  2205.89235101
0.36400002 28560.65703042  2501.91367437
0.36500002 28271.04617788  2017.70466129
0.36600002 27990.69976364  1694.97690448
0.36700002 27717.99445725  1683.03670317
0.36800002 27454.33494344  2279.39626665
0.36900002 27198.48560377  1811.41922702
0.37000002 26950.08181904  1949.70376155
0.37100002 26709.77246683  1639.44591167
0.37200002 26478.10820182  1629.59524648
0.37300002 26253.94855609  2356.55453403
0.37400002 26037.49366789  1464.60908820
0.37500002 25828.90559973  1748.10041380
0.37600002 25628.26463809  1594.20627733
0.37700002 25435.05881057  1586.38469317
0.37800002 25249.17046340  1435.41540884
0.37900002 25071.60184809  1571.98951034
0.38000002 24900.50699075  1849.98325452
0.38100002 24736.14192949  1559.11909968
0.38200002 24580.20060933  1694.55911028
0.38300002 24430.71991123  1547.93048691
0.38400002 24288.53356822  2103.99432002
0.38500002 24152.59648164  1957.80956355
0.38600002 24024.63741023  1813.01934805
0.38700002 23902.52264808  1808.46494923
0.38800002 23787.00018101  1526.76867895
0.38900002 23678.11337252  1662.20363750
0.39000002 23576.35901525  1659.30422610
0.39100002 23480.04984938  1656.75239586
0.39200002 23390.99562893  1516.78918342
0.39300002 23307.20050857  1377.45561532
0.39400002 23230.85702250  2064.64251569
0.39500002 23159.07697287  2201.03877978
0.39600002 23093.51182788  1650.26243341
0.39700002 23033.17399597  1375.08055271
0.39800002 22979.66838088  1787.93318308
0.39900002 22930.58410113  1651.00213350
0.40000002 22887.41170413  1514.34566715
0.40100002 22849.09250411  1377.80034328
0.40200002 22816.55808461  2068.89150235
0.40300002 22788.90047402  1519.10817757
0.40400002 22766.29314584  1521.35761155
0.40500002 22747.99221171  2216.56446613
0.40600002 22735.38940631  1526.79514792
0.40700002 22726.87705351  2086.32741236
0.40800002 22722.71721315  1672.84652049
0.40900002 22722.86934189  1676.94783689
0.41000002 22727.74757253  2101.74855635
0.41100002 22736.65877894  1967.17581076
0.41200002 22748.55030725  3805.03644743
0.41300002 22765.96620208  1837.89653858
0.41400002 22786.25726802  1418.44458214
0.41500002 22810.23968807  1565.69492638
0.41600002 22836.86645379  1428.44606437
0.41700002 22868.38208391  1864.00191198
0.41800002 22903.64751968  1583.44374630
0.41900002 22940.10998391  1878.79509671
0.42000002 22980.29134801  1596.32601413
0.42100002 23024.30072100  1603.18213517
0.42200002 23070.51005321  2634.88307803
0.42300002 23119.20771853  1617.41984863
0.42400002 23170.31782294  2215.66174681
0.42500002 23224.62917411  2077.67542437
0.42600002 23279.94364114  2236.62069131
0.42700002 23338.52337317  1648.16659871
0.42800002 23398.55041822  1505.69679076
0.42900002 23461.47735701  1513.26536124
0.43000002 23526.05788845  1825.15165747
0.43100002 23590.86388685  2140.16327323
0.43200002 23658.59482687  2919.58903296
0.43300002 23727.11621730  2316.95300842
0.43400002 23797.57066309  2484.46649496
0.43500002 23868.71815551  1561.01424134
0.43600002 23941.64732252  1726.31256200
0.43700002 24014.91621776  2051.11409136
0.43800002 24088.72931704  1586.24290070
0.43900002 24164.38378191  1754.33434570
0.44000002 24239.91586786  1763.81756171
0.44100002 24316.48854596  2095.83824710
0.44200002 24393.36888588  1620.93943928
0.44300002 24470.68128164  1792.72219565
0.44400002 24548.08908785  1638.58502427
0.44500002 24625.18235124  2141.65221058
0.44600002 24702.24984869  1821.91452393
0.44700002 24780.37075244  1831.76509283
0.44800002 24857.06060954  2008.94773367
0.44900002 24934.24895164  2187.98044920
0.45000002 25011.45709714  2030.43018337
0.45100002 25087.11617930  2551.35983635
0.45200002 25162.82097341  2051.77651941
0.45300002 25237.38489967  2062.39919174
0.45400002 25311.62270062  2418.52566367
0.45500002 25385.28830558  1909.98918263
0.45600002 25457.48489213  2443.15494089
0.45700002 25529.18331407  1929.24047448
0.45800002 25599.24719128  2115.00990318
0.45900002 25668.25170367  2125.33134179
0.46000002 25736.50518698  2847.48706884
0.46100002 25802.58017984  1966.93078033
0.46200002 25867.88335758  2335.48195963
0.46300002 25931.76359067  2346.30608089
0.46400002 25993.49101584  2356.95990957
0.46500002 26054.79283500  1821.23010548
0.46600002 26113.21203152  1829.23058951
0.46700002 26170.09417464  2755.71104720
0.46800002 26225.92608697  3136.48977903
0.46900002 26278.95937725  2223.20006869
0.47000002 26330.40788291  2418.31642663
0.47100002 26380.06775322  2428.02155109
0.47200002 26427.84075981  2437.57200801
0.47300002 26473.46746972  2258.71635157
0.47400002 26516.29112582  1889.28583226
0.47500002 26557.43038735  3223.54105320
0.47600002 26597.10828684  2664.23246337
0.47700002 26633.27868854  3055.36987597
