# SAXS profile: number of points = 501, q_min = 0, q_max = 0.5, delta_q = 0.001
#    q    intensity    error
0.00000000 1682732.95097188 353.37391970
0.00100000 1682650.65261933 555.27472855
0.00200000 1682403.69270083 757.08168569
0.00300000 1681992.30023125 1311.95404092
0.00400000 1681416.34030718 1891.59345472
0.00500000 1680676.33542048 1966.39139027
0.00600000 1679772.17025147 1940.13693563
0.00700000 1678704.42200713 2215.88992914
0.00800000 1677472.91401173 2491.04738248
0.00900000 1676078.91747219 3016.94218042
0.01000000 1674521.71944015 3315.55314766
0.01100000 1672802.70083905 3914.35849039
0.01200000 1670921.75179913 6516.59511773
0.01300000 1668880.00914568 4556.04262591
0.01400000 1666677.55358717 4125.02712799
0.01500000 1664315.70031515 5592.10100207
0.01600000 1661794.01680603 5508.84741198
0.01700000 1659114.60094060 5823.49251054
0.01800000 1656277.48514337 5664.46925408
0.01900000 1653283.44689558 5951.82067739
0.02000000 1650133.44069542 6237.50468799
0.02100000 1646829.63489205 7064.89945400
0.02200000 1643370.63764468 5669.62895746
0.02300000 1639759.50948215 5903.13450284
0.02400000 1635995.96366816 7361.98217220
0.02500000 1632082.38978435 7001.63377194
0.02600000 1628018.88425425 7252.82446108
0.02700000 1623807.69821054 7501.99190933
0.02800000 1619448.42270088 7749.06105799
0.02900000 1614943.83693227 7993.97235985
0.03000000 1610295.14331560 8236.66003666
0.03100000 1605502.87900538 8477.05559120
0.03200000 1600568.30422805 12676.50155334
0.03300000 1595495.20623211 11391.83629767
0.03400000 1590281.91557249 10018.77653038
0.03500000 1584931.61354525 9414.49421920
0.03600000 1579445.46642050 11395.69956686
0.03700000 1573825.49206483 13456.20857947
0.03800000 1568072.93689778 10090.54981592
0.03900000 1562190.17040763 9373.14145652
0.04000000 1556176.79184133 13398.68279864
0.04100000 1550036.96081454 11718.27996709
0.04200000 1543771.54679819 9957.32693880
0.04300000 1537381.30890165 13190.73224266
0.04400000 1530869.90640786 13433.38405260
0.04500000 1524238.74550465 11568.97261593
0.04600000 1517487.78982048 11768.11835712
0.04700000 1510621.22542654 10876.47332891
0.04800000 1503639.58859409 14367.27693750
0.04900000 1496546.78416031 13468.92168439
0.05000000 1489342.28224073 13672.16278763
0.05100000 1482030.53264837 11559.83869316
0.05200000 1474609.89074996 15240.09393111
0.05300000 1467086.57997658 19013.44296286
0.05400000 1459460.47421804 14448.65936856
0.05500000 1451734.08893101 20730.76375701
0.05600000 1443908.72949731 13579.96223462
0.05700000 1435989.28381496 17490.35029329
0.05800000 1427974.65190601 15165.09151134
0.05900000 1419867.75840747 17890.33459152
0.06000000 1411672.22634269 14208.48162194
0.06100000 1403389.13761158 18272.12742558
0.06200000 1395021.42330992 17137.83898645
0.06300000 1386571.37812506 23959.95453426
0.06400000 1378038.36502554 20153.81203103
0.06500000 1369428.59266362 13557.34370155
0.06600000 1360742.71912492 15043.01146377
0.06700000 1351982.30337057 17927.28618167
0.06800000 1343150.65256808 18072.09287624
0.06900000 1334250.29120746 14009.62871359
0.07000000 1325282.24607111 21171.38487241
0.07100000 1316249.39240224 17058.59292452
0.07200000 1307154.10831811 14313.33815662
0.07300000 1297999.46163184 17289.35363904
0.07400000 1288787.32857108 18848.51556367
0.07500000 1279519.36159049 18962.47782759
0.07600000 1270197.05356012 24940.32031587
0.07700000 1260825.49600465 14751.65899494
0.07800000 1251404.93721484 19277.89396185
0.07900000 1241937.54353024 20864.55170993
0.08000000 1232427.53831939 17968.79435163
0.08100000 1222875.74951123 16545.50966717
0.08200000 1213283.87952256 21147.53901243
0.08300000 1203655.54930468 16682.66669631
0.08400000 1193992.36672635 19790.42440743
0.08500000 1184296.58971968 21388.39741442
0.08600000 1174570.64567883 16860.96241037
0.08700000 1164817.63246532 18450.71216465
0.08800000 1155037.62566622 16961.72832950
0.08900000 1145235.82346508 21644.95808015
0.09000000 1135411.55353205 21697.71580726
0.09100000 1125568.67528054 18639.41813835
0.09200000 1115708.63424285 15564.13617900
0.09300000 1105836.22118356 17151.52059654
0.09400000 1095948.24707770 20302.44223128
0.09500000 1086050.77870829 17203.04514333
0.09600000 1076144.73762356 15657.90666847
0.09700000 1066234.82438155 17241.01792080
0.09800000 1056320.57294546 18823.63349493
0.09900000 1046404.67188895 23544.10622460
0.10000000 1036488.58476193 18843.36335712
0.10100000 1026573.88336328 17277.23926958
0.10200000 1016664.30616357 21990.44997667
0.10300000 1006760.70443107 28269.84191026
0.10400000 996865.99704789 20410.83224979
0.10500000 986983.06670740 18831.63779879
0.10600001 977109.08364411 20387.38198953
0.10700001 967251.84187434 15669.48057573
0.10800001 957409.22525254 23480.46235435
0.10900001 947586.03031296 28143.30642488
0.11000001 937781.66455429 20298.28508471
0.11100001 927998.72694242 17149.41728118
0.11200001 918239.41096109 24902.65399761
0.11300001 908504.67225011 17088.97368959
0.11400001 898797.49417061 18605.10900534
0.11500001 889119.29135685 21658.94695733
0.11600001 879470.89571597 15434.71494666
0.11700001 869855.53666473 24634.30995850
0.11800001 860271.87949903 18427.02452675
0.11900001 850723.11613245 21438.22353631
0.12000001 841210.61908289 19848.36549222
0.12100001 831738.53228514 19787.06061519
0.12200001 822304.68371722 18205.82655520
0.12300001 812913.27353167 19656.24388009
0.12400001 803562.96501066 18080.16756463
0.12500001 794256.35439508 24018.31328866
0.12600001 784996.77667853 16449.60823046
0.12700001 775783.28108744 22342.55954824
0.12800001 766617.31228323 14834.04569180
0.12900001 757501.31792214 17725.53167482
0.13000001 748435.98657208 16177.44461228
0.13100001 739421.32106716 17568.65141670
0.13200001 730460.47917980 17487.22469592
0.13300001 721553.65148355 17403.87489425
0.13400001 712701.29647047 17318.64232073
0.13500001 703906.21109830 21539.53107516
0.13600001 695168.51213372 24285.71311648
0.13700001 686488.98105453 14210.32257789
0.13800001 677867.36746824 18373.59586165
0.13900001 669307.65640703 16866.55373685
0.14000001 660808.12176181 13976.09243438
0.14100001 652371.73317151 16674.62228629
0.14200001 643997.63394147 20720.62484936
0.14300001 635688.35493702 19223.21676001
0.14400001 627440.58076999 16376.19993056
0.14500001 619260.84338582 14917.99442088
0.14600001 611146.36114146 16170.93347866
0.14700001 603099.85974684 16066.58102162
0.14800001 595118.43282386 21281.43616181
0.14900001 587205.95863843 18496.98856981
0.15000001 579361.49415099 19683.80769252
0.15100001 571586.30306452 13032.16832479
0.15200001 563881.67228043 15529.30198738
0.15300001 556247.41351271 15419.17903019
0.15400001 548681.61365949 17859.58736743
0.15500001 541188.56690889 12663.81306331
0.15600001 533764.99573464 16341.21611564
0.15700001 526416.25444431 19961.70531066
0.15800001 519136.41776535 14857.68497771
0.15900001 511931.03666461 14743.61455185
0.16000001 504796.21696532 13409.91213666
0.16100001 497736.58833285 14513.99960091
0.16200001 490749.42894350 15598.47133531
0.16300001 483835.32259649 11902.34949776
0.16400001 476995.42388802 16527.89221799
0.16500001 470228.03046660 16392.14991596
0.16600001 463535.36953458 13933.87386607
0.16700001 456915.31870454 12665.69323250
0.16800001 450369.59539125 13700.24373868
0.16900001 443898.84686759 11319.42112960
0.17000001 437500.61356558 11221.89126785
0.17100001 431176.87107897 13349.23655897
0.17200001 424926.64258346 11026.84689576
0.17300001 418750.26026624 12022.32053999
0.17400001 412648.23007195 14081.62151622
0.17500001 406618.73569295 18249.04971976
0.17600001 400661.38288770 11701.31623988
0.17700001 394780.18935198 10540.63155354
0.17800001 388969.97869070 15665.76663169
0.17900001 383232.31869166 11382.00040275
0.18000001 377568.78849587 12301.19171024
0.18100001 371977.68600947 13201.48870007
0.18200001 366456.45529002 13076.99922475
0.18300001 361007.93541884 14945.72923237
0.18400001 355630.79668016 9868.75507408
0.18500001 350324.79117674 9774.06213558
0.18600001 345090.08694848 12583.71061507
0.18700001 339924.67571683 13420.22683134
0.18800001 334828.04487443 12340.08817687
0.18900001 329804.34946020 9399.42440371
0.19000001 324845.83023953 12098.88351893
0.19100001 319958.67936330 11979.25352138
0.19200001 315137.88221486 10035.56633333
0.19300001 310386.82627960 9935.48277869
0.19400001 305701.35341223 8941.76500984
0.19500001 301083.18027494 10622.21510205
0.19600001 296530.26691145 11391.21074171
0.19700001 292044.78382653 11275.84963641
0.19800001 287623.46656677 8585.56088276
0.19900001 283267.14747574 12747.02223883
0.20000001 278973.20610253 10934.35532996
0.20100001 274744.57835617 9157.23722940
0.20200001 270577.58426311 13182.54052835
0.20300001 266473.37606204 9784.90283148
0.20400001 262430.98890484 9683.70394830
0.20500001 258449.09176747 9583.29277571
0.20600001 254527.60455499 10274.00724349
0.20700001 250665.95300215 8602.85591368
0.20800001 246863.32451947 10834.83182532
0.20900001 243121.28994076 9955.81729370
0.21000001 239434.25678470 9851.52296111
0.21100001 235806.07098586 9748.22343539
0.21200001 232233.13377079 8903.81876970
0.21300001 228716.27441908 11012.68913391
0.21400001 225255.06086536 10170.26647889
0.21500001 221849.38605900 7187.92044814
0.21600001 218495.89134727 10668.06239940
0.21700001 215196.39084034 11259.07570109
0.21800001 211949.38270974 11836.31383705
0.21900001 208753.22442908 8266.62807825
0.22000001 205607.89762909 8179.08255441
0.22100001 202514.46224813 6743.73191173
0.22200001 199470.35116031 10008.42534271
0.22300001 196474.80174486 8582.01974602
0.22400001 193526.80883932 7184.68311790
0.22500001 190628.97381139 9047.25152491
0.22600001 187775.83732873 9590.65134509
0.22700001 184970.17671015 7591.17641116
0.22800001 182209.22800513 8136.55346135
0.22900001 179493.10366438 6192.51236927
0.23000001 176821.60993933 7964.92979639
0.23100001 174194.57021804 6668.16846330
0.23200001 171608.69847975 6597.49672507
0.23300001 169066.20206627 7714.49116514
0.23400001 166564.20366198 8219.94383948
0.23500001 164102.81925641 6971.08809172
0.23600001 161682.19801956 8621.70361717
0.23700001 159301.02265995 6824.45613353
0.23800001 156958.20879314 7315.03766680
0.23900001 154653.93994998 6124.29631170
0.24000001 152386.55351092 6059.65158699
0.24100001 150157.17179996 5450.70559416
0.24200001 147964.08650100 5932.62032888
0.24300001 145805.75072522 6403.78887477
0.24400001 143682.68564228 7392.47452599
0.24500001 141593.32781253 5747.27344778
0.24600001 139538.07644642 5169.88597690
0.24700001 137516.60693024 7161.86522773
0.24800001 135527.47557198 6580.53688770
0.24900001 133568.85453855 5008.83228215
0.25000001 131643.05862699 5947.63367014
0.25100001 129747.22226833 6866.22332727
0.25200001 127883.39447050 4853.17504976
0.25300001 126047.51938145 5282.65178720
0.25400001 124241.70550613 6177.91909858
0.25500001 122462.98928534 5172.83691215
0.25600001 120713.73280634 6514.92046780
0.25700001 118990.87857693 5986.43138444
0.25800001 117295.19240876 5468.30212882
0.25900001 115626.91254084 4509.44980246
0.26000001 113983.62185226 6247.44260932
0.26100001 112365.39519094 6182.34433593
0.26200001 110773.35462842 9177.01899842
0.26300001 109204.43028237 4756.94520819
0.26400001 107660.23149252 6419.24160649
0.26500001 106139.70638750 5928.96427936
0.26600001 104641.71737491 5029.08117501
0.26700001 103166.87099374 5391.50093326
0.26800001 101714.39576498 4514.59366966
0.26900001 100282.77730790 4061.45267316
0.27000001 98873.18103217  5224.95349890
0.27100001 97484.28647218  5170.56679917
0.27200001 96116.67565976  4329.57585998
0.27300001 94768.83972606  4673.99939648
0.27400001 93439.45535056  4239.81548718
0.27500001 92131.52833936  4195.66999914
0.27600001 90840.44584878  4151.86277401
0.27700001 89570.03816361  5229.09907547
0.27800001 88316.71654120  3696.05476217
0.27900001 87081.85378525  4023.18183529
0.28000001 85864.25630805  3619.17857467
0.28100001 84664.18105288  5013.81303925
0.28200001 83481.41427209  5315.67930536
0.28300001 82315.36878275  4558.62533895
0.28400001 81164.97519892  5204.70428097
0.28500001 80031.40968627  3776.68240185
0.28600001 78913.39714667  4756.11067115
0.28700001 77811.63347836  5378.34036059
0.28800001 76723.61288515  5321.55004160
0.28900001 75652.50030540  4936.32587858
0.29000001 74595.10819665  3907.29195229
0.29100001 73553.03318355  4188.10990771
0.29200001 72524.88063912  4462.45611696
0.29300001 71511.12307407  3469.00474453
0.29400001 70510.38269227  5616.15224729
0.29500001 69524.70547406  4939.03531068
0.29600001 68551.29167392  5191.73232069
0.29700001 67591.43596873  3927.73853007
0.29800001 66645.17996182  3287.94010906
0.29900001 65712.10784123  4435.56748926
0.30000001 64790.51015970  6728.17084604
0.30100001 63882.63034292  4340.82493730
0.30200001 62986.29273808  4294.09071070
0.30300001 62102.92199676  3964.65072796
0.30400001 61231.36764773  4762.26984426
0.30500001 60372.17654057  3048.19133784
0.30600001 59523.58008752  3289.27319136
0.30700001 58687.59415472  3253.64037398
0.30800001 57862.73574701  2950.13172173
0.30900001 57049.63476386  3183.36977054
0.31000001 56247.86357352  2886.35925593
0.31100001 55456.48188721  3893.04521280
0.31200001 54677.17233747  3080.51203534
0.31300001 53907.87268341  3300.77920068
0.31400001 53150.98014793  4269.35268252
0.31500001 52403.18716443  3974.25790272
0.31600002 51667.43788863  2702.46546672
0.31700002 50941.46758184  3401.87136619
0.31800002 50225.82554142  2403.30586595
0.31900002 49521.20117723  2852.42132287
0.32000002 48826.96815743  3056.32421653
0.32100002 48142.53935343  2557.81323696
0.32200002 47469.34511257  3219.84583145
0.32300002 46804.48763782  2502.16802760
0.32400002 46151.21650294  2249.87191105
0.32500002 45507.09169756  2670.35626726
0.32600002 44873.31420191  2641.24339899
0.32700002 44249.51795476  3265.61457970
0.32800002 43636.33793392  2368.79871691
0.32900002 43031.01682608  2982.04960726
0.33000002 42436.73978031  2739.07949883
0.33100002 41851.05895624  2917.85596860
0.33200002 41276.44435230  2886.46189024
0.33300002 40710.61398008  2039.60185699
0.33400002 40154.99109322  2421.34607759
0.33500002 39608.49397859  2195.89501016
0.33600002 39070.97622264  1975.03794159
0.33700002 38542.90241097  2735.77534269
0.33800002 38025.01623594  1933.57216717
0.33900002 37515.67227883  2678.61912756
0.34000002 37015.59878234  2461.35235760
0.34100002 36525.07985009  2248.48402206
0.34200002 36044.35706278  2039.93048458
0.34300002 35571.94466909  2202.61491822
0.34400002 35109.46202292  1998.60622031
0.34500002 34655.65328836  2158.35418902
0.34600002 34211.66909959  2136.86095316
0.34700002 33775.37449316  1939.38209525
0.34800002 33349.03476622  1920.40425797
0.34900002 32931.15858401  2593.32886132
0.35000002 32522.61043732  2226.01017681
0.35100002 32123.54062566  1865.73532790
0.35200002 31731.71257797  1848.21368664
0.35300002 31350.06328955  1664.68843952
0.35400002 30976.44526966  2309.29410423
0.35500002 30611.94784901  1798.14590182
0.35600002 30255.72282670  2106.25224434
0.35700002 29908.09752468  2248.49087840
0.35800002 29569.38445687  1592.31142842
0.35900002 29239.67267294  1578.94239913
0.36000002 28918.12344753  2505.46633417
0.36100002 28604.44739947  2329.83235104
0.36200002 28300.76983280  2003.27008750
0.36300002 28003.78593770  1834.80814155
0.36400002 27715.91271733  1820.93555178
0.36500002 27435.36779033  1656.82193934
0.36600002 27164.04646999  1943.99507771
0.36700002 26900.22040045  1930.35990737
0.36800002 26645.35954442  1622.30279271
0.36900002 26398.16633236  1758.11796102
0.37000002 26158.31694602  2037.99456980
0.37100002 25926.34725257  1880.69731879
0.37200002 25702.99391180  1869.50735073
0.37300002 25487.05774596  1715.78880874
0.37400002 25278.63180278  2275.07697002
0.37500002 25078.06131603  1414.40272523
0.37600002 24885.26302894  1829.44019824
0.37700002 24699.78471185  1540.52564546
0.37800002 24521.62394017  1533.45982574
0.37900002 24351.54541356  1388.03815433
0.38000002 24188.06453922  1658.81754468
0.38100002 24031.05869968  2065.46959309
0.38200002 23882.45799450  1372.04727678
0.38300002 23740.07614106  1504.17129556
0.38400002 23605.04879825  1635.82995921
0.38500002 23476.21785092  1631.12769356
0.38600002 23355.25702908  1491.35000824
0.38700002 23240.02920776  1623.08371676
0.38800002 23131.45277167  1754.63643312
0.38900002 23029.37967814  1347.21877500
0.39000002 22934.27903808  1479.60508224
0.39100002 22844.71753454  1746.25029107
0.39200002 22762.13596452  1744.37637228
0.39300002 22684.88411949  1340.67671498
0.39400002 22614.98111064  1607.92523315
0.39500002 22549.72771512  1741.29005666
0.39600002 22490.48986694  1607.17048204
0.39700002 22436.47205354  1875.24042308
0.39800002 22389.21587331  1473.99409685
0.39900002 22346.38059032  1743.01776863
0.40000002 22309.35733436  1476.09869796
0.40100002 22277.20781808  1611.97883409
0.40200002 22250.79143022  1345.06040569
0.40300002 22229.16950447  1347.08773580
0.40400002 22212.50841136  1619.29193991
0.40500002 22200.19427651  1892.78865370
0.40600002 22193.59142329  1490.41070265
0.40700002 22190.89615466  1765.50778172
0.40800002 22192.64490468  2314.58201000
0.40900002 22198.57807796  1501.73387813
0.41000002 22209.30385571  1779.96474185
0.41100002 22223.94198822  1785.47158393
0.41200002 22241.63373176  1653.44312996
0.41300002 22264.73648466  1659.16824145
0.41400002 22290.79112554  1803.88235731
0.41500002 22320.48660792  1671.35811640
0.41600002 22352.82970793  1398.16956448
0.41700002 22389.95445537  1825.00527413
0.41800002 22430.81720793  1832.71000682
0.41900002 22472.92042940  1557.37345955
0.42000002 22518.71802568  1564.26282178
0.42100002 22568.20267540  1571.42402675
0.42200002 22620.07695304  1722.29274082
0.42300002 22674.29832087  1730.50252985
0.42400002 22730.96206088  2028.73846007
0.42500002 22790.77074732  1601.96335174
0.42600002 22851.53853929  1756.36933536
0.42700002 22915.71976024  2059.66498965
0.42800002 22981.25813433  1626.72843412
0.42900002 23049.59662560  1784.03886336
0.43000002 23119.64115138  2092.55881977
0.43100002 23189.90005213  1502.70559459
0.43200002 23263.14668654  1510.94144889
0.43300002 23337.06320705  1671.16717545
0.43400002 23413.05091454  1680.47180903
0.43500002 23489.54261809  1689.83777602
0.43600002 23567.98071556  2008.34557185
0.43700002 23646.70789350  1864.30653867
0.43800002 23725.86675188  2031.05291954
0.43900002 23806.98157440  1885.51303005
0.44000002 23887.96248197  1896.22655168
0.44100002 23969.98118249  2701.65670711
0.44200002 24052.27302912  1758.10098038
0.44300002 24135.07677944  2089.61504659
0.44400002 24217.84116113  1616.54097411
0.44500002 24300.34679577  1788.26260545
0.44600002 24382.87621630  1798.35912056
0.44700002 24466.30484199  2630.61722128
0.44800002 24548.51459555  2149.34529727
0.44900002 24631.07476743  2826.41596351
0.45000002 24713.66242374  1839.06727642
0.45100002 24794.66995660  1681.07870273
0.45200002 24875.73916121  2704.49048978
0.45300002 24955.75851542  1869.43595899
0.45400002 25035.34030036  1879.52826213
0.45500002 25114.40236494  2404.95528445
0.45600002 25191.99638364  2072.29372073
0.45700002 25269.05207379  2083.18075169
0.45800002 25344.51969136  1919.46728980
0.45900002 25418.90352587  1929.29486905
0.46000002 25492.58250691  2467.93702946
0.46100002 25564.04368117  2303.06480439
0.46200002 25634.76497282  2670.50176761
0.46300002 25703.91373031  2146.79097650
0.46400002 25771.00202481  1977.28022407
0.46500002 25837.65639961  1986.65749472
0.46600002 25901.41750736  2540.15213534
0.46700002 25963.67301440  2369.44491160
0.46800002 26024.79619025  2563.18229826
0.46900002 26083.20501480  2206.63924884
0.47000002 26139.97696117  2216.14735181
0.47100002 26194.89544835  1854.59868565
0.47200002 26248.02969665  2420.98713382
0.47300002 26298.88138218  2243.82066588
0.47400002 26346.97193692  2064.94402343
0.47500002 26393.40325725  2638.28471464
0.47600002 26438.38127683  2459.16615102
0.47700002 26479.74246306  2088.45738705
