# SAXS profile: number of points = 501, q_min = 0, q_max = 0.5, delta_q = 0.001
#    q    intensity    error
0.00000000 1682732.95097188 252.40994265
0.00100000 1682650.70835069 555.27474694
0.00200000 1682403.92090502 1135.62268257
0.00300000 1681992.80829279 1110.11529302
0.00400000 1681417.23412110 1891.59446026
0.00500000 1680677.74706751 1663.87103545
0.00600000 1679774.20511001 2645.64448076
0.00700000 1678707.17831165 2417.33843723
0.00800000 1677476.50513809 2717.51205306
0.00900000 1676083.45785237 3268.36288253
0.01000000 1674527.32351851 2762.97020311
0.01100000 1672809.48745036 3914.37437106
0.01200000 1670929.80871553 4235.80725081
0.01300000 1668889.44010743 5607.46876608
0.01400000 1666688.51989998 4125.05426962
0.01500000 1664328.25124664 3994.38798086
0.01600000 1661808.27731039 5085.13355589
0.01700000 1659130.70414291 4479.65310214
0.01800000 1656295.51294180 6136.57515158
0.01900000 1653303.47688308 5455.90171990
0.02000000 1650155.62590884 6757.38759377
0.02100000 1646854.05759823 6521.54236377
0.02200000 1643397.37551493 6803.66544374
0.02300000 1639788.73068538 10035.50748859
0.02400000 1636027.71254917 7362.12504217
0.02500000 1632116.84499177 7638.30718341
0.02600000 1628056.06407230 7252.99009718
0.02700000 1623847.67006002 9548.22473727
0.02800000 1619491.34466368 7749.26643959
0.02900000 1614989.78598896 10174.43611888
0.03000000 1610344.24324147 9734.53139785
0.03100000 1605555.15179541 11559.99762484
0.03200000 1600623.89697659 11092.32411694
0.03300000 1595554.20176040 11392.25752576
0.03400000 1590344.43479818 9184.23953472
0.03500000 1584997.76131306 8558.98830633
0.03600000 1579515.21715395 10519.57183239
0.03700000 1573898.99070719 10765.46959431
0.03800000 1568150.24029674 12843.15106241
0.03900000 1562271.36115847 13123.08004146
0.04000000 1556261.98962288 10528.11284766
0.04100000 1550126.23882540 13672.11406037
0.04200000 1543864.90211121 13941.10071283
0.04300000 1537478.93797442 11162.09760782
0.04400000 1530971.84412175 14467.68459886
0.04500000 1524345.03112006 11569.77932379
0.04600000 1517598.47733337 11768.97673882
0.04700000 1510736.45350360 11965.03326822
0.04800000 1503759.31207875 12157.89460384
0.04900000 1496671.15535786 12347.53760645
0.05000000 1489471.33246722 12533.90184637
0.05100000 1482164.37482262 11560.88266217
0.05200000 1474748.46030037 15241.52604748
0.05300000 1467230.02199060 15449.93285180
0.05400000 1459608.93104982 13245.95166699
0.05500000 1451887.50263890 13415.44115020
0.05600000 1444067.14279519 16050.80704117
0.05700000 1436152.65222883 13743.98152338
0.05800000 1428143.19865768 12639.06789827
0.05900000 1420041.48866978 14058.41139444
0.06000000 1411851.11810235 18085.81366784
0.06100000 1403573.31392317 14358.55567243
0.06200000 1395210.83103487 17140.16586046
0.06300000 1386766.11094341 18638.13740251
0.06400000 1378238.50243346 16125.39123260
0.06500000 1369634.04771944 16271.25324804
0.06600000 1360953.52079333 19148.61693350
0.06700000 1352198.61811657 16550.91186031
0.06800000 1343372.35202545 18075.07584258
0.06900000 1334477.58716480 16814.41838551
0.07000000 1325514.85762337 18351.75406318
0.07100000 1316487.63327351 17061.68052636
0.07200000 1307397.81272584 20042.40940801
0.07300000 1298248.67714882 14410.56099157
0.07400000 1289041.99309630 15951.89541214
0.07500000 1279779.75518185 18966.33686079
0.07600000 1270462.95799118 20543.38699380
0.07700000 1261097.01886797 17705.80297510
0.07800000 1251682.02798921 19282.16254543
0.07900000 1242220.20423554 20869.30041001
0.08000000 1232715.66835465 17972.99528774
0.08100000 1223169.51999343 18053.98296216
0.08200000 1213583.18775958 25685.48937423
0.08300000 1203960.38949670 18203.88194353
0.08400000 1194302.66524941 16750.09566635
0.08500000 1184612.46656664 19865.95199693
0.08600000 1174891.90127577 15332.34003153
0.08700000 1165144.41856328 16917.89775196
0.08800000 1155369.77104180 15424.18716779
0.08900000 1145573.31645487 21651.33669795
0.09000000 1135754.66376802 18603.66226644
0.09100000 1125917.17838950 17091.42357093
0.09200000 1116062.30472117 18682.88385888
0.09300000 1106195.22468195 17157.08874107
0.09400000 1096312.39544918 17184.69760630
0.09500000 1086420.12164932 15644.45048708
0.09600000 1076519.47604212 23495.03866907
0.09700000 1066614.63473545 21950.93021483
0.09800000 1056705.49731996 20399.70058491
0.09900000 1046794.58230021 20412.49531470
0.10000000 1036883.47749668 25134.05667650
0.10100000 1026973.71403690 18855.23827651
0.10200000 1017069.02902831 17285.08896136
0.10300000 1007170.19362128 15711.85575959
0.10400000 997280.30678430 17277.88212788
0.10500000 987402.16727064 25119.51231722
0.10600001 977532.81870165 23534.10371761
0.10700001 967680.10984932 21946.98592416
0.10800001 957842.03093871 17226.78973715
0.10900001 948023.35250614 20335.10186834
0.11000001 938223.15898211 18745.69959881
0.11100001 928444.73139638 18717.44666604
0.11200001 918689.39895847 26472.03627722
0.11300001 908959.00505310 17097.51969001
0.11400001 899255.87114322 21717.03031064
0.11500001 889581.73803136 15478.72297061
0.11600001 879937.15335146 20075.76709911
0.11700001 870325.50870600 15404.76222958
0.11800001 860745.70851860 23046.46743104
0.11900001 851200.71025335 22982.42025935
0.12000001 841691.70106771 22915.05764098
0.12100001 832223.17028043 18275.62168029
0.12200001 822792.46244875 24288.83463577
0.12300001 813404.44764962 16642.25578300
0.12400001 804057.39754011 18091.29229707
0.12500001 794753.79031688 22531.27101717
0.12600001 785497.17422310 16460.09406150
0.12700001 776286.53745443 22357.05333229
0.12800001 767123.47506434 19296.99192470
0.12900001 758010.04061703 17737.43578644
0.13000001 748947.27147065 14716.81457807
0.13100001 739935.31513539 17580.86391634
0.13200001 730976.69087196 17499.58280441
0.13300001 722072.25257241 15965.01825701
0.13400001 713221.88171259 23108.39005695
0.13500001 704428.86642295 14370.34955256
0.13600001 695692.96188692 15726.14014495
0.13700001 687015.32800040 18487.58334824
0.13800001 678395.41567370 18387.90860893
0.13900001 669837.17188229 19693.21378204
0.14000001 661339.21570285 15386.05757894
0.14100001 652904.10661163 15297.54393939
0.14200001 644531.22729170 20737.79321621
0.14300001 636223.05622895 15116.66052902
0.14400001 627976.34047363 19121.88046940
0.14500001 619797.42726705 14930.92072719
0.14600001 611683.60372553 14836.38650826
0.14700001 603637.73456975 13400.75833965
0.14800001 595656.76646662 19969.39403792
0.14900001 587744.65802393 17191.53205831
0.15000001 579900.45832573 17075.16980106
0.15100001 572125.40160833 15653.35172661
0.15200001 564420.79710932 16839.49527636
0.15300001 556786.27261016 14147.93985465
0.15400001 549220.09946744 16600.17828978
0.15500001 541726.78630023 15211.68887720
0.15600001 534302.64739458 12582.82793999
0.15700001 526953.26301688 13737.67221522
0.15800001 519672.46215248 14873.02656879
0.15900001 512466.37142505 14759.03219368
0.16000001 505330.37723715 14644.47502359
0.16100001 498269.69729856 14529.54505908
0.16200001 491281.37707381 15615.37930743
0.16300001 484365.74000032 16681.55687311
0.16400001 477524.21588876 16546.21486169
0.16500001 470755.09625463 14066.16294017
0.16600001 464060.58111680 15112.13353756
0.16700001 457438.61722355 12680.19906813
0.16800001 450890.92488414 11430.08548550
0.16900001 444417.95990985 14732.45606665
0.17000001 438017.39157772 12358.66128694
0.17100001 431691.15520421 13365.15879624
0.17200001 425438.32152251 15456.17495080
0.17300001 419259.24838647 13131.20027958
0.17400001 413154.46854589 10845.30531151
0.17500001 407122.03018229 11822.82431486
0.17600001 401161.48114849 12781.00539303
0.17700001 395277.11627429 15830.84925449
0.17800001 389463.62053655 13594.22831691
0.17900001 383722.45529211 12432.60813870
0.18000001 378055.31368971 13343.46292696
0.18100001 372460.61959750 11184.99293485
0.18200001 366935.43561908 12086.85382025
0.18300001 361483.02717486 12970.01162773
0.18400001 356101.72525602 11858.18801121
0.18500001 350791.79271130 10765.80062691
0.18600001 345552.75211613 18416.23479408
0.18700001 340382.87968453 9598.79766060
0.18800001 335281.71195746 11406.28437970
0.18900001 330253.40458213 10353.44472282
0.19000001 325290.07369370 10251.51715683
0.19100001 320398.12374733 14763.94623987
0.19200001 315572.34626746 9135.81985612
0.19300001 310816.27106037 9949.22930677
0.19400001 306125.61929254 12535.84470240
0.19500001 301502.18842418 11523.41418611
0.19600001 296943.78345570 10529.62705893
0.19700001 292452.95703217 10423.02388119
0.19800001 288026.02570507 9457.33500097
0.19900001 283664.05881958 8509.92216677
0.20000001 279364.24242609 8422.83230722
0.20100001 275129.79900765 14171.93661668
0.20200001 270956.77450418 9900.76100833
0.20300001 266846.48342197 8982.05305652
0.20400001 262797.94020629 8889.14074763
0.20500001 258809.87644522 8796.94811618
0.20600001 254881.99729123 8705.49502897
0.20700001 251014.02578741 11747.45696214
0.20800001 247204.78021887 8524.85724882
0.20900001 243456.22919807 7668.87158226
0.21000001 239762.36227191 8347.32703709
0.21100001 236127.58686598 11263.28642596
0.21200001 232547.91401554 7429.90620404
0.21300001 229023.98394798 12497.83939488
0.21400001 225555.84583580 11638.68219536
0.21500001 222143.06234725 7917.17911636
0.21600001 218782.50571255 8545.64507716
0.21700001 215475.84523368 9159.87861396
0.21800001 212221.66283839 9062.92654001
0.21900001 209018.14846566 7587.35914805
0.22000001 205865.42212717 9554.21469267
0.22100001 202764.68170163 8102.47706391
0.22200001 199712.94345720 8016.47792943
0.22300001 196709.98465426 7270.40137661
0.22400001 193754.40897554 7847.05393457
0.22500001 190848.90625925 7116.75605094
0.22600001 187988.14302310 7681.19588715
0.22700001 185174.86647285 7599.57687942
0.22800001 182406.05165330 8145.34262177
0.22900001 179682.10479264 7438.83949020
0.23000001 177002.74274911 7359.77439157
0.23100001 174367.90210739 9102.00492046
0.23200001 171774.18481581 7804.56045621
0.23300001 169223.72746150 5939.75311482
0.23400001 166713.73689015 8227.32330464
0.23500001 164244.41628609 6977.10313382
0.23600001 161815.80179354 6903.06243101
0.23700001 159426.62163250 5691.53066148
0.23800001 157075.78718380 6194.28396057
0.23900001 154763.39160596 5571.48236134
0.24000001 152487.86988192 10473.62983825
0.24100001 150250.39754600 8726.54350225
0.24200001 148049.18356485 5936.03229582
0.24300001 145882.84699725 5873.24369793
0.24400001 143751.65423483 5811.16089733
0.24500001 141654.24894415 7317.85884662
0.24600001 139590.83516616 5689.02475632
0.24700001 137561.26762027 6652.46321682
0.24800001 135564.00107032 9113.96822311
0.24900001 133597.39601792 8015.84414028
0.25000001 131663.38443977 6939.97732214
0.25100001 129759.51851368 5395.40103505
0.25200001 127887.70708491 5338.67258483
0.25300001 126043.76578608 6242.94801474
0.25400001 124229.88283469 5226.97256756
0.25500001 122443.27301147 6112.36847792
0.25600001 120686.13594054 5582.94091275
0.25700001 118955.41879900 5524.28991040
0.25800001 117251.73818084 6377.32234139
0.25900001 115575.54749996 7211.91450523
0.26000001 113924.36633070 6244.19481403
0.26100001 112298.36266915 4413.32586172
0.26200001 110698.63555443 4803.76751718
0.26300001 109121.99105439 4753.35415525
0.26400001 107570.19041625 5986.28137992
0.26500001 106041.97626329 4654.18255843
0.26600001 104536.45559808 5442.69081826
0.26700001 103053.99912671 4557.04805702
0.26800001 101594.17761350 5329.12283890
0.26900001 100155.03514806 4461.90702699
0.27000001 98738.05930756  6421.92368126
0.27100001 97341.86971211  5163.01301386
0.27200001 95967.05491415  6680.74684400
0.27300001 94612.04543981  4277.41077676
0.27400001 93275.64931214  4232.38278783
0.27500001 91960.72505598  4187.89161724
0.27600001 90662.51780322  4143.73057230
0.27700001 89385.23908435  4100.10111084
0.27800001 88125.01643116  5532.04816828
0.27900001 86883.55378350  5108.75320426
0.28000001 85659.19667641  5054.74943511
0.28100001 84452.55794735  5358.51505537
0.28200001 83263.26453167  6362.14634398
0.28300001 82090.80907588  5595.30981144
0.28400001 80934.14133913  3459.93470601
0.28500001 79794.35363639  3765.49572633
0.28600001 78670.16246753  3725.42571998
0.28700001 77562.29791530  3350.69142854
0.28800001 76468.25401157  3314.89896831
0.28900001 75391.29242722  3935.42565098
0.29000001 74328.23544767  3244.42763086
0.29100001 73280.43074783  3209.68301868
0.29200001 72246.67395072  3175.24147044
0.29300001 71227.35332388  4711.68964541
0.29400001 70221.25847338  4660.93625180
0.29500001 69230.38328315  3688.59499593
0.29600001 68251.74743745  3040.61549227
0.29700001 67286.78742131  3910.03540215
0.29800001 66335.56352201  2975.15016480
0.29900001 65397.60907819  3825.76031218
0.30000001 64471.30369259  4366.31924928
0.30100001 63558.88637833  2879.21768924
0.30200001 62657.90681133  3702.14259921
0.30300001 61770.20524775  3098.39364191
0.30400001 60894.32961674  3064.50728304
0.30500001 60031.05011623  3030.96786386
0.30600001 59178.34216548  3815.22790003
0.30700001 58338.38247133  2964.75673755
0.30800001 57509.76352438  3465.25096522
0.30900001 56692.91602417  3427.08693591
0.31000001 55887.55183417  2867.86985815
0.31100001 55092.74021550  2578.34036416
0.31200001 54310.10545577  3824.78935781
0.31300001 53537.69525887  3530.27579251
0.31400001 52777.63517064  3241.86639385
0.31500001 52026.79589198  3205.89131465
0.31600002 51288.32325550  4145.89180666
0.31700002 50559.57212348  3135.19921582
0.31800002 49841.40910649  2861.89384640
0.31900002 49134.24662639  2358.44394974
0.32000002 48437.89414809  2565.51318503
0.32100002 47751.10226122  3228.92968779
0.32200002 47075.88896493  2736.99231402
0.32300002 46409.12924419  3157.67730329
0.32400002 45753.92415190  2230.50390802
0.32500002 45108.19581097  3088.10723145
0.32600002 44472.83580379  2399.53196942
0.32700002 43847.72786547  2373.03914445
0.32800002 43233.10951462  2986.97567781
0.32900002 42626.64423695  2110.01898965
0.33000002 42031.39044766  2712.91622491
0.33100002 41444.79556582  2683.13619199
0.33200002 40869.42404270  2449.71339313
0.33300002 40302.91691655  2019.17623314
0.33400002 39746.69344097  2396.72572799
0.33500002 39199.88940348  2568.37687534
0.33600002 38662.13538585  3126.99365809
0.33700002 38133.81066433  2126.72272146
0.33800002 37616.08582876  2677.88927697
0.33900002 37106.77245470  2081.69003329
0.34000002 36607.00233809  1872.44825827
0.34100002 36116.77776973  1852.79078733
0.34200002 35636.61259505  2383.55494630
0.34300002 35164.78031664  2358.85357535
0.34400002 34703.21962116  2514.24838063
0.34500002 34250.18635305  1955.34323150
0.34600002 33807.21784769  1935.63234954
0.34700002 33372.09339346  1742.02335764
0.34800002 32946.99959186  2759.64081651
0.34900002 32530.44424067  2049.41808423
0.35000002 32123.41355658  2875.20626656
0.35100002 31725.93173282  1842.64220231
0.35200002 31335.90614815  2157.00720187
0.35300002 30956.04701351  2136.89602655
0.35400002 30584.31432306  1954.33777781
0.35500002 30222.04888740  2098.01473313
0.35600002 29868.06267868  2239.20876508
0.35700002 29522.72388956  1902.44441755
0.35800002 29186.38632201  2043.19307125
0.35900002 28859.17021281  2337.59289796
0.36000002 28540.33491851  1854.55105085
0.36100002 28229.48061963  2759.14956645
0.36200002 27928.66998378  2281.07422897
0.36300002 27634.63704939  1508.85125437
0.36400002 27349.83956037  2246.10568029
0.36500002 27072.45665430  1783.53352887
0.36600002 26804.47111705  2065.82068684
0.36700002 26543.95904774  1758.27193061
0.36800002 26292.61835524  1746.35579388
0.36900002 26049.04034571  1445.72180767
0.37000002 25812.93733052  2011.08604268
0.37100002 25584.76367619  1713.15585691
0.37200002 25365.17092826  2128.77207099
0.37300002 25153.23903801  1834.42580994
0.37400002 24948.97777060  2245.40810572
0.37500002 24752.52758792  1814.85540872
0.37600002 24563.85727841  1527.99481439
0.37700002 24382.73228816  1659.00118348
0.37800002 24208.94671593  1926.79016040
0.37900002 24043.46033210  1507.52503424
0.38000002 23884.52907668  1911.00126195
0.38100002 23732.23041215  1631.82824044
0.38200002 23588.31686669  1761.69352865
0.38300002 23450.76948535  1755.99370225
0.38400002 23320.55858183  1481.43855409
0.38500002 23196.73721033  1477.40026292
0.38600002 23080.77528293  1607.80688238
0.38700002 22970.60806979  2807.46785129
0.38800002 22867.15924778  2268.30796905
0.38900002 22770.34306093  1465.27164539
0.39000002 22680.53348140  1862.29869239
0.39100002 22596.30289570  1328.66267321
0.39200002 22519.14308157  1593.00425706
0.39300002 22447.29796083  1459.29890957
0.39400002 22382.95769381  1856.66642867
0.39500002 22323.19754160  1325.99799679
0.39600002 22269.60868478  1989.23289001
0.39700002 22221.19034385  2122.56820221
0.39800002 22179.63522640  1460.19635431
0.39900002 22142.49882993  1594.25999129
0.40000002 22111.27318873  1994.98971797
0.40100002 22085.04078362  2397.11044023
0.40200002 22064.50643732  1333.79947733
0.40300002 22048.73492689  1870.61475983
0.40400002 22038.08512936  1472.69510855
0.40500002 22031.59480028  2146.75869905
0.40600002 22031.01305286  2824.48616227
0.40700002 22034.33021129  1887.90150195
0.40800002 22042.17989906  1487.51658097
0.40900002 22054.19737569  3255.19968689
0.41000002 22070.97850177  1496.74347802
0.41100002 22091.66795839  1774.84468787
0.41200002 22115.55674743  2329.09996921
0.41300002 22144.79418049  1650.23014052
0.41400002 22177.00063091  1794.67386109
0.41500002 22212.81116582  1940.51127539
0.41600002 22251.32919667  1531.00277792
0.41700002 22294.62761685  1957.02250494
0.41800002 22341.65142131  1685.00743004
0.41900002 22389.97665024  1551.62545538
0.42000002 22441.99938414  1558.93356109
0.42100002 22497.54983063  1566.50446894
0.42200002 22555.67295858  2003.62052385
0.42300002 22616.02843981  1582.21742462
0.42400002 22678.82245301  1445.77499989
0.42500002 22744.79567576  1598.73176381
0.42600002 22811.68596918  1753.30626667
0.42700002 22882.02926181  2203.53952233
0.42800002 22953.68300887  1772.48348594
0.42900002 23028.04476444  1633.83985346
0.43000002 23104.21923719  2240.53176670
0.43100002 23180.50152041  1952.72554061
0.43200002 23259.77523336  2115.01146220
0.43300002 23339.67858883  2431.06103702
0.43400002 23421.61134753  2292.39031927
0.43500002 23504.03065381  1537.16367760
0.43600002 23588.38876839  1855.46274845
0.43700002 23672.98736394  1555.31534352
0.43800002 23757.99015394  2816.03470640
0.43900002 23844.87564495  1573.76186715
0.44000002 23931.59998816  2532.92066278
0.44100002 24019.33017342  1910.97799916
0.44200002 24107.31983448  1601.93147892
0.44300002 24195.72585545  2417.15312751
0.44400002 24284.17958889  1945.16287725
0.44500002 24372.12783207  1956.59451508
0.44600002 24460.17565489  1804.06034092
0.44700002 24549.07222051  2474.54659710
0.44800002 24636.65522582  1659.27880809
0.44900002 24724.57184984  1835.79954685
0.45000002 24812.34267269  2014.26607363
0.45100002 24898.58580157  2025.74903682
0.45200002 24984.83745128  1867.49176380
0.45300002 25069.90518807  2390.16487391
0.45400002 25154.58004706  2575.20025436
0.45500002 25238.61692891  2416.85007166
0.45600002 25321.05562760  1735.75844554
0.45700002 25403.02362519  1919.70658634
0.45800002 25483.24969417  2105.42618952
0.45900002 25562.34205683  1763.80168552
0.46000002 25640.67494109  2659.57913431
0.46100002 25716.64809353  2851.46207576
0.46200002 25791.85008518  1970.36848064
0.46300002 25865.49007834  2160.28583373
0.46400002 25936.89942395  2351.82846673
0.46500002 26007.85935956  2363.33429201
0.46600002 26075.82553934  2374.59516529
0.46700002 26142.14615559  3119.80387007
0.46800002 26207.27581024  2396.78652282
0.46900002 26269.62394227  3148.41457871
0.47000002 26330.35371715  2604.33540960
0.47100002 26389.07872680  1868.34686241
0.47200002 26445.89549029  2063.97001137
0.47300002 26500.41646368  3014.68751980
0.47400002 26552.04793126  2459.38355620
0.47500002 26601.96775473  2469.19476403
0.47600002 26650.30835111  2669.56151406
0.47700002 26694.91837110  2488.23345931
