# SAXS profile: number of points = 501, q_min = 0, q_max = 0.5, delta_q = 0.001
#    q    intensity    error
0.00000000 1664650.74656090 349.57665678
0.00100000 1664569.16953235 599.24491526
0.00200000 1664324.36638592 973.62978517
0.00300000 1663916.57797572 1198.01997882
0.00400000 1663345.66293968 1372.26022407
0.00500000 1662612.11990704 1945.25625729
0.00600000 1661715.86608215 2268.24224955
0.00700000 1660657.48848307 2590.62578970
0.00800000 1659436.75772447 2688.28766101
0.00900000 1658054.93758369 2735.79076396
0.01000000 1656511.39863900 3006.56831835
0.01100000 1654807.43144647 3872.24955818
0.01200000 1652942.96337547 3545.56281189
0.01300000 1650919.09721697 4507.00933418
0.01400000 1648735.93908420 5193.51843835
0.01500000 1646394.80888961 4346.48248901
0.01600000 1643895.16333046 5030.31942466
0.01700000 1641239.32848326 6203.88493996
0.01800000 1638427.04430238 5603.42074365
0.01900000 1635459.25423040 4906.37798408
0.02000000 1632336.97770735 5141.86171237
0.02100000 1629062.16095782 5913.49591239
0.02200000 1625633.51786087 6730.12306971
0.02300000 1622054.18685616 8175.15347387
0.02400000 1618323.66394949 6068.71401653
0.02500000 1614444.52582332 7555.60072592
0.02600000 1610416.82139968 10435.50147997
0.02700000 1606242.66937297 7420.84147239
0.02800000 1601921.81902614 7665.19625556
0.02900000 1597456.86095569 7188.55620436
0.03000000 1592849.22235864 8147.42414686
0.03100000 1588099.24286808 7622.87671652
0.03200000 1583208.10058033 8620.56850471
0.03300000 1578179.77518601 8853.58894695
0.03400000 1573012.64337123 13213.30681399
0.03500000 1567709.55652458 11005.32159501
0.03600000 1562272.07016975 12138.85454620
0.03700000 1556701.74297785 12422.48048347
0.03800000 1551000.10159342 9980.68611566
0.03900000 1545169.48142242 10198.11904966
0.04000000 1539209.51483267 12305.98064133
0.04100000 1533124.08938603 13522.15509536
0.04200000 1526914.32396558 9848.59784648
0.04300000 1520580.83172429 10035.83395522
0.04400000 1514127.35521814 19418.68423251
0.04500000 1507555.27946843 13522.77148517
0.04600000 1500864.45190365 11639.20436558
0.04700000 1494059.05820675 15060.11600714
0.04800000 1487139.74083130 10930.47760368
0.04900000 1480110.28773233 15541.15874459
0.05000000 1472970.04997981 16902.33211059
0.05100000 1465723.74904416 17148.96866268
0.05200000 1458369.57332025 13912.84637783
0.05300000 1450913.54084621 15278.12029734
0.05400000 1443355.83569951 14289.22343979
0.05500000 1435698.87696766 12059.87112911
0.05600000 1427943.72807561 13429.81138924
0.05700000 1420095.44476757 12354.83094618
0.05800000 1412153.01117661 16246.82115219
0.05900000 1404119.11471084 13900.77988488
0.06000000 1395997.54051004 14050.71590167
0.06100000 1387789.37667067 19359.66270926
0.06200000 1379496.94583102 15643.49609696
0.06300000 1371123.56429552 18427.90156573
0.06400000 1362667.82116946 15943.21425329
0.06500000 1354135.78668220 13405.94491525
0.06600000 1345528.89144436 17579.33578923
0.06700000 1336847.94270288 19090.18951520
0.06800000 1328096.63151127 17869.54101344
0.06900000 1319277.20494990 15237.65243058
0.07000000 1310390.98300768 18142.36400932
0.07100000 1301440.47174408 14055.55775317
0.07200000 1292428.37700043 19812.92794759
0.07300000 1283357.26989566 15669.79299964
0.07400000 1274229.45206881 15768.59020833
0.07500000 1265046.38240449 17305.83532246
0.07600000 1255809.77566974 17405.52430676
0.07700000 1246524.20338596 14584.33386345
0.07800000 1237190.20236225 21991.05687829
0.07900000 1227810.15856672 19153.83937203
0.08000000 1218387.76363932 22205.11803399
0.08100000 1208924.11352059 23791.62767035
0.08200000 1199420.78925593 17919.34743235
0.08300000 1189881.72872045 16491.76153406
0.08400000 1180307.93031483 18058.71218147
0.08500000 1170702.24161766 18122.47155100
0.08600000 1161066.39857784 22727.87581927
0.08700000 1151404.27124504 22797.80564118
0.08800000 1141715.24080153 16766.08909857
0.08900000 1132004.82683536 19866.68564409
0.09000000 1122272.39477673 21446.62647165
0.09100000 1112521.51560069 18423.35716390
0.09200000 1102753.75206233 19998.44023331
0.09300000 1092973.76959202 16952.02396298
0.09400000 1083178.60211749 15435.29580559
0.09500000 1073374.09522937 18547.90523736
0.09600000 1063561.36779248 26307.19166899
0.09700000 1053744.85748920 20137.06517332
0.09800000 1043924.07035047 23253.40976038
0.09900000 1034102.02998005 18613.83741491
0.10000000 1024279.51012164 23276.75296215
0.10100000 1014458.92604298 21729.71121783
0.10200000 1004643.43204740 15521.74175522
0.10300000 994833.80165307 17071.34883942
0.10400000 985033.18276433 18617.12803009
0.10500000 975244.49304661 21708.94343661
0.10600001 965464.86236204 17045.28294704
0.10700001 955701.59430822 20127.07652326
0.10800001 945953.36633512 21652.87357443
0.10900001 936224.22168567 21626.78053882
0.11000001 926513.73019986 16969.09976734
0.11100001 916824.85705854 16942.92415600
0.11200001 907159.27576626 19989.25558255
0.11300001 897518.45940537 26090.86284329
0.11400001 887904.95984151 16847.99740627
0.11500001 878320.23594580 16811.05010760
0.11600001 868765.38816596 19820.88326440
0.11700001 859242.86720450 16729.45941234
0.11800001 849752.37359359 16684.88864134
0.11900001 840296.44782591 22688.00515994
0.12000001 830876.29387539 15080.40544420
0.12100001 821496.48515122 18040.06366375
0.12200001 812154.65637926 14984.25411612
0.12300001 802854.92173019 22399.65337162
0.12400001 793596.17980286 16367.92197965
0.12500001 784380.70597651 14824.79604151
0.12600001 775211.98047022 16244.56781625
0.12700001 766088.93486623 16179.79906687
0.12800001 757013.17108681 20507.48777124
0.12900001 747986.96145377 18961.47036655
0.13000001 739011.01143072 15973.72376499
0.13100001 730085.46557680 17346.83147979
0.13200001 721213.00064375 17265.84004933
0.13300001 712394.44906520 17182.95492151
0.13400001 703629.72693619 14248.50264221
0.13500001 694922.14266353 17011.69485447
0.13600001 686271.03967404 18333.73168934
0.13700001 677677.97882918 21041.90223484
0.13800001 669142.32237909 19532.26531130
0.13900001 660667.76004878 19423.63306142
0.14000001 652253.25173286 15174.67261721
0.14100001 643901.21153753 23315.66396941
0.14200001 635610.81647627 16360.62318775
0.14300001 627384.66912190 14906.66044145
0.14400001 619219.70126080 17508.43787902
0.14500001 611122.17071061 17398.64902086
0.14600001 603089.35078876 15957.74497467
0.14700001 595123.71187829 21138.79524317
0.14800001 587222.46945689 15749.30737387
0.14900001 579389.87779749 15643.52743861
0.15000001 571624.62389624 20715.67734743
0.15100001 563927.90637931 12857.55687213
0.15200001 556301.18791035 14043.82415148
0.15300001 548743.97062361 13943.58495153
0.15400001 541254.75044905 15101.00825016
0.15500001 533837.75678526 16239.34532779
0.15600001 526489.57994677 13638.71321220
0.15700001 519215.42724154 17227.56868896
0.15800001 512009.43531668 17095.99585213
0.15900001 504877.42120800 13328.76454902
0.16000001 497814.98069114 13224.45558629
0.16100001 490827.27403608 13119.81365430
0.16200001 483911.27616278 13014.79438677
0.16300001 477067.60923371 15256.62286353
0.16400001 470297.48098901 13967.83584479
0.16500001 463599.02213809 11543.61619623
0.16600001 456974.39025117 14881.37172112
0.16700001 450422.12055248 12485.70177122
0.16800001 443943.29508879 15755.54828662
0.16900001 437538.58486116 18967.29854933
0.17000001 431205.61910359 14378.55204796
0.17100001 424946.35438260 12059.97810687
0.17200001 418760.21700636 10866.82814448
0.17300001 412646.70650706 12924.09545813
0.17400001 406607.14172839 10673.43797443
0.17500001 400639.13581549 12692.24842206
0.17600001 394742.80522431 12576.50636842
0.17700001 388921.51461957 14537.88690311
0.17800001 383170.55891889 15432.19498935
0.17900001 377491.68287776 16307.64147059
0.18000001 371885.87807343 14135.38289326
0.18100001 366351.57796249 10001.39855081
0.18200001 360886.75355973 10896.97603849
0.18300001 355493.76370515 10792.79117593
0.18400001 350171.10306798 10688.97342610
0.18500001 344919.37098799 10585.57599571
0.18600001 339737.67720570 11435.57075500
0.18700001 334624.89152312 15098.27581884
0.18800001 329580.03364963 9343.59439542
0.18900001 324607.28515137 10176.43887031
0.19000001 319698.95106896 11907.18799516
0.19100001 314861.04817166 9974.79847739
0.19200001 310089.11257676 10772.49627993
0.19300001 305385.99103720 9775.40603501
0.19400001 300747.70247891 11435.93192715
0.19500001 296175.82030160 9578.32648118
0.19600001 291668.72249970 11204.45450431
0.19700001 287228.27774086 10236.81630245
0.19800001 282850.99424406 9287.41283492
0.19900001 278538.21195544 10862.99077965
0.20000001 274287.14326638 9096.73353635
0.20100001 270100.57214751 9002.45249515
0.20200001 265974.87207821 11338.50933259
0.20300001 261911.24948923 8815.93307449
0.20400001 257909.02421070 7930.70286933
0.20500001 253966.28845696 12556.09389480
0.20600001 250083.34046299 10871.12332378
0.20700001 246259.62154160 9219.96066634
0.20800001 242493.93090101 12163.49614897
0.20900001 238788.50411820 10530.57352941
0.21000001 235137.36517690 8186.30775562
0.21100001 231544.23525543 8835.72843504
0.21200001 228006.00604558 7284.79223754
0.21300001 224522.89406723 10090.05933639
0.21400001 221094.86392573 7130.30969870
0.21500001 217721.77866085 11286.69753939
0.21600001 214400.15199183 9072.34286046
0.21700001 211131.77642877 8284.81129877
0.21800001 207915.60406119 8196.03349961
0.21900001 204749.64116373 8108.08617345
0.22000001 201633.75034262 7352.57505389
0.22100001 198569.23323294 11241.00482483
0.22200001 195553.35061458 9157.76384230
0.22300001 192585.59181735 11000.48952477
0.22400001 189664.90432542 7681.42898841
0.22500001 186793.56631389 6965.53241723
0.22600001 183966.49983598 7516.87153876
0.22700001 181186.31078911 6816.22933422
0.22800001 178450.48473017 6742.75188439
0.22900001 175758.69983874 6670.04297431
0.23000001 173111.13352495 6598.13116634
0.23100001 170507.53023723 5933.66233287
0.23200001 167944.50786653 7630.55907579
0.23300001 165424.50672198 7548.32059872
0.23400001 162944.55816656 10338.83270465
0.23500001 160504.60701145 7954.60869971
0.23600001 158104.92709786 6744.75650900
0.23700001 155744.40478270 10008.13592470
0.23800001 153421.75616889 6600.20426257
0.23900001 151137.08392989 5985.02880671
0.24000001 148889.06558316 9149.97795821
0.24100001 146678.56063535 5856.87520321
0.24200001 144503.86927969 6320.59954127
0.24300001 142363.61250709 5731.55931065
0.24400001 140258.23710776 6700.83759480
0.24500001 138186.25977954 6118.88787249
0.24600001 136148.03434998 6053.14189355
0.24700001 134143.12310925 5988.14929887
0.24800001 132170.09125171 5430.20845596
0.24900001 130227.61464763 5371.88935835
0.25000001 128317.40741849 5797.38074143
0.25100001 126436.71763830 5257.23896812
0.25200001 124587.84946188 6619.35275507
0.25300001 122766.71546402 4677.41208047
0.25400001 120975.38879612 5090.03972441
0.25500001 119210.80184471 5035.46450816
0.25600001 117475.30148147 4981.54039501
0.25700001 115766.08352037 4480.14764421
0.25800001 114083.80614127 5761.80290178
0.25900001 112428.54232639 5261.65602983
0.26000001 110798.19133800 5639.07421496
0.26100001 109192.52314691 6007.77290781
0.26200001 107613.01424457 4245.33361282
0.26300001 106056.35210050 4619.81491610
0.26400001 104524.31091518 4154.84155548
0.26500001 103015.56562545 5754.44976813
0.26600001 101529.45229779 5692.75665972
0.26700001 100065.99476396 6436.24508778
0.26800001 98624.99205851  5173.37420324
0.26900001 97204.66264602  5117.82573050
0.27000001 95806.22231186  4283.97543340
0.27100001 94428.31749442  4623.21064331
0.27200001 93071.56755128  4573.53704591
0.27300001 91734.60809563  4147.32182827
0.27400001 90415.88436717  4848.55202865
0.27500001 89118.68317104  4427.41638947
0.27600001 87838.04669388  6569.40782314
0.27700001 86578.00418315  6859.57559607
0.27800001 85335.07552459  3928.40038769
0.27900001 84110.61224129  4239.17505759
0.28000001 82903.28240280  4542.68557426
0.28100001 81713.43491525  4839.06984471
0.28200001 80540.92382320  3418.96237811
0.28300001 79384.88620244  4058.15557474
0.28400001 78244.75030989  3344.96323407
0.28500001 77121.41602745  3970.21068501
0.28600001 76013.54472495  3599.62158083
0.28700001 74921.91590450  3560.28961230
0.28800001 73844.16416919  3521.25913508
0.28900001 72783.11498579  4115.88534727
0.29000001 71735.97181344  3757.53038145
0.29100001 70704.15170396  3406.52619034
0.29200001 69686.29607434  3062.71285744
0.29300001 68682.71696346  5149.14353449
0.29400001 67692.52362608  3294.93374347
0.29500001 66717.25009381  2962.24604439
0.29600001 65754.27533861  2929.35310500
0.29700001 64805.18747587  3186.47121903
0.29800001 63869.49734571  3437.45650987
0.29900001 62947.03035624  3965.66310017
0.30000001 62036.34245492  3081.03509388
0.30100001 61139.42378503  3600.50083715
0.30200001 60254.08285852  3833.96747379
0.30300001 59381.73326721  2978.58788169
0.30400001 58521.44707903  4016.03449592
0.30500001 57673.51334584  3970.82158185
0.30600001 56836.42041023  3925.97592570
0.30700001 56011.98703198  3364.08010041
0.30800001 55198.80590786  3837.69716244
0.30900001 54397.47428432  2782.43094138
0.31000001 53607.56396853  2750.87227528
0.31100001 52828.34640878  2472.36672899
0.31200001 52061.17324917  2933.12663973
0.31300001 51304.31489832  2658.07668073
0.31400001 50559.84591262  2627.84811573
0.31500001 49824.79641217  3542.54319263
0.31600002 49101.83700277  2568.27170603
0.31700002 48388.75359034  3231.40111776
0.31800002 47686.21137031  3879.03504758
0.31900002 46994.90799020  2481.33125937
0.32000002 46314.07706814  2230.02291642
0.32100002 45643.24276523  3086.39622193
0.32200002 44983.74138006  2833.30108498
0.32300002 44332.77977340  2585.48783881
0.32400002 43693.47112354  2130.05681813
0.32500002 43063.74916950  2948.14440774
0.32600002 42444.33353736  2914.65252203
0.32700002 41835.09605629  2469.94418812
0.32800002 41236.55683688  2849.03384677
0.32900002 40646.15449578  2213.18321710
0.33000002 40067.05116940  2387.19502172
0.33100002 39496.62932303  2360.31868012
0.33200002 38937.49521287  1944.92797798
0.33300002 38387.35001815  2307.84759238
0.33400002 37847.39567919  2662.56441212
0.33500002 37316.86048280  2256.92382888
0.33600002 36795.49182200  2604.01707956
0.33700002 36283.65109180  2391.45555671
0.33800002 35782.37034620  1819.53361827
0.33900002 35289.57290698  2519.67562488
0.34000002 34806.34930717  2314.44830679
0.34100002 34332.75246784  1937.39731351
0.34200002 33869.24735446  1916.83014480
0.34300002 33414.20147023  1896.59016527
0.34400002 32969.25491279  2047.39082705
0.34500002 32533.02467786  3039.23530934
0.34600002 32106.76630401  1838.27299180
0.34700002 31688.46578322  1819.55179145
0.34800002 31280.27689068  2128.77934462
0.34900002 30880.64206215  1783.35716355
0.35000002 30490.49047374  1765.85683942
0.35100002 30110.01830658  1589.80904188
0.35200002 29736.86677958  1889.48060467
0.35300002 29374.04541864  1715.73807417
0.35400002 29019.61233596  2008.88275910
0.35500002 28674.27873580  2143.68917982
0.35600002 28337.25955237  1820.95238508
0.35700002 28009.08889947  1654.49695966
0.35800002 27689.88353709  1789.32035892
0.35900002 27379.86892295  1922.06688943
0.36000002 27078.21674395  1759.54260736
0.36100002 26784.42505954  1745.27321955
0.36200002 26500.75517326  1875.85604379
0.36300002 26223.99223165  1718.19605240
0.36400002 25956.32801651  1563.21992884
0.36500002 25696.18003404  2257.15256111
0.36600002 25445.36383830  1540.84408022
0.36700002 25202.10448749  1530.27185697
0.36800002 24967.85088834  1658.36473456
0.36900002 24741.49322413  1647.78352678
0.37000002 24522.50241571  1501.14505649
0.37100002 24311.51532910  1492.24088159
0.37200002 24109.17505202  1618.69008967
0.37300002 23914.26197751  1744.06720864
0.37400002 23727.03821787  1868.50434817
0.37500002 23547.74721202  1460.90230624
0.37600002 23376.21212590  1586.30983001
0.37700002 23211.99725129  1316.12030650
0.37800002 23055.30635853  1441.76365143
0.37900002 22906.68916299  1436.24947856
0.38000002 22764.65513564  1431.10011290
0.38100002 22629.21486837  2204.31192475
0.38200002 22502.11443638  1680.57049630
0.38300002 22381.38607006  1675.91826832
0.38400002 22267.94912911  1285.97412313
0.38500002 22160.82368143  1924.66762791
0.38600002 22061.45260565  1792.93433820
0.38700002 21967.88106581  1789.94303404
0.38800002 21880.93945273  1404.42816531
0.38900002 21800.59946434  2168.06971944
0.39000002 21727.16870264  2038.87760765
0.39100002 21659.29906081  1910.35026767
0.39200002 21598.25179438  1273.21700360
0.39300002 21542.68222178  1782.44161148
0.39400002 21494.34678240  1910.31016079
0.39500002 21450.58926912  1656.41458184
0.39600002 21413.02585124  1657.68947481
0.39700002 21380.45440725  1531.69582630
0.39800002 21354.59865635  1789.30190619
0.39900002 21333.19098618  1663.98897576
0.40000002 21317.50931175  1923.37236878
0.40100002 21306.69377256  1413.27306489
0.40200002 21301.54467624  1673.98196769
0.40300002 21301.11687216  1807.18684106
0.40400002 21305.44601107  1682.59767845
0.40500002 21314.22084719  1817.25055553
0.40600002 21328.54023206  1953.16116429
0.40700002 21346.74924113  1306.42111546
0.40800002 21369.26573100  1704.30586913
0.40900002 21395.75254939  1842.17438179
0.41000002 21427.13732759  1717.27800249
0.41100002 21462.17405979  1326.36241974
0.41200002 21500.35626254  1731.53127365
0.41300002 21543.64046640  1471.64614999
0.41400002 21589.83606555  1478.36409464
0.41500002 21639.53635428  2025.46069873
0.41600002 21691.78775870  2035.23208290
0.41700002 21748.70306955  2045.46562061
0.41800002 21809.11799904  1644.84375743
0.41900002 21870.72778828  1791.21269074
0.42000002 21935.92773738  1662.30468271
0.42100002 22004.54016835  1810.75369626
0.42200002 22075.56073092  1540.76383422
0.42300002 22148.66990894  1972.11766214
0.42400002 22224.13543827  1983.50418186
0.42500002 22302.47088220  1567.64075259
0.42600002 22381.68066754  1576.90138615
0.42700002 22464.15706019  2019.07853225
0.42800002 22547.84271127  1741.14449667
0.42900002 22634.17894720  1605.89507240
0.43000002 22721.84232401  2350.34748137
0.43100002 22809.73272717  1625.87782584
0.43200002 22900.41112231  2379.81083660
0.43300002 22991.57581482  1796.10198777
0.43400002 23084.46486801  1807.51368482
0.43500002 23177.84254200  2425.32955853
0.43600002 23272.87291758  2288.30533806
0.43700002 23368.05648554  2456.45021417
0.43800002 23463.49871424  1854.08575626
0.43900002 23560.67635248  2177.00659814
0.44000002 23657.53014955  1721.44026291
0.44100002 23755.14947868  1732.46313358
0.44200002 23852.85799386  1743.52473769
0.44300002 23950.91026699  2073.66990919
0.44400002 24048.73232430  1926.30355047
0.44500002 24146.03209664  1776.90658620
0.44600002 24243.14573694  2113.15389831
0.44700002 24341.00340483  1799.28705696
0.44800002 24437.33019431  1645.85426659
0.44900002 24533.82139369  1656.03302256
0.45000002 24630.14161177  1832.85207490
0.45100002 24724.65221749  1843.96464977
0.45200002 24819.01254947  1855.09718093
0.45300002 24912.09350459  1866.16501287
0.45400002 25004.48190496  2559.83395634
0.45500002 25096.09791038  1716.57317842
0.45600002 25186.07389299  2244.45708135
0.45700002 25275.28333193  1736.41204720
0.45800002 25362.67756887  2444.70860673
0.45900002 25448.76082450  2107.15749614
0.46000002 25533.84306920  1942.23186511
0.46100002 25616.56057604  2130.27327847
0.46200002 25698.31515047  1784.74807179
0.46300002 25778.22487866  2511.83035122
0.46400002 25855.86538391  2344.48070480
0.46500002 25932.82777296  2175.24569669
0.46600002 26006.67220792  2368.29771686
0.46700002 26078.75155340  2563.01982415
0.46800002 26149.45027329  2023.57530531
0.46900002 26217.33403196  2957.31541897
0.47000002 26283.25979901  2228.29487137
0.47100002 26347.17323577  1865.37995351
0.47200002 26408.93650754  2435.82837422
0.47300002 26468.24957017  2822.83895045
0.47400002 26524.66644781  2456.84734618
0.47500002 26579.13293968  3036.40029095
0.47600002 26631.86459436  1905.51000204
0.47700002 26680.86870773  2486.92389012
