# SAXS profile: number of points = 501, q_min = 0, q_max = 0.5, delta_q = 0.001
#    q    intensity    error
0.00000000 1664650.74656090 274.66737318
0.00100000 1664569.17347527 599.24491668
0.00200000 1664324.39034179 898.73519924
0.00300000 1663916.62429532 1497.52501521
0.00400000 1663345.74561209 1372.26029227
0.00500000 1662612.26413959 1795.62131634
0.00600000 1661716.07157341 2268.24253004
0.00700000 1660657.74716934 2192.06831737
0.00800000 1659437.10267730 2464.26420152
0.00900000 1658055.36318361 3481.91641153
0.01000000 1656511.93260540 3279.89376818
0.01100000 1654808.07423487 4467.98199497
0.01200000 1652943.71880615 3223.24039299
0.01300000 1650920.00249050 4160.31858977
0.01400000 1648736.97235266 5564.48752837
0.01500000 1646396.01957723 5136.75580981
0.01600000 1643896.54077648 6707.09818620
0.01700000 1641240.85225388 4431.35049987
0.01800000 1638428.80296715 6070.37898815
0.01900000 1635461.18369040 7359.57565869
0.02000000 1632339.07941257 7712.80249912
0.02100000 1629064.49678963 7526.27831640
0.02200000 1625636.08703167 6169.28923057
0.02300000 1622056.99471789 8175.16762550
0.02400000 1618326.73950319 7889.34321481
0.02500000 1614447.86595104 8185.25105420
0.02600000 1610420.38594021 6522.20286137
0.02700000 1606246.50907667 8095.48277653
0.02800000 1601925.98398617 8362.05401989
0.02900000 1597461.31106318 7907.43385283
0.03000000 1592854.00289412 11110.15718087
0.03100000 1588104.25837124 7622.90079094
0.03200000 1583213.44294696 10971.66966496
0.03300000 1578185.52400337 10463.37050651
0.03400000 1573018.68427240 9084.18332082
0.03500000 1567716.04965292 13545.06729449
0.03600000 1562278.80999292 9537.71257578
0.03700000 1556708.92165460 8873.24126380
0.03800000 1551007.70030695 9073.39546671
0.03900000 1545177.45603273 10198.17168209
0.04000000 1539217.87972118 10412.80943883
0.04100000 1533132.88187479 9658.73760365
0.04200000 1526923.48664738 10833.52264036
0.04300000 1520590.43771572 16057.43576763
0.04400000 1514137.41094835 13286.55639813
0.04500000 1507565.76969604 11442.42472366
0.04600000 1500875.41142835 12697.40657095
0.04700000 1494070.51200603 15060.23146144
0.04800000 1487151.63012890 15302.79098604
0.04900000 1480122.69105300 11100.92069962
0.05000000 1472982.92125008 16902.47980843
0.05100000 1465737.09496080 13719.29984793
0.05200000 1458383.44710560 15072.39362823
0.05300000 1450927.95367181 11752.51697262
0.05400000 1443370.76789492 14289.37126853
0.05500000 1435714.36197422 14472.00144381
0.05600000 1427959.64334718 15871.77217645
0.05700000 1420111.88183768 19767.95831792
0.05800000 1412170.15025525 17496.78897863
0.05900000 1404136.69378724 17692.12316804
0.06000000 1396015.68580958 15328.25294631
0.06100000 1387808.05538529 14197.27707005
0.06200000 1379516.28464932 15643.71539917
0.06300000 1371143.47059589 14479.27572648
0.06400000 1362688.40207957 19929.31881244
0.06500000 1354156.97919605 13406.15472115
0.06600000 1345550.58707553 18931.89764595
0.06700000 1336870.29322160 14999.68539192
0.06800000 1328119.55828182 21993.66091465
0.06900000 1319300.82339795 23549.52080022
0.07000000 1310415.18696473 23725.06807101
0.07100000 1301465.35847656 21083.73979484
0.07200000 1292453.91396309 14152.37102089
0.07300000 1283383.42014727 19943.77928357
0.07400000 1274256.24957984 15768.92182755
0.07500000 1265073.91044374 21632.76488257
0.07600000 1255837.81491306 18856.40567492
0.07700000 1246553.01672183 18960.07227335
0.07800000 1237219.64339175 19059.36950026
0.07900000 1227840.28240209 14734.08407991
0.08000000 1218418.53544354 17764.54308012
0.08100000 1208955.58151695 22305.23152551
0.08200000 1199452.98558462 16426.50940840
0.08300000 1189914.52876288 22489.38564909
0.08400000 1180341.50049137 15049.35483766
0.08500000 1170736.53517675 19633.25261660
0.08600000 1161101.41207142 19698.08638065
0.08700000 1151439.79652225 22798.50904171
0.08800000 1141751.59722798 16766.62299272
0.08900000 1132041.89280611 24452.10603312
0.09000000 1122310.20674747 19915.39555427
0.09100000 1112559.98992574 18423.99429875
0.09200000 1102792.87787478 21537.54591687
0.09300000 1093013.70549911 21576.09156046
0.09400000 1083219.28377399 20066.63817499
0.09500000 1073415.45189182 27822.92982079
0.09600000 1063603.34696698 20118.05825359
0.09700000 1053787.62823605 23236.01829499
0.09800000 1043967.58724748 18603.50327944
0.09900000 1034146.28194754 17063.41445450
0.10000000 1024324.42046676 18622.21883984
0.10100000 1014504.59236434 17074.11309252
0.10200000 1004689.79856261 18626.94974149
0.10300000 994880.99783158 24832.23087400
0.10400000 985081.00822441 20169.53459227
0.10500000 975293.04143509 17057.87609726
0.10600001 965514.20565296 18595.80447587
0.10700001 955751.54964709 18579.81099946
0.10800001 946004.07554811 17013.88409943
0.10900001 936275.62430166 21627.96793930
0.11000001 926565.82137470 18512.78598245
0.11100001 916877.73246883 16943.90129363
0.11200001 907212.83660000 18452.70996514
0.11300001 897572.75322544 16883.34428305
0.11400001 887959.96213172 18380.77208157
0.11500001 878375.89063360 18340.48946005
0.11600001 868821.61488665 21346.94808302
0.11700001 859299.84591694 18251.52958683
0.11800001 849810.05534894 21236.75428339
0.11900001 840354.90300548 15126.38896658
0.12000001 830935.39254474 18097.77370212
0.12100001 821556.18491007 18041.37467052
0.12200001 812215.10288866 14985.36935428
0.12300001 802916.01927127 17921.08639448
0.12400001 793658.06411596 22321.63410500
0.12500001 784443.15407366 14825.97631060
0.12600001 775275.09622456 19199.68866276
0.12700001 766152.62344948 19123.17038250
0.12800001 757077.51824566 20509.23093586
0.12900001 748051.87843262 23339.21970712
0.13000001 739076.53864090 18879.71106947
0.13100001 730151.71917973 21685.50708184
0.13200001 721279.82000800 14389.53308749
0.13300001 712461.94034898 17184.58281135
0.13400001 703697.92160371 15674.87194272
0.13500001 694990.70473049 18431.15435845
0.13600001 686340.27411269 25387.72793648
0.13700001 677747.82570531 18238.19484972
0.13800001 669212.66646887 30696.78645846
0.13900001 660738.68073263 18038.16683465
0.14000001 652324.67484489 15176.33427599
0.14100001 643973.09427118 16459.95306587
0.14200001 635683.40746208 17726.03265313
0.14300001 627457.78293761 14908.39762579
0.14400001 619293.21896997 16163.55377755
0.14500001 611196.07842842 18739.27264859
0.14600001 603163.79119057 18619.66711242
0.14700001 595198.67115883 14534.75223540
0.14800001 587297.84245908 17063.93961770
0.14900001 579465.71137582 14341.77703321
0.15000001 571700.95671965 20718.44364908
0.15100001 564004.65685454 14145.23746135
0.15200001 556378.29685926 14045.77076699
0.15300001 548821.55247705 13945.55630652
0.15400001 541332.69630789 13844.58436141
0.15500001 533916.07572457 13743.00043772
0.15600001 526568.26639990 12400.68325897
0.15700001 519294.38008230 13538.00512770
0.15800001 512088.68433188 14655.97883732
0.15900001 504957.11639686 14542.76563866
0.16000001 497894.94761091 12024.16355237
0.16100001 490907.54879235 15507.77019838
0.16200001 483991.98220155 17750.40678517
0.16300001 477148.56877929 15259.21194992
0.16400001 470378.58623489 12806.05761481
0.16500001 463680.45281523 11545.64382018
0.16600001 457056.01872150 13739.10457143
0.16700001 450503.97189369 13623.24075328
0.16800001 444025.37429765 15758.46127788
0.16900001 437620.74586486 13391.19545577
0.17000001 431287.88187614 11062.53469249
0.17100001 425028.86857290 12062.31985970
0.17200001 418842.83581543 15216.56094374
0.17300001 412729.48809275 15081.13620711
0.17400001 406690.07511231 13878.29946862
0.17500001 400722.11090289 12694.87707295
0.17600001 394825.78060544 10482.62497016
0.17700001 389004.52311234 14540.98976072
0.17800001 383253.72855073 13377.47202691
0.17900001 377574.81009086 11213.97238937
0.18000001 371968.86694611 10098.95521461
0.18100001 366434.79108848 10003.67026925
0.18200001 360969.87428596 10899.48586893
0.18300001 355576.69672137 13739.48421036
0.18400001 350254.13722938 13607.37387418
0.18500001 345002.19255241 10588.11778964
0.18600001 339820.44720882 9531.96399453
0.18700001 334707.63269637 15102.00910075
0.18800001 329662.51579352 9345.93276431
0.18900001 324689.67434529 9253.65615605
0.19000001 319781.00066434 10077.89871210
0.19100001 314943.06369630 12698.50492824
0.19200001 310170.93740223 13469.17359313
0.19300001 305467.54766895 9778.01666292
0.19400001 300828.95166258 9679.17197712
0.19500001 296256.93711012 11322.94067142
0.19600001 291749.44257671 8621.19643555
0.19700001 287308.72006329 11092.99020587
0.19800001 282931.19071935 9290.04608631
0.19900001 278618.01396707 9194.39489544
0.20000001 274366.56588208 11581.01329321
0.20100001 270179.59627385 8186.44215401
0.20200001 266053.60435753 12962.13221693
0.20300001 261989.51684068 8818.56755366
0.20400001 257986.81086100 10313.02325162
0.20500001 254043.66455468 14914.90425099
0.20600001 250160.15491429 9320.96781269
0.20700001 246336.01075219 9222.82067852
0.20800001 242569.89041980 12927.76292102
0.20900001 238863.91649451 8276.63509778
0.21000001 235212.21117348 8188.91351911
0.21100001 231618.59111950 11048.20731869
0.21200001 228079.67388404 8015.86051760
0.21300001 224595.94299977 7209.53011113
0.21400001 221167.35878348 7845.91242377
0.21500001 217793.61829241 7762.16492292
0.21600001 214471.25381749 7679.14360599
0.21700001 211202.40600217 7596.95090308
0.21800001 207985.43336401 9565.25053266
0.21900001 204818.78143652 6759.02010698
0.22000001 201702.11897243 8692.35322811
0.22100001 198636.93540509 7276.07128793
0.22200001 195620.26766944 7197.84808924
0.22300001 192651.66524989 11004.26363941
0.22400001 189730.24183777 8324.41475426
0.22500001 186858.00034960 6967.93516253
0.22600001 184030.14945025 6892.84957361
0.22700001 181249.18539971 10537.82813746
0.22800001 178512.46093991 7971.47432024
0.22900001 175819.76482555 6672.36039067
0.23000001 173171.25380155 6600.42265079
0.23100001 170566.72006715 7716.43878077
0.23200001 168002.87596434 8807.55118897
0.23300001 165481.92535216 8131.78219639
0.23400001 163001.02439865 6894.94365816
0.23500001 160560.05033516 7957.35647096
0.23600001 158159.43325419 7309.33855355
0.23700001 155797.88386114 6674.38166030
0.23800001 153474.16511489 6052.25398757
0.23900001 151188.55752802 5987.06716129
0.24000001 148939.38299329 5922.57484487
0.24100001 146727.80660071 7989.32944731
0.24200001 144552.09932758 5268.92426972
0.24300001 142410.73396943 6254.67973180
0.24400001 140304.27379462 5156.18230586
0.24500001 138231.18921499 6120.87734798
0.24600001 136191.86778722 5550.49983424
0.24700001 134185.76507682 5490.88176669
0.24800001 132211.61937872 5925.72506088
0.24900001 130267.83750575 5373.54855132
0.25000001 128356.53899709 5799.14870624
0.25100001 126474.66982378 6214.96556916
0.25200001 124624.55414856 6621.30287516
0.25300001 122802.25869033 8421.77929942
0.25400001 121009.74996623 5554.34778623
0.25500001 119243.95907543 5494.76189416
0.25600001 117507.21581367 6341.86473751
0.25700001 115796.71081406 5377.59950464
0.25800001 114113.14652432 7093.27352356
0.25900001 112456.64817374 6140.13328081
0.26000001 110824.95705896 4338.79727415
0.26100001 109218.04060532 4721.49611877
0.26200001 107637.27086744 5095.54864397
0.26300001 106079.21631808 4200.73716496
0.26400001 104545.96980299 4571.27274594
0.26500001 103035.96742087 5755.58941248
0.26600001 101548.37155407 4473.71372051
0.26700001 100083.72134729 5632.71210397
0.26800001 98641.35005878  5174.23226218
0.26900001 97219.65292876  5906.09419491
0.27000001 95819.95525080  4674.09763832
0.27100001 94440.69174721  4623.81648676
0.27200001 93082.60228459  5717.59911591
0.27300001 91744.20263535  4901.89297878
0.27400001 90424.29705739  3730.00243014
0.27500001 89125.59945508  4796.73998968
0.27600001 87843.61497644  5109.86332501
0.27700001 86582.26253762  3610.48051869
0.27800001 85337.94117466  3571.39300718
0.27900001 84112.16138824  5652.33751280
0.28000001 82903.44766639  4193.25658143
0.28100001 81712.26378920  5875.92916718
0.28200001 80538.38994996  3760.74029671
0.28300001 79381.05095444  4057.95951686
0.28400001 78239.53180406  4682.63620011
0.28500001 77114.80136771  3969.87016231
0.28600001 76005.57792677  4908.06042693
0.28700001 74912.69655608  4530.72010216
0.28800001 73833.48795486  4160.88641064
0.28900001 72771.13361916  4115.20780095
0.29000001 71722.69580103  4382.97414787
0.29100001 70689.50886840  3715.44076199
0.29200001 69670.31749336  3674.41271853
0.29300001 68665.52242987  3936.59458725
0.29400001 67673.93025754  3593.48586678
0.29500001 66697.32118346  4145.90568102
0.29600001 65733.08084000  3806.93155706
0.29700001 64782.65280525  3185.36318922
0.29800001 63845.68492172  2863.47910429
0.29900001 62921.96068729  3680.93487446
0.30000001 62010.06998370  3359.70575076
0.30100001 61111.85870458  3045.20406341
0.30200001 60225.26103915  3558.40971696
0.30300001 59351.69990250  3789.01270115
0.30400001 58490.18928360  3478.70417233
0.30500001 57641.00644784  2910.29455333
0.30600001 56802.73374039  3138.91921510
0.30700001 55977.11642217  3620.60006160
0.30800001 55162.78286278  3068.15412809
0.30900001 54360.27898674  3538.85432958
0.31000001 53569.16635010  2748.90190140
0.31100001 52788.79473311  2717.56728152
0.31200001 52020.56606415  2442.36569235
0.31300001 51262.53626299  3621.69835845
0.31400001 50516.99999850  2625.62119924
0.31500001 49780.84664384  3067.49591543
0.31600002 49056.82892056  2565.91755818
0.31700002 48342.65674232  2767.13380295
0.31800002 47639.19159169  3191.34959583
0.31900002 46946.84966942  2929.48355808
0.32000002 46265.03339513  3341.49219518
0.32100002 45593.14687547  2642.57891803
0.32200002 44932.75665975  2176.99216325
0.32300002 44280.80485730  2367.25193976
0.32400002 43640.57986240  3403.96539045
0.32500002 43010.00107878  3785.74047422
0.32600002 42389.74853255  2287.13899037
0.32700002 41779.60995197  2055.55690697
0.32800002 41180.28228457  3048.37054046
0.32900002 40589.01435391  2009.15630566
0.33000002 40009.06319744  1986.45008182
0.33100002 39437.88547466  2356.80814757
0.33200002 38878.00412961  3107.13023718
0.33300002 38327.11115329  2496.24486762
0.33400002 37786.53002270  2658.28251298
0.33500002 37255.21468894  2253.19549109
0.33600002 36733.21526026  2785.29617901
0.33700002 36220.79122826  2387.31246291
0.33800002 35718.83928083  2361.19398248
0.33900002 35225.42978578  2694.74550623
0.34000002 34741.70832968  2487.85385131
0.34100002 34267.55199748  2812.68080116
0.34200002 33803.50479576  1913.10944452
0.34300002 33347.98583360  1720.75615051
0.34400002 32902.58927067  2043.25089048
0.34500002 32465.94130242  1684.98243340
0.34600002 32039.22723447  2334.69859915
0.34700002 31620.58542293  1980.71356470
0.34800002 31211.95281335  1797.34038788
0.34900002 30812.03068660  2426.44753149
0.35000002 30421.61317243  1922.03761127
0.35100002 30040.83700497  1744.77189589
0.35200002 29667.49798681  1885.07291136
0.35300002 29304.45162165  1711.67310029
0.35400002 28949.76578255  1695.73261103
0.35500002 28604.29840811  1527.46960734
0.35600002 28267.08883931  2270.55401856
0.35700002 27938.80628515  2250.47095286
0.35800002 27619.51277839  1487.31083356
0.35900002 27309.46477449  1622.18228444
0.36000002 27007.81269512  1462.47312671
0.36100002 26714.00127941  1595.62737200
0.36200002 26430.38721791  1870.87504784
0.36300002 26153.67122420  1570.78956813
0.36400002 25886.13943817  1984.17268192
0.36500002 25626.05266139  1406.87035775
0.36600002 25375.42840379  1955.68435972
0.36700002 25132.30653509  1803.49440239
0.36800002 24898.24989029  1653.74183605
0.36900002 24672.14581766  1643.16498929
0.37000002 24453.43798642  1360.83388841
0.37100002 24242.76815431  1893.84513793
0.37200002 24040.69470488  1479.58462570
0.37300002 23846.17812226  1605.32478724
0.37400002 23659.31685474  1597.00396335
0.37500002 23480.37928845  1986.44018190
0.37600002 23309.34904389  1318.14375087
0.37700002 23145.60463084  1837.29818263
0.37800002 22989.36157697  1437.63979432
0.37900002 22841.35232026  1432.15285832
0.38000002 22699.82133243  1686.48330579
0.38100002 22564.98376183  1810.16308313
0.38200002 22438.51217095  1418.00184382
0.38300002 22318.36176428  1414.09146838
0.38400002 22205.66004074  1667.09000654
0.38500002 22099.20246873  1407.49827191
0.38600002 22000.59831231  2043.41566805
0.38700002 21907.71056980  1275.02881557
0.38800002 21821.62610298  1655.27952646
0.38900002 21742.06783104  1399.10213121
0.39000002 21669.50978665  1398.00849012
0.39100002 21602.44106963  1524.26831409
0.39200002 21542.26404964  1904.87478884
0.39300002 21487.62052143  1523.90211958
0.39400002 21440.24198757  1524.40127754
0.39500002 21397.48987347  1652.31424631
0.39600002 21360.82809317  1653.64858518
0.39700002 21329.31032012  1528.03186373
0.39800002 21304.53084298  1275.07623136
0.39900002 21284.14048836  1787.86788573
0.40000002 21269.60404632  1279.36674400
0.40100002 21259.91714346  1922.95959673
0.40200002 21255.90339612  1413.41136329
0.40300002 21256.57301678  1674.59290160
0.40400002 21262.20934880  1550.01513497
0.40500002 21272.13253318  1813.66210571
0.40600002 21287.72003806  1429.57690689
0.40700002 21307.13869429  1434.39664486
0.40800002 21331.00109553  1701.25407298
0.40900002 21358.78833644  1707.63520841
0.41000002 21391.43505415  1846.29484700
0.41100002 21427.81496854  1721.51073614
0.41200002 21467.40112549  1595.88667529
0.41300002 21512.02549704  1603.07621600
0.41400002 21559.64151048  1744.71407191
0.41500002 21610.82091886  1483.36681816
0.41600002 21664.41913036  1355.10948081
0.41700002 21722.84142931  1362.02222216
0.41800002 21784.69452902  1779.91855083
0.41900002 21847.84456301  1926.97998177
0.42000002 21914.52801842  1660.68301193
0.42100002 21984.62810191  1530.78972727
0.42200002 22057.24695683  2239.25181716
0.42300002 22131.87264296  1407.58716679
0.42400002 22208.89609693  2548.47094788
0.42500002 22288.83253742  1566.68211329
0.42600002 22369.64535146  1719.33102319
0.42700002 22453.74783510  1729.83681519
0.42800002 22539.00836881  2175.57788589
0.42900002 22627.00437976  1897.27440715
0.43000002 22716.39470452  2349.78397959
0.43100002 22805.90131109  1773.38696999
0.43200002 22898.23667871  2230.86081414
0.43300002 22991.06442372  1796.06203789
0.43400002 23085.67737484  1506.34052009
0.43500002 23180.70392501  1970.82354110
0.43600002 23277.48117434  1678.42285961
0.43700002 23374.38284556  1535.69702573
0.43800002 23471.53343857  2009.28071523
0.43900002 23570.40078958  1711.21117842
0.44000002 23669.02545230  2191.98855102
0.44100002 23768.35225071  2521.34692624
0.44200002 23867.80291749  1903.21869483
0.44300002 23967.65638028  1596.24599057
0.44400002 24067.22280036  1767.13591786
0.44500002 24166.29870883  1778.39800626
0.44600002 24265.16487017  1789.67731981
0.44700002 24364.75062041  1801.04245121
0.44800002 24462.84384723  1812.32987231
0.44900002 24561.07344732  2321.02155077
0.45000002 24659.07607916  2335.46120614
0.45100002 24755.43265749  2181.94393784
0.45200002 24851.55870566  1688.66349408
0.45300002 24946.41038192  1868.73569027
0.45400002 25040.56177524  2050.82210659
0.45500002 25133.88612148  2234.90525984
0.45600002 25225.60602615  2766.74460007
0.45700002 25316.58895728  2608.87461569
0.45800002 25405.71823380  2448.85729662
0.45900002 25493.51270995  1759.05246036
0.46000002 25580.36045628  1945.77021033
0.46100002 25664.73490905  2667.84932024
0.46200002 25748.22299570  2145.85700616
0.46300002 25829.86036781  2516.86171353
0.46400002 25909.18787834  1987.88253418
0.46500002 25987.79861554  1998.20193025
0.46600002 26063.36670145  2008.31281637
0.46700002 26137.07884375  2018.30532397
0.46800002 26209.46085174  2581.36992163
0.46900002 26278.96278830  2593.73375014
0.47000002 26346.51568752  3722.76284309
0.47100002 26412.04585769  2430.96481596
0.47200002 26475.43785177  2817.64860692
0.47300002 26536.34554422  2830.10138643
0.47400002 26594.30323478  2273.81303435
0.47500002 26650.32715072  1902.83344875
0.47600002 26704.64153108  3057.14750738
0.47700002 26755.13816111  2493.84654620
