# SAXS profile: number of points = 501, q_min = 0, q_max = 0.5, delta_q = 0.001
#    q    intensity    error
0.00000000 1682732.95097188 277.65093691
0.00100000 1682650.84234294 706.71337057
0.00200000 1682404.45112788 984.20663507
0.00300000 1681994.00520698 1311.95537080
0.00400000 1681419.37319789 1513.27749338
0.00500000 1680681.06968273 1512.61302259
0.00600000 1679778.98441509 3527.53601089
0.00700000 1678713.70034214 2215.90217655
0.00800000 1677485.01100042 2717.52583255
0.00900000 1676094.21265012 2514.14142645
0.01000000 1674540.59073283 3039.29130342
0.01100000 1672825.53220404 3914.41191579
0.01200000 1670948.89062943 4887.52571938
0.01300000 1668911.80410567 4556.12942616
0.01400000 1666714.41675479 3750.10760394
0.01500000 1664357.98037720 4793.35119693
0.01600000 1661842.01036148 6356.54597379
0.01700000 1659168.77945249 6271.65826767
0.01800000 1656338.08634178 4720.56375849
0.01900000 1653350.88532379 5952.06345574
0.02000000 1650208.13281277 5717.97143885
0.02100000 1646911.83249839 5978.29022302
0.02200000 1643460.65202807 6236.93345781
0.02300000 1639857.76273953 7084.18585750
0.02400000 1636102.73409615 7976.00119240
0.02500000 1632198.08763118 8275.24468223
0.02600000 1628143.80303930 9231.57578547
0.02700000 1623942.09584264 12277.00280687
0.02800000 1619592.71435873 8454.27435666
0.02900000 1615098.19622054 9448.32488170
0.03000000 1610460.02356473 7488.63945379
0.03100000 1605678.58550576 9248.70907808
0.03200000 1600755.00274129 11093.23267993
0.03300000 1595693.32628857 10579.44724101
0.03400000 1590491.68829073 9185.08992368
0.03500000 1585153.27019611 10271.79366520
0.03600000 1579679.47244607 10520.66577269
0.03700000 1574071.89151899 9869.43121626
0.03800000 1568332.12732426 11009.69204334
0.03900000 1562462.38047332 10312.25218868
0.04000000 1556462.33674063 10529.46819598
0.04100000 1550335.91791385 9767.11673572
0.04200000 1544084.34745352 11951.21340374
0.04300000 1537708.14302631 12178.64905808
0.04400000 1531211.08124492 10335.67527841
0.04500000 1524594.41295048 10519.70193816
0.04600000 1517858.17188793 14981.26085297
0.04700000 1511006.49234032 13055.09670099
0.04800000 1504039.96685283 11054.69427072
0.04900000 1496962.48472255 12349.94107382
0.05000000 1489773.53979392 15955.47535418
0.05100000 1482477.56607048 12719.65810942
0.05200000 1475072.85395385 11726.82973542
0.05300000 1467565.46504177 16642.19314940
0.05400000 1459955.63015906 13249.09796155
0.05500000 1452245.61990033 12198.86377623
0.05600000 1444436.82507804 14819.92251686
0.05700000 1436534.13437526 13747.63230769
0.05800000 1428536.26728005 17699.56517804
0.05900000 1420446.34385041 17897.62476844
0.06000000 1412268.00257015 21967.82980629
0.06100000 1404002.18049574 20891.55342207
0.06200000 1395651.53628354 17145.57992469
0.06300000 1387218.98417547 14649.03315781
0.06400000 1378703.45472609 13442.35931223
0.06500000 1370111.12017141 13564.10072420
0.06600000 1361442.89312087 16419.00205926
0.06700000 1352700.28890053 16557.05231100
0.06800000 1343886.31414462 15300.14640272
0.06900000 1335003.86880648 15419.29540663
0.07000000 1326053.65826557 21183.70818279
0.07100000 1317038.69631631 17068.82230372
0.07200000 1307961.40113422 14322.17801337
0.07300000 1298824.59013313 18742.03971379
0.07400000 1289630.42724402 21762.51447962
0.07500000 1280380.41958421 16055.97121417
0.07600000 1271076.10854760 14680.92974198
0.07700000 1261722.53590961 17714.58523478
0.07800000 1252319.81313495 22259.98572238
0.07900000 1242870.44612590 16405.89065836
0.08000000 1233378.20837994 22478.31890221
0.08100000 1223844.31243656 18063.94289909
0.08200000 1214270.17023070 18141.19719453
0.08300000 1204659.49961479 15178.71040751
0.08400000 1195013.96993535 16760.07171504
0.08500000 1185335.79731928 19878.08225422
0.08600000 1175627.11247484 18410.32144575
0.08700000 1165891.71542788 20006.70277621
0.08800000 1156128.91587193 16977.75392692
0.08900000 1146344.13801136 18570.77590805
0.09000000 1136537.10613443 21719.22511850
0.09100000 1126711.16188936 18658.33771748
0.09200000 1116867.95262618 18696.37040544
0.09300000 1107012.07600507 17169.75810568
0.09400000 1097140.55397504 21887.95508048
0.09500000 1087259.49037696 17222.19113706
0.09600000 1077369.75393008 18810.87678788
0.09700000 1067475.81599854 20399.46380277
0.09800000 1057577.52366539 15705.02696484
0.09900000 1047677.31687570 22001.22468894
0.10000000 1037776.59453354 18866.77937587
0.10100000 1027877.27540083 20444.47996926
0.10200000 1017982.71199437 18873.40036811
0.10300000 1008093.89112294 20444.14507368
0.10400000 998213.77699500 20438.42804550
0.10500000 988345.55873849 20429.10366030
0.10600001 978485.70802572 21986.57489388
0.10700001 968642.41772829 26676.41343957
0.10800001 958813.63315756 17244.26400388
0.10900001 949003.83697985 21921.98966601
0.11000001 939212.50374725 23456.83338519
0.11100001 929442.87852271 15614.64109422
0.11200001 919695.99775719 20265.50226462
0.11300001 909973.74859273 17116.60701689
0.11400001 900278.76191802 18635.77124916
0.11500001 890612.53120116 20145.65640439
0.11600001 880975.77298152 17007.23809830
0.11700001 871371.55141608 16965.60490507
0.11800001 861798.89183883 19998.04422699
0.11900001 852260.78720742 16874.76438154
0.12000001 842758.46014449 19884.88680378
0.12100001 833296.56179720 18299.19335911
0.12200001 823872.25547710 18240.53259560
0.12300001 814490.38885648 19694.37853044
0.12400001 805149.12477804 19625.51084117
0.12500001 795851.34003854 18049.90924259
0.12600001 786600.08030036 17981.67868302
0.12700001 777394.66863993 19403.77184368
0.12800001 768236.50100658 17838.45239409
0.12900001 759127.85134899 20724.19131860
0.13000001 750069.49642328 14738.86629943
0.13100001 741061.47062288 17607.62137198
0.13200001 732106.93186916 23368.85436688
0.13300001 723206.19263988 20351.02322029
0.13400001 714359.09092079 17358.92672777
0.13500001 705569.39438867 25908.50938349
0.13600001 696836.51988498 15751.99027472
0.13700001 688161.33496505 21367.41045821
0.13800001 679543.75570092 18419.03436684
0.13900001 670987.79142103 19727.04199807
0.14000001 662491.69340342 18215.20996917
0.14100001 654058.22375817 16717.72898772
0.14200001 645686.62334602 16619.97446881
0.14300001 637379.45386304 17897.61590866
0.14400001 629133.45359056 19157.11456547
0.14500001 620955.27540174 16318.70540735
0.14600001 612841.76680459 17567.11007417
0.14700001 604795.78136135 17454.40707353
0.14800001 596814.66429668 14672.68921397
0.14900001 588901.83173090 14575.32102302
0.15000001 581056.90145992 13160.93943904
0.15100001 573280.74160488 16992.04198294
0.15200001 565574.87376650 14277.93836197
0.15300001 557938.78844186 12888.38662120
0.15400001 550370.79531206 12796.12159487
0.15500001 542875.35363341 17784.59742434
0.15600001 535448.85238673 16392.76738948
0.15700001 528096.70594804 13767.48177385
0.15800001 520813.18070653 17389.95292457
0.15900001 513603.67744696 16024.43549271
0.16000001 506464.36237403 13454.22642154
0.16100001 499399.85288790 13348.95869782
0.16200001 492407.44513062 12039.36260177
0.16300001 485487.66290878 17914.49560704
0.16400001 478641.82965800 11846.38584330
0.16500001 471868.00364290 14099.41661450
0.16600001 465168.51485728 18643.95495572
0.16700001 458541.33809335 12710.76649208
0.16800001 451988.01460991 24061.58309386
0.16900001 445509.43272636 18176.78571351
0.17000001 439102.91630886 16894.48550274
0.17100001 432770.59477795 21214.41555779
0.17200001 426511.39095989 13281.56534168
0.17300001 420325.62463203 15358.69904936
0.17400001 414213.86906015 16309.67186448
0.17500001 408174.32789748 10775.80276541
0.17600001 402206.63106316 14950.02118269
0.17700001 396314.59891598 14814.24040717
0.17800001 390493.32789417 14678.64488884
0.17900001 384744.23424394 13504.52325983
0.18000001 379068.99154305 17495.93013109
0.18100001 373465.69076815 15293.42075936
0.18200001 367932.00926791 10099.73413149
0.18300001 362470.79792370 13005.45284387
0.18400001 357080.33473422 13872.57165977
0.18500001 351761.27784854 10795.55412718
0.18600001 346512.76787201 16523.46211660
0.18700001 341333.29415711 12513.27915499
0.18800001 336222.42538098 11438.28745188
0.18900001 331184.16364793 11326.49893191
0.19000001 326210.81577910 12149.72240775
0.19100001 321308.37968543 9253.68177218
0.19200001 316472.20044465 11910.43182652
0.19300001 311705.52148469 11791.82043496
0.19400001 307004.07091159 12571.81729790
0.19500001 302369.67098014 9778.63562159
0.19600001 297800.19765322 10559.99550781
0.19700001 293298.12739676 9582.05027488
0.19800001 288859.74325926 12071.44924129
0.19900001 284486.19232201 9388.04479031
0.20000001 280174.89096078 16049.81938722
0.20100001 275928.59628987 10868.82792154
0.20200001 271743.67320887 11584.43333641
0.20300001 267621.39860833 9827.05822137
0.20400001 263560.71863715 8914.94172927
0.20500001 259560.36529414 9624.49880003
0.20600001 255620.19103323 11111.81022945
0.20700001 251739.66187503 8639.70560394
0.20800001 247917.92350242 10881.11817687
0.20900001 244156.72297339 8460.03085094
0.21000001 240450.29097138 8371.27727590
0.21100001 236802.58767785 8283.35490855
0.21200001 233210.13707908 10431.48992469
0.21300001 229673.37542109 9584.27040942
0.21400001 226192.18085573 10212.57744845
0.21500001 222766.37624742 7217.63093165
0.21600001 219392.66228734 8569.47779410
0.21700001 216072.73576647 12011.48394916
0.21800001 212805.40612414 7689.72371387
0.21900001 209588.63315776 11066.28035396
0.22000001 206422.73472189 8895.78817346
0.22100001 203308.57451485 7447.19343661
0.22200001 200243.53468312 6698.14655187
0.22300001 197227.20306667 6626.83433639
0.22400001 194258.38523366 7867.46497399
0.22500001 191339.50324731 9080.97325353
0.22600001 188465.34132888 9625.86776356
0.22700001 185638.57852884 7618.60762310
0.22800001 182856.54283412 7537.34705206
0.22900001 180119.22811754 8699.75912950
0.23000001 177426.52875490 7992.17836573
0.23100001 174778.29796259 7298.74206810
0.23200001 172171.26966521 9026.07923907
0.23300001 169607.58801038 7143.87194486
0.23400001 167084.36179762 7067.66883831
0.23500001 164601.81832512 11653.80928860
0.23600001 162160.07299486 7494.22812791
0.23700001 159757.74861374 7414.35746385
0.23800001 157393.86668606 7899.59854261
0.23900001 155068.40561391 6140.70915276
0.24000001 152780.10938268 8284.50182314
0.24100001 150529.78974250 5464.23162612
0.24200001 148315.77702489 6487.33239393
0.24300001 146136.70297882 6418.32429843
0.24400001 143992.82813396 6879.25768951
0.24500001 141882.90854782 5759.02753038
0.24600001 139807.02198160 5697.83545040
0.24700001 137765.19406600 6149.83855403
0.24800001 135755.61554777 5070.47248058
0.24900001 133776.83030611 5016.63137380
0.25000001 131830.81328771 7445.14553264
0.25100001 129914.91820939 5892.94096877
0.25200001 128031.23687836 5344.66423634
0.25300001 126175.56475101 5768.74709334
0.25400001 124350.24987430 5232.03701100
0.25500001 122551.99721966 5647.19629906
0.25600001 120783.35144099 5121.81826018
0.25700001 119041.46060567 5988.97616643
0.25800001 117326.68287947 5013.95603008
0.25900001 115639.59736759 5862.92786394
0.26000001 113977.59803279 5354.66780894
0.26100001 112340.96562077 5298.00018936
0.26200001 110730.59792897 5678.81898349
0.26300001 109143.61497421 5618.71356474
0.26400001 107581.49043103 5559.27378108
0.26500001 106043.19289356 6346.68539500
0.26600001 104527.83595429 6279.51004210
0.26700001 103035.56625470 6627.24793511
0.26800001 101566.13668987 6557.11009499
0.26900001 100117.58596816 5271.19115066
0.27000001 98691.35609137  6418.88610394
0.27100001 97286.09784789  5556.98217204
0.27200001 95902.26594661  4319.91777400
0.27300001 94538.54267664  5439.74800305
0.27400001 93193.43936202  5766.34433342
0.27500001 91870.11939278  4183.76543515
0.27600001 90563.81643138  6773.26815145
0.27700001 89278.40131735  4467.49141335
0.27800001 88010.43058696  5156.53137213
0.27900001 86761.19152494  4372.76425981
0.28000001 85529.32964013  5047.08598093
0.28100001 84315.35810021  4993.15574302
0.28200001 83119.00937504  3881.24232647
0.28300001 81939.52206537  4188.74856624
0.28400001 80776.06185091  4489.12984984
0.28500001 79629.78609913  4440.95338095
0.28600001 78499.24091042  4731.14947361
0.28700001 77385.22998695  3343.04209367
0.28800001 76285.27282121  4629.75342666
0.28900001 75202.43568921  3598.43671806
0.29000001 74133.65336318  3235.93412247
0.29100001 73080.43728167  4481.29262623
0.29200001 72041.53196816  4116.09312384
0.29300001 71017.15840884  4071.41388430
0.29400001 70006.38979661  4646.67434271
0.29500001 69010.65966443  4289.70280780
0.29600001 68027.61344535  4242.88245143
0.29700001 67058.51629621  2997.51582034
0.29800001 66103.21272506  3557.67507728
0.29900001 65161.33290537  3518.71214346
0.30000001 64231.28759642  2900.04277227
0.30100001 63315.46980465  4015.46728510
0.30200001 62411.18517354  3403.90620051
0.30300001 61520.30227562  3927.45628321
0.30400001 60641.55655700  3051.78647821
0.30500001 59775.46793934  3566.80234080
0.30600001 58920.28451395  4341.24676851
0.30700001 58077.96431048  3488.16270163
0.30800001 57247.06092496  2918.74153944
0.30900001 56428.27460912  3148.69787226
0.31000001 55621.06728596  3632.61207643
0.31100001 54824.69240341  3078.95487115
0.31200001 54040.52357130  3298.36351234
0.31300001 53266.78862721  3512.41220838
0.31400001 52505.58283670  3225.15557844
0.31500001 51753.90087040  3434.38902437
0.31600002 51014.57663099  2668.31755702
0.31700002 50285.32822809  2878.33232406
0.31800002 49566.57835655  3557.64132999
0.31900002 48859.27773894  3986.91725227
0.32000002 48162.64452968  2319.03144391
0.32100002 47476.02900720  2293.09230963
0.32200002 46800.91216276  3401.25645248
0.32300002 46134.55285615  3587.42299996
0.32400002 45479.85508849  2660.57164866
0.32500002 44834.75253006  2192.41950253
0.32600002 44200.15569271  2818.42306120
0.32700002 43575.93877771  2358.32991832
0.32800002 42962.43320203  2756.25503259
0.32900002 42357.19709264  2516.01762644
0.33000002 41763.23144355  2902.96235511
0.33100002 41178.16065143  2460.80699706
0.33200002 40604.40625624  3650.74233938
0.33300002 40039.72363594  3008.98537373
0.33400002 39485.30956150  2182.55058937
0.33500002 38940.46717549  2747.63949402
0.33600002 38404.75893055  2523.76885264
0.33700002 37878.72519281  2304.54174987
0.33800002 37363.28119878  2849.88440840
0.33900002 36856.39659312  2631.54684137
0.34000002 36359.17028657  1859.77164823
0.34100002 35871.56681748  2208.25375786
0.34200002 35394.10174179  2003.12928294
0.34300002 34925.14752028  1982.35146713
0.34400002 34466.43886307  2497.09361389
0.34500002 34016.44685635  3530.90735091
0.34600002 33576.51946823  2097.18950531
0.34700002 33144.53861861  2941.24649632
0.34800002 32722.72541242  1884.33823212
0.34900002 32309.48975322  2035.49795086
0.35000002 31905.80243048  2183.79275078
0.35100002 31511.78412887  2162.96896505
0.35200002 31125.20685430  2636.92764959
0.35300002 30748.92649052  1796.04488138
0.35400002 30380.95105591  2103.12143646
0.35500002 30022.23275735  1603.18730518
0.35600002 29671.91313227  2542.28963759
0.35700002 29330.40097503  1732.54686766
0.35800002 28997.89625746  1873.84414491
0.35900002 28674.56681577  1703.26934953
0.36000002 28359.59460717  1689.23933279
0.36100002 28052.55148315  2284.88042653
0.36200002 27755.70879869  1813.55809881
0.36300002 27465.63675463  1949.51098919
0.36400002 27184.81051251  2530.22635830
0.36500002 26911.43473271  2216.15675521
0.36600002 26647.41749479  1466.94040257
0.36700002 26390.97197626  1748.13806651
0.36800002 26143.61420610  2459.98349525
0.36900002 25904.07937815  1725.21176831
0.37000002 25671.93128464  1857.23595676
0.37100002 25447.73678717  1703.98053599
0.37200002 25232.29701988  2258.79533622
0.37300002 25024.29339076  1544.24921830
0.37400002 24823.94864270  1396.34717730
0.37500002 24631.51994674  1944.90490713
0.37600002 24446.79142447  1520.71273260
0.37700002 24269.60091486  1651.30372447
0.37800002 24099.65963749  1370.06571529
0.37900002 23938.01969251  1364.46718711
0.38000002 23782.89943132  1359.19276689
0.38100002 23634.37011912  1625.09936638
0.38200002 23494.16210975  1889.63554801
0.38300002 23360.37570781  1883.78078632
0.38400002 23233.82097930  1341.75322512
0.38500002 23113.60168725  1739.76088142
0.38600002 23001.21220488  1602.26451810
0.38700002 22894.57675364  1598.95731623
0.38800002 22794.51284595  1729.07785385
0.38900002 22701.11930790  1460.81709667
0.39000002 22614.60887508  1458.98156070
0.39100002 22533.65571289  1854.97062617
0.39200002 22459.68374436  1853.59778724
0.39300002 22391.00724393  2249.62460438
0.39400002 22329.68926170  1852.24781201
0.39500002 22272.87512377  1455.30972954
0.39600002 22222.25963559  1588.00274880
0.39700002 22176.65047587  1588.73531536
0.39800002 22137.86494245  2252.41717529
0.39900002 22103.45118381  1989.31070079
0.40000002 22074.77178250  1991.69637844
0.40100002 22051.02549596  1595.61228049
0.40200002 22032.89521053  1731.45515215
0.40300002 22019.50141431  1467.82003382
0.40400002 22010.92654847  1470.88023629
0.40500002 22006.78291415  1742.27708586
0.40600002 22008.19966725  1477.96071868
0.40700002 22013.50860209  2829.17625959
0.40800002 22023.12832599  1756.45468286
0.40900002 22036.82210581  1626.31754847
0.41000002 22055.42848755  1903.60412296
0.41100002 22077.65725228  2046.59892426
0.41200002 22103.01516441  1780.06641061
0.41300002 22133.59547367  1649.39561285
0.41400002 22167.08299046  2069.85147231
0.41500002 22204.04383202  1801.19212100
0.41600002 22243.58904052  1669.60387249
0.41700002 22287.87886692  1816.68509252
0.41800002 22335.72912686  1684.56077057
0.41900002 22384.72979531  1833.30945711
0.42000002 22437.41244281  1700.30719548
0.42100002 22493.55599024  1708.61059398
0.42200002 22552.03412643  2146.38994969
0.42300002 22612.72987663  2013.43756362
0.42400002 22675.79936096  2457.48987219
0.42500002 22741.82152498  1453.20246431
0.42600002 22808.74203007  1753.07999550
0.42700002 22878.94017620  1909.47643759
0.42800002 22950.35802981  1476.85560920
0.42900002 23024.47693020  1930.60248208
0.43000002 23100.14374460  1642.76680024
0.43100002 23175.92535004  1501.80003385
0.43200002 23254.56601523  2114.53778797
0.43300002 23333.79721832  1822.83632508
0.43400002 23414.76333180  2444.50140768
0.43500002 23496.31646218  1690.32508639
0.43600002 23579.57337778  1545.64110816
0.43700002 23662.99976068  2487.45465272
0.43800002 23746.81987261  1563.72816272
0.43900002 23832.33171187  1730.22736428
0.44000002 23917.66734919  1740.36914714
0.44100002 24003.81421259  1909.74354926
0.44200002 24090.11180441  2721.33960895
0.44300002 24176.80292142  2093.22769614
0.44400002 24263.36419537  1781.53760047
0.44500002 24349.47781766  1954.77617184
0.44600002 24435.43603185  1966.07527630
0.44700002 24522.28980062  2801.42651959
0.44800002 24607.63779117  1823.05693216
0.44900002 24693.35351284  2666.88230577
0.45000002 24778.77737274  2179.16967932
0.45100002 24862.61680581  2022.82259919
0.45200002 24946.36793364  2203.63751585
0.45300002 25028.83585789  2727.14208432
0.45400002 25110.78280561  1885.19210848
0.45500002 25192.08482618  1895.45255215
0.45600002 25271.75903006  2425.33082906
0.45700002 25350.80168245  1741.60015813
0.45800002 25428.06969209  1750.72268127
0.45900002 25504.14501230  2287.72191603
0.46000002 25579.36411491  2299.45704609
0.46100002 25652.23671861  1777.70008885
0.46200002 25724.28715868  2322.51737620
0.46300002 25794.60082307  2692.95645356
0.46400002 25862.77011120  2164.71396090
0.46500002 25930.29338163  2718.79138992
0.46600002 25994.83973427  1820.93860969
0.46700002 26057.71148993  2195.10171995
0.46800002 26119.34909640  2204.99555523
0.46900002 26178.21405231  2030.12059598
0.47000002 26235.31351318  2038.87748631
0.47100002 26290.45350386  2605.90987481
0.47200002 26343.58465773  2055.98516206
0.47300002 26394.39725651  2439.63425405
0.47400002 26442.35162683  2637.62469979
0.47500002 26488.49582586  2458.66229909
0.47600002 26533.04216203  2278.12710801
0.47700002 26573.94834555  2476.95784269
