# SAXS profile: number of points = 501, q_min = 0, q_max = 0.5, delta_q = 0.001
#    q    intensity    error
0.00000000 1646666.22097350 296.39991978
0.00100000 1646585.08540508 493.97553735
0.00200000 1646341.60878997 963.10987164
0.00300000 1645936.02336393 1086.31781412
0.00400000 1645368.20421553 1357.42882006
0.00500000 1644638.64774942 2368.27974650
0.00600000 1643747.24223430 1898.52814207
0.00700000 1642694.59361786 2365.48031312
0.00800000 1641480.47964268 2659.19848929
0.00900000 1640106.15570073 3198.20714033
0.01000000 1638570.99345261 2703.64225594
0.01100000 1636876.29679960 3535.65295503
0.01200000 1635021.94516292 4463.61010600
0.01300000 1633009.05036508 4115.18298842
0.01400000 1630837.77891573 4036.32368175
0.01500000 1628509.42713250 4299.26507907
0.01600000 1626023.46765824 4560.99603067
0.01700000 1623382.07392026 5698.07133507
0.01800000 1620585.15061874 5080.53467580
0.01900000 1617633.52980405 5823.48097007
0.02000000 1614528.41794213 5594.34122123
0.02100000 1611271.53250318 5848.91592817
0.02200000 1607861.64005763 6656.54749226
0.02300000 1604302.01174959 5775.48750519
0.02400000 1600592.00661169 6602.44232833
0.02500000 1596734.27706418 8095.44315444
0.02600000 1592728.72970038 7740.66198039
0.02700000 1588577.66949055 6672.02651745
0.02800000 1584280.77369098 8959.10818608
0.02900000 1579840.54330130 8531.13932553
0.03000000 1575258.50956541 11719.92384988
0.03100000 1570534.85794377 9800.13796450
0.03200000 1565670.86685983 10850.09960707
0.03300000 1560670.78430917 9551.30564029
0.03400000 1555532.58324246 8166.54643883
0.03500000 1550259.35477507 10882.82117307
0.03600000 1544852.25901584 8573.93043377
0.03700000 1539313.21540385 10528.90288030
0.03800000 1533643.85985844 14354.90719261
0.03900000 1527846.03125180 12833.90725685
0.04000000 1521919.87141818 13103.73070012
0.04100000 1515869.08070419 9549.97565124
0.04200000 1509694.56548833 11685.03647898
0.04300000 1503397.16973225 11906.90613697
0.04400000 1496980.71545230 15156.93044787
0.04500000 1490446.35419239 11312.48835395
0.04600000 1483793.91638472 12552.89711616
0.04700000 1477027.82325490 10634.60082203
0.04800000 1470148.57143075 11886.15175306
0.04900000 1463159.75694642 14265.80829427
0.05000000 1456060.96596192 17822.18705328
0.05100000 1448856.98955439 15821.51906296
0.05200000 1441545.90966225 13752.34861905
0.05300000 1434133.54660528 15101.42694975
0.05400000 1426620.41068325 12946.58083070
0.05500000 1419008.60222981 11919.67281477
0.05600000 1411299.36837144 12066.61016265
0.05700000 1403497.60363674 13431.47269376
0.05800000 1395602.78315991 18526.62781150
0.05900000 1387616.76486912 16235.11690724
0.06000000 1379543.93420164 15147.39310520
0.06100000 1371385.13524847 19130.82353073
0.06200000 1363142.91734263 12881.70117102
0.06300000 1354820.36630680 23411.29702438
0.06400000 1346416.25169788 15753.07088158
0.06500000 1337936.29246402 14570.12690649
0.06600000 1329382.14495313 20040.43677283
0.06700000 1320754.53066304 14818.86652755
0.06800000 1312057.30729122 13579.79376612
0.06900000 1303292.95840457 13684.57670394
0.07000000 1294461.89922904 22057.63179579
0.07100000 1285567.40878961 15272.54153175
0.07200000 1276611.99039774 13978.90194972
0.07300000 1267597.91141648 21105.50621400
0.07400000 1258528.01371380 26901.03755383
0.07500000 1249403.57940885 15667.52162016
0.07600000 1240225.90026605 14324.60981962
0.07700000 1231000.10555104 15842.97210130
0.07800000 1221726.31062449 15925.20320582
0.07900000 1212406.83103218 21823.32398217
0.08000000 1203045.91568035 23387.21369795
0.08100000 1193644.06212315 16150.00491826
0.08200000 1184203.17088811 22114.99525409
0.08300000 1174727.12370084 16281.71869863
0.08400000 1165216.74689568 20799.11990837
0.08500000 1155675.31174527 20871.49710994
0.08600000 1146103.84967398 16452.32153453
0.08700000 1136506.66981934 16502.07762068
0.08800000 1126883.15116464 16548.27985202
0.08900000 1117238.79905084 18099.26939474
0.09000000 1107573.09629044 22677.56021184
0.09100000 1097889.20046279 16665.95884601
0.09200000 1088188.56201509 18216.27738406
0.09300000 1078476.82842678 16727.17639495
0.09400000 1068750.02697882 16752.65746023
0.09500000 1059014.47568911 16774.79008338
0.09600000 1049270.88645472 24427.02738493
0.09700000 1039523.86439668 18337.20183004
0.09800000 1029773.31759543 18350.56138235
0.09900000 1020021.75088375 19890.42507753
0.10000000 1010270.26505690 18366.71428247
0.10100000 1000521.06050792 18369.56753488
0.10200000 990777.30606100 15307.51009865
0.10300000 981039.64239349 15304.21914126
0.10400000 971311.65491214 18357.79114148
0.10500000 961595.71125091 15289.37252824
0.10600001 951889.32275951 18333.38921900
0.10700001 942199.43001340 24421.81037518
0.10800001 932525.10642077 19820.82206977
0.10900001 922870.23538322 19795.56748066
0.11000001 913234.05308660 22808.02154940
0.11100001 903619.87795292 16698.89613064
0.11200001 894029.52402783 21215.32160394
0.11300001 884464.09208542 18149.20402407
0.11400001 874926.38134183 15092.48078877
0.11500001 865417.38148692 19575.74209102
0.11600001 855938.65586131 16523.89652954
0.11700001 846492.72981526 17979.50642802
0.11800001 837078.93918081 22412.78965217
0.11900001 827700.07083953 23837.76316298
0.12000001 818357.03138728 16338.49890127
0.12100001 809054.57895220 17766.83939075
0.12200001 799790.48687402 19182.97573141
0.12300001 790568.52145314 16175.03271101
0.12400001 781387.88167605 17581.22816609
0.12500001 772250.39482165 17514.63977985
0.12600001 763160.15365987 17445.84193477
0.12700001 754115.57944716 17374.82376927
0.12800001 745118.52190478 15859.84848621
0.12900001 736170.93697828 17226.40073721
0.13000001 727274.11189029 14290.93697225
0.13100001 718428.05352236 15647.36374330
0.13200001 709634.62223838 19820.09593344
0.13300001 700895.42035379 21131.99791989
0.13400001 692210.41134690 15418.98763969
0.13500001 683582.10041344 22312.12080947
0.13600001 675010.65953155 16645.76364891
0.13700001 666497.37622789 15176.14597231
0.13800001 658041.55016217 15092.18366465
0.13900001 649646.92985618 15006.84478737
0.14000001 641312.12236950 17632.87763613
0.14100001 633040.07690869 18877.25598372
0.14200001 624829.92517052 13402.60252705
0.14300001 616683.73345163 17316.48005210
0.14400001 608598.93316545 14560.73016281
0.14500001 600581.35625414 15783.27878689
0.14600001 592628.70853629 15680.95636761
0.14700001 584743.10038694 16875.68667330
0.14800001 576921.87247936 16762.46579572
0.14900001 569169.14166840 16648.19817928
0.15000001 561483.99232986 15261.13563159
0.15100001 553867.21781586 12628.17316206
0.15200001 546320.43554087 23822.30371586
0.15300001 538842.96608580 13692.00041435
0.15400001 531433.52829297 13591.41312749
0.15500001 524096.32961826 13490.24016102
0.15600001 516827.74982576 17039.81171595
0.15700001 509633.07284043 18117.45659456
0.15800001 502506.61416454 13183.26164484
0.15900001 495453.90645329 13079.98374775
0.16000001 488470.72172686 15335.53903249
0.16100001 481562.28038721 14042.35675895
0.16200001 474725.46653128 11607.03820461
0.16300001 467960.65499441 16116.56571884
0.16400001 461268.95835207 11416.40725818
0.16500001 454649.20733997 11320.76579723
0.16600001 448102.88253940 13469.97328509
0.16700001 441629.05345788 12241.95793985
0.16800001 435228.34562598 14342.95080733
0.16900001 428901.40274230 14218.08217226
0.17000001 422646.04470736 14093.13302624
0.17100001 416464.41803836 10744.78249277
0.17200001 410355.65133665 11713.60262055
0.17300001 404319.02973747 10552.72717450
0.17400001 398356.58846826 13593.91922347
0.17500001 392465.18715677 12433.29771632
0.17600001 386645.15191937 11291.97219511
0.17700001 380900.10804485 11187.03670165
0.17800001 375225.18991048 13097.23587244
0.17900001 369622.04416822 10977.77523032
0.18000001 364091.41913339 14827.62374459
0.18100001 358632.58600061 12727.87107838
0.18200001 353242.64852419 9696.51116003
0.18300001 347924.05577749 12483.51571101
0.18400001 342676.18217628 11411.11740554
0.18500001 337498.39555044 11299.44681684
0.18600001 332390.52368085 11188.26555567
0.18700001 327351.35604653 13846.96301497
0.18800001 322379.56430561 10967.35329584
0.18900001 317479.72315235 11762.62429855
0.19000001 312643.77761587 8957.24465191
0.19100001 307878.18084302 10640.27043269
0.19200001 303178.37476608 9654.71580062
0.19300001 298546.67602398 10425.25041938
0.19400001 293979.54371197 8598.90205991
0.19500001 289478.72224583 10212.80980344
0.19600001 285042.21386778 9265.29759962
0.19700001 280671.95222874 10003.14885016
0.19800001 276364.44756721 9074.42706472
0.19900001 272121.12190218 13061.81446861
0.20000001 267939.05949087 8078.36302544
0.20100001 263821.19513926 13589.43040389
0.20200001 259763.88326418 9491.77274309
0.20300001 255768.11459586 9391.80561186
0.20400001 251833.65828871 10841.43950176
0.20500001 247958.19503194 8428.09944751
0.20600001 244141.74606710 8338.66173107
0.20700001 240384.59311581 8999.99959168
0.20800001 236684.93156789 8162.08025094
0.20900001 233045.14681911 7340.92247182
0.21000001 229459.12197812 7262.38155392
0.21100001 225930.68474990 7903.05572616
0.21200001 222456.79192956 7818.24432197
0.21300001 219037.52788057 7031.10497737
0.21400001 215673.10933299 7651.00391530
0.21500001 212362.90646611 10320.83774220
0.21600001 209103.98888182 8848.23570787
0.21700001 205897.76557711 9426.00015378
0.21800001 202743.25747158 9990.17448425
0.21900001 199638.70623974 7246.88537915
0.22000001 196583.64023624 7168.42278016
0.22100001 193579.77985243 8380.06906605
0.22200001 190623.55853678 7651.63000147
0.22300001 187715.28208865 6937.95715406
0.22400001 184853.76890712 8110.45949431
0.22500001 182040.91810563 6788.30615716
0.22600001 179271.96900824 8545.89516674
0.22700001 176549.43952063 7849.38845228
0.22800001 173870.84116643 8958.69551476
0.22900001 171235.65256059 6498.39332199
0.23000001 168644.23698133 7012.22770530
0.23100001 166096.62314691 7514.21158653
0.23200001 163588.87329503 6860.91767047
0.23300001 161123.57234603 6220.98142250
0.23400001 158698.15797862 6712.93239999
0.23500001 156312.00426509 7746.82329777
0.23600001 153965.69526174 6568.17687052
0.23700001 151658.11846422 5955.61459378
0.23800001 149387.96555011 11246.67351839
0.23900001 147155.21720770 5827.34687706
0.24000001 144958.68126458 6288.30789070
0.24100001 142799.04562704 5701.96616160
0.24200001 140674.96444105 6665.88350535
0.24300001 138584.60544100 5072.19679907
0.24400001 136528.89379836 5519.18079288
0.24500001 134505.93869532 5459.59630991
0.24600001 132516.32635891 6873.62217339
0.24700001 130559.45995167 5828.17456795
0.24800001 128633.97637307 6726.27094275
0.24900001 126738.70775889 6178.51229554
0.25000001 124875.02793151 6112.00853126
0.25100001 123040.51079971 7441.49044522
0.25200001 121237.22905686 5521.14367245
0.25300001 119461.26924816 5461.76948842
0.25400001 117714.64035945 4952.84372745
0.25500001 115994.40037637 5345.02222223
0.25600001 114302.51362896 5287.63453065
0.25700001 112636.59835552 5230.84387512
0.25800001 110997.04622167 4743.45899472
0.25900001 109384.00147919 4692.57388549
0.26000001 107795.40287314 5486.24728881
0.26100001 106231.03374790 5844.83175336
0.26200001 104692.44824830 4543.12900670
0.26300001 103175.87676195 5720.07087834
0.26400001 101683.99135160 6871.29604072
0.26500001 100214.55688980 5997.84151367
0.26600001 98767.35747646  4351.19613952
0.26700001 97342.37615715  3913.16370669
0.26800001 95939.22607496  6193.83672850
0.26900001 94556.45421398  4978.39754995
0.27000001 93195.21900168  5303.74016437
0.27100001 91853.77371853  4122.39755957
0.27200001 90533.24989913  4078.07043469
0.27300001 89231.82630085  5501.14235178
0.27400001 87948.51663447  5079.02707600
0.27500001 86685.93768036  3947.67778879
0.27600001 85439.49677160  4260.01351064
0.27700001 84213.34632875  4214.03604973
0.27800001 83003.87905830  6252.68250538
0.27900001 81812.26776006  4123.33849026
0.28000001 80637.45511125  3738.75578318
0.28100001 79479.72507660  4370.59028882
0.28200001 78338.85587794  4323.12996624
0.28300001 77214.02292008  3289.31753208
0.28400001 76104.63987294  4229.51556112
0.28500001 75011.51611022  3861.59303213
0.28600001 73933.63039694  3819.41152709
0.28700001 72871.44323369  3777.65579604
0.28800001 71822.73144565  4670.27333331
0.28900001 70790.23598630  3387.31295228
0.29000001 69771.42013372  4263.73168619
0.29100001 68767.40982489  5421.62284723
0.29200001 67776.93998396  3276.67631863
0.29300001 66800.37435546  3240.48631337
0.29400001 65836.70438069  3204.60173742
0.29500001 64887.69292683  3457.21644280
0.29600001 63950.43538553  3133.89123442
0.29700001 63026.80688122  3380.75808115
0.29800001 62116.11682149  2785.90797132
0.29900001 61218.17758435  3305.78174605
0.30000001 60331.87205817  2723.98415238
0.30100001 59458.80645713  3501.52927802
0.30200001 58596.86311326  4261.16408732
0.30300001 57747.70707640  3423.28423755
0.30400001 56910.15923616  3124.36788998
0.30500001 56084.72654574  3089.14688439
0.30600001 55269.62138227  2545.16618515
0.30700001 54466.84359937  3271.27878145
0.30800001 53675.02678510  2736.62137020
0.30900001 52894.61710164  2705.55979284
0.31000001 52125.26856851  3161.13706200
0.31100001 51366.34384823  2403.94500591
0.31200001 50619.22458036  2851.88724788
0.31300001 49882.00859240  2349.44271594
0.31400001 49156.83072917  3251.72450669
0.31500001 48440.95469599  3903.37231422
0.31600002 47736.55601725  3177.82268453
0.31700002 47041.86403501  2692.67642486
0.31800002 46357.29474617  2883.65565622
0.31900002 45683.68096299  2631.38014806
0.32000002 45020.33380695  2818.04792808
0.32100002 44366.65239375  2571.49129450
0.32200002 43723.98126122  2753.95509014
0.32300002 43089.55918048  2722.39847793
0.32400002 42466.32826977  2898.32704165
0.32500002 41852.64840940  2455.91352496
0.32600002 41249.05754043  2427.91964180
0.32700002 40655.25409408  2800.33403460
0.32800002 40071.88556372  2373.05717545
0.32900002 39496.29380959  2150.57329977
0.33000002 38931.90578710  2126.26613525
0.33100002 38375.82629609  2102.22786405
0.33200002 37830.88148116  2456.54840531
0.33300002 37294.54430138  2055.30243378
0.33400002 36768.42878587  2586.65908758
0.33500002 36251.09129755  2375.17161429
0.33600002 35742.94045609  1806.80572562
0.33700002 35244.03882573  1786.87285309
0.33800002 34755.45442332  2297.50942346
0.33900002 34275.19822788  1922.83871165
0.34000002 33804.29541957  1729.08979260
0.34100002 33342.59810069  2052.57043629
0.34200002 32890.95262167  2030.68751103
0.34300002 32447.64815212  2009.15846873
0.34400002 32014.18963330  2319.42814878
0.34500002 31589.23075930  2787.11796189
0.34600002 31173.87871280  1947.12055662
0.34700002 30766.51770909  1606.01230048
0.34800002 30368.99809884  2543.70740123
0.34900002 29979.87388520  2360.91518028
0.35000002 29600.00035755  2181.81612969
0.35100002 29229.73171384  1697.66289835
0.35200002 28866.56228116  1834.18145422
0.35300002 28513.47591920  1665.47220732
0.35400002 28168.75434247  1799.98348774
0.35500002 27833.02501678  2080.79704881
0.35600002 27505.32784280  2503.94763877
0.35700002 27186.36544528  1605.89868292
0.35800002 26876.11993726  1736.73495261
0.35900002 26575.02827015  1435.05159456
0.36000002 26282.14204920  1565.49586531
0.36100002 25996.98776481  1411.63650249
0.36200002 25721.76707382  1400.55028351
0.36300002 25453.44180198  1389.75798822
0.36400002 25194.06577455  1517.31268314
0.36500002 24941.97511434  1506.24594850
0.36600002 24699.15981450  1631.62657463
0.36700002 24463.79468141  1620.48183646
0.36800002 24237.33658381  2012.30496519
0.36900002 24018.68417856  1333.03703505
0.37000002 23807.35978381  1722.34352515
0.37100002 23603.78100098  1843.92745914
0.37200002 23408.76078921  1571.66427384
0.37300002 23221.21637399  1563.25236035
0.37400002 23041.20429115  1814.49492388
0.37500002 22869.06780067  1805.74167908
0.37600002 22704.48785692  1797.51438878
0.37700002 22547.18371120  1278.42537699
0.37800002 22397.35920279  1527.94791720
0.37900002 22255.63055929  1649.14230257
0.38000002 22120.33699925  1643.43051521
0.38100002 21991.56713497  1386.12854218
0.38200002 21871.10163682  2136.04124255
0.38300002 21756.70295067  2255.73506879
0.38400002 21649.81102953  1625.35964004
0.38500002 21549.13981383  1372.46477976
0.38600002 21456.08360089  1370.07828324
0.38700002 21368.83977575  1989.86645419
0.38800002 21288.16922820  1739.03062664
0.38900002 21214.00109919  2357.93633388
0.39000002 21146.76777170  1860.38698285
0.39100002 21085.01636345  1611.73872718
0.39200002 21029.96745092  1239.71663997
0.39300002 20980.45076590  1611.92810871
0.39400002 20938.09463335  1984.93146528
0.39500002 20900.34922340  1365.62888296
0.39600002 20868.72691814  2112.64566965
0.39700002 20841.99234886  1617.54710283
0.39800002 20822.00639698  1495.43657028
0.39900002 20806.49103758  2247.10113852
0.40000002 20796.63056639  1376.00912662
0.40100002 20791.69582567  1253.73931769
0.40200002 20792.33267040  1508.27588337
0.40300002 20797.57319612  1890.49949310
0.40400002 20807.71354385  1643.28925498
0.40500002 20822.17030317  1394.87725470
0.40600002 20842.21623415  1526.90083366
0.40700002 20866.19720468  1532.41359532
0.40800002 20894.43481317  1922.81045479
0.40900002 20926.54282511  1415.68068920
0.41000002 20963.56851570  1680.12527830
0.41100002 21004.24635911  1427.86873515
0.41200002 21048.16310318  1564.72051923
0.41300002 21097.06505528  1310.12780201
0.41400002 21148.90307639  1974.77891833
0.41500002 21204.25246634  1587.77449991
0.41600002 21262.24174253  1728.93926922
0.41700002 21324.89694923  1738.19243269
0.41800002 21390.81589200  2016.61926377
0.41900002 21458.16618183  1757.42389357
0.42000002 21528.98683324  1359.55558294
0.42100002 21603.25873154  1504.23497676
0.42200002 21679.96202381  1513.15302115
0.42300002 21758.76808328  1522.24348724
0.42400002 21839.97495259  1531.52831612
0.42500002 21923.89428505  1400.93691120
0.42600002 22008.78869480  2255.46077232
0.42700002 22097.04560645  1418.63039516
0.42800002 22186.40215333  2141.54256933
0.42900002 22278.51016034  1724.35676812
0.43000002 22371.93779197  1590.98043147
0.43100002 22465.54337612  1601.34400773
0.43200002 22561.98157588  1465.40077280
0.43300002 22658.90060437  2212.64174887
0.43400002 22757.49265032  1930.40440554
0.43500002 22856.72771291  1644.31306959
0.43600002 22957.54925098  1805.84090966
0.43700002 23058.50094644  1969.42665916
0.43800002 23159.77128205  1677.57811231
0.43900002 23262.73525895  2149.47683979
0.44000002 23365.43563696  1700.18600469
0.44100002 23468.90193632  2022.78475375
0.44200002 23572.52628332  1879.67333491
0.44300002 23676.43994612  1576.85097514
0.44400002 23780.16790826  1587.32628310
0.44500002 23883.33884837  1757.57498915
0.44600002 23986.37338457  1769.11505282
0.44700002 24090.06285665  2752.04891117
0.44800002 24192.40600466  2281.10207029
0.44900002 24294.83671929  1639.90155627
0.45000002 24396.97498871  2145.59206707
0.45100002 24497.39344999  1993.10802555
0.45200002 24597.75765971  1838.55948341
0.45300002 24696.86925094  2186.41393841
0.45400002 24795.10285757  2030.71902028
0.45500002 24892.70652530  1872.92732773
0.45600002 24988.69212478  1884.27241897
0.45700002 25083.84672370  2412.56449223
0.45800002 25177.18456634  2600.17385932
0.45900002 25269.32893897  2789.73404708
0.46000002 25360.42728677  2455.14308199
0.46100002 25449.11765787  2292.71111846
0.46200002 25536.87920356  2482.95088264
0.46300002 25622.76202390  2140.01318566
0.46400002 25706.34610961  1972.31949874
0.46500002 25789.27378434  2884.27251674
0.46600002 25869.08031288  2536.98082653
0.46700002 25947.21039429  2732.24138402
0.46800002 26023.83325774  2013.85443210
0.46900002 26097.72602329  2207.86772622
0.47000002 26169.60956193  2033.77130350
0.47100002 26239.52895028  2043.53461150
0.47200002 26307.19688578  2426.44441977
0.47300002 26372.40557975  2250.09375071
0.47400002 26434.82145842  2071.82923000
0.47500002 26495.17743517  2837.63363780
0.47600002 26553.78041806  2279.90769476
0.47700002 26608.72062518  2289.41443110
