# SAXS profile: number of points = 501, q_min = 0, q_max = 0.5, delta_q = 0.001
#    q    intensity    error
0.00000000 1664650.74656090 274.66737318
0.00100000 1664568.78871025 599.24477817
0.00200000 1664322.84132048 898.73436277
0.00300000 1663913.15489608 1098.18272135
0.00400000 1663339.57234817 1621.75614466
0.00500000 1662602.60894905 1645.97664801
0.00600000 1661702.16297883 2093.74481059
0.00700000 1660638.84102534 2192.04336126
0.00800000 1659412.43669721 2912.26894936
0.00900000 1658024.17049308 3233.14727067
0.01000000 1656473.42845995 2733.18127498
0.01100000 1654761.54456025 2978.57090989
0.01200000 1652888.38665087 4512.38549340
0.01300000 1650855.11465759 3813.47548305
0.01400000 1648661.82220452 4080.43819085
0.01500000 1646309.83869516 3951.14378881
0.01600000 1643798.63347173 6287.53005410
0.01700000 1641130.42455485 5760.36804859
0.01800000 1638305.19656525 6536.83802844
0.01900000 1635323.66371217 5396.56833376
0.02000000 1632186.99351518 5141.38926215
0.02100000 1628897.08650025 5912.89669208
0.02200000 1625452.66492880 6729.37433854
0.02300000 1621856.88234936 9341.89606756
0.02400000 1618109.22971884 6674.70087694
0.02500000 1614212.31180348 7554.51396426
0.02600000 1610166.16936063 6521.17328418
0.02700000 1605972.98327744 8094.10420644
0.02800000 1601632.36759502 9753.94156597
0.02900000 1597147.21736262 7187.16280812
0.03000000 1592518.51996882 8145.73260406
0.03100000 1587746.96210789 10669.66007631
0.03200000 1582833.80901333 9402.03325858
0.03300000 1577782.78970118 8851.36185828
0.03400000 1572592.49033921 9907.33314627
0.03500000 1567265.47262352 9309.55733728
0.03600000 1561803.58349467 10401.61234677
0.03700000 1556208.30950989 12418.54288422
0.03800000 1550481.37084585 9070.31643922
0.03900000 1544624.70444207 11121.29838701
0.04000000 1538638.26001741 17032.72632767
0.04100000 1532526.03431624 13516.88024940
0.04200000 1526288.74206629 10829.01912735
0.04300000 1519927.48449568 12037.82623598
0.04400000 1513445.67470739 14302.06229020
0.04500000 1506844.86419568 10397.23004606
0.04600000 1500124.85946923 14806.23305126
0.04700000 1493289.99443211 17202.70153592
0.04800000 1486340.71949380 12017.06527624
0.04900000 1479280.93961455 12204.06831989
0.05000000 1472109.91033558 12387.80547233
0.05100000 1464832.59423612 19423.68110440
0.05200000 1457447.11590100 18538.72817819
0.05300000 1449959.64861676 21140.41266235
0.05400000 1442369.79016436 13089.50645616
0.05500000 1434680.58128822 12051.31744501
0.05600000 1426892.88272431 12199.93471659
0.05700000 1419011.83799867 13579.94392354
0.05800000 1411036.46416879 17482.74260736
0.05900000 1402969.22683134 16414.74072059
0.06000000 1394814.18048479 12762.55034769
0.06100000 1386572.34721986 15474.14811810
0.06200000 1378246.23294066 16931.75576313
0.06300000 1369838.82152152 21040.72528234
0.06400000 1361348.97215913 17255.09902908
0.06500000 1352782.89511769 17410.31667458
0.06600000 1344141.61376416 16210.34862045
0.06700000 1335426.15362059 23156.29058747
0.06800000 1326640.40013914 15103.80166258
0.06900000 1317786.52505617 15220.43507700
0.07000000 1308865.69686568 18121.24642170
0.07100000 1299880.42617485 19654.19296432
0.07200000 1290833.57246859 18375.01676490
0.07300000 1281727.94488221 15649.89894030
0.07400000 1272565.63311121 20042.90966080
0.07500000 1263348.07405090 17282.60246309
0.07600000 1254076.66432758 17381.50338244
0.07700000 1244756.87348111 16020.02171286
0.07800000 1235388.63178219 19031.16276509
0.07900000 1225974.23290165 25009.87552425
0.08000000 1216517.75103436 17736.82964213
0.08100000 1207020.02352058 20784.88578021
0.08200000 1197482.77957272 23853.85808844
0.08300000 1187909.98533568 19457.96647300
0.08400000 1178302.90410793 18028.03527906
0.08500000 1168663.95542238 19598.49545249
0.08600000 1158995.03645631 18149.86312307
0.08700000 1149300.03348326 18204.91338524
0.08800000 1139578.50645212 15213.37377561
0.08900000 1129835.79302983 16778.06231455
0.09000000 1120071.40605674 16817.87295197
0.09100000 1110288.68951379 16854.18309865
0.09200000 1100489.29551197 24562.92222996
0.09300000 1090678.40869858 19992.13617092
0.09400000 1080852.63063509 18482.58085249
0.09500000 1071017.57896023 16964.91924813
0.09600000 1061174.88605559 23160.14297687
0.09700000 1051328.57510782 20090.89001484
0.09800000 1041478.47185536 15465.95603423
0.09900000 1031627.75204798 18569.30041004
0.10000000 1021776.72654086 15479.91813507
0.10100000 1011928.21775364 15482.50245980
0.10200000 1002085.14641045 21675.10273637
0.10300000 992248.21413498 17026.98015552
0.10400000 982421.21426187 17020.44833782
0.10500000 972606.28370119 23196.66095766
0.10600001 962800.95550557 20088.84288187
0.10700001 953012.42420516 16982.68219850
0.10800001 943239.82836290 26217.35226318
0.10900001 933486.61615554 16942.78288065
0.11000001 923752.54763012 18456.57677039
0.11100001 914040.52720284 23033.82236979
0.11200001 904352.62414487 15328.77770089
0.11300001 894690.08408270 18359.04138974
0.11400001 885055.22606997 18320.64404227
0.11500001 875449.80289299 18279.39274515
0.11600001 865874.82450704 18235.32466285
0.11700001 856332.82794184 19704.21929891
0.11800001 846823.46129521 21162.11929447
0.11900001 837349.47381988 22608.43685803
0.12000001 827911.73714256 15026.59873696
0.12100001 818514.98821449 16476.70748894
0.12200001 809157.13267753 16421.84478134
0.12300001 799841.60241170 19340.17085752
0.12400001 790567.92066239 17787.77905302
0.12500001 781338.19766353 20674.20968436
0.12600001 772155.87865124 19122.44123591
0.12700001 763019.80685524 17579.97717843
0.12800001 753931.95490302 16047.44241641
0.12900001 744894.18131087 15977.98094219
0.13000001 735907.42268078 17352.69784473
0.13100001 726971.79150429 17272.85058034
0.13200001 718089.86214697 14325.89342516
0.13300001 709262.60994646 17107.41495840
0.13400001 700490.31240629 21277.39424248
0.13500001 691775.25910359 15523.43754619
0.13600001 683117.41718633 18249.48266061
0.13700001 674518.74181780 18151.30019821
0.13800001 665978.02779744 15274.20678780
0.13900001 657499.11529211 19330.47490118
0.14000001 649080.91643194 13728.06202996
0.14100001 640726.02293579 17741.70441184
0.14200001 632433.73771668 14922.27474524
0.14300001 624206.01443632 17527.70571211
0.14400001 616040.56279281 21438.21259643
0.14500001 607942.88299640 19970.92464850
0.14600001 599910.96794647 13228.03746724
0.14700001 591946.96077188 19711.83472364
0.14800001 584047.86413531 14358.81741720
0.14900001 576218.35577950 22040.35314845
0.15000001 568456.80391514 14163.10193780
0.15100001 560764.52529330 15342.51813596
0.15200001 553143.25818403 12694.63837435
0.15300001 545591.69840720 20165.07012470
0.15400001 538109.32674589 13762.14668098
0.15500001 530699.44958531 13660.20447699
0.15600001 523359.43451970 16022.64984401
0.15700001 516094.04013636 13454.57226137
0.15800001 508897.62981620 23060.69718356
0.15900001 501775.90273623 13246.88445750
0.16000001 494724.29132626 13142.35141943
0.16100001 487748.13842393 16593.19245245
0.16200001 480844.42521401 12932.31142661
0.16300001 474013.77291579 13992.88723705
0.16400001 467257.07637926 13877.53582362
0.16500001 460573.04917132 12615.09641238
0.16600001 453963.37325880 14783.31794814
0.16700001 447426.75017217 16912.73195504
0.16800001 440964.07496595 12296.28381101
0.16900001 434576.25614864 12189.86456055
0.17000001 428260.80377774 13181.86816272
0.17100001 422019.69179443 11976.91941869
0.17200001 415852.25677886 11870.50323031
0.17300001 409758.20139888 12833.62747387
0.17400001 403738.62832229 11657.95344337
0.17500001 397791.17184638 13652.19366253
0.17600001 391915.82594425 13526.97537133
0.17700001 386116.26993400 11340.23538357
0.17800001 380387.67600540 10213.40958315
0.17900001 374731.62655878 10117.75439498
0.18000001 369148.94235549 14031.35196170
0.18100001 363638.69795334 10920.07061536
0.18200001 358198.38977895 13765.56476946
0.18300001 352830.12777535 10711.92318528
0.18400001 347533.19782864 12537.26070394
0.18500001 342307.19775993 11460.44552242
0.18600001 337151.96002308 9457.11292543
0.18700001 332066.10481592 14046.39689733
0.18800001 327048.57613133 9271.82757138
0.18900001 322103.59673592 11933.93882291
0.19000001 317223.25408852 9088.44665905
0.19100001 312414.16110118 11696.78674430
0.19200001 307671.17521770 9797.78903777
0.19300001 302997.37502205 11462.39123871
0.19400001 298388.89213696 10473.45060892
0.19500001 293847.39833369 10366.93670310
0.19600001 289370.70794784 9405.99530634
0.19700001 284961.28016659 10156.02050509
0.19800001 280615.19573824 9214.00038751
0.19900001 276333.96699665 13264.03104270
0.20000001 272114.63576094 13947.23631509
0.20100001 267960.24946060 8119.19594239
0.20200001 263866.95458700 10445.17389100
0.20300001 259835.99258154 8746.07992367
0.20400001 255866.82849705 9441.48641780
0.20500001 251957.29090402 7785.48065693
0.20600001 248107.56497870 9244.48830807
0.20700001 244317.66166031 9909.52482536
0.20800001 240585.78597666 8296.60122159
0.20900001 236914.39010203 8955.36436919
0.21000001 233297.47944020 10337.41180267
0.21100001 229738.70261264 7305.69108845
0.21200001 226234.90467820 10119.48776465
0.21300001 222786.57467348 7866.59432362
0.21400001 219393.34764773 8490.52295537
0.21500001 216055.15182805 9100.24342523
0.21600001 212768.50198031 7618.17657358
0.21700001 209535.36259496 8222.16801697
0.21800001 206354.07223321 8812.35107137
0.21900001 203223.46761781 6706.37474848
0.22000001 200142.93689222 7961.68640602
0.22100001 197113.60114428 6563.88322847
0.22200001 194133.11234453 9091.25408097
0.22300001 191200.52630540 7066.77178640
0.22400001 188315.24563689 8897.89577709
0.22500001 185479.05141878 9431.61021064
0.22600001 182687.37089550 10574.85896435
0.22700001 179942.32423348 6769.43055778
0.22800001 177241.71001109 10350.03014555
0.22900001 174585.02030934 7830.13853117
0.23000001 171972.31571580 9534.14563417
0.23100001 169403.74567382 7074.30075390
0.23200001 166875.57576712 6998.76197867
0.23300001 164390.25750320 8078.13763576
0.23400001 161944.81645033 6850.26605983
0.23500001 159539.40249238 6212.46462688
0.23600001 157173.89504551 7263.79190308
0.23700001 154847.55047558 7186.47515748
0.23800001 152558.74480274 9297.69314177
0.23900001 150307.91975464 8116.62805066
0.24000001 148093.43312565 6424.29343286
0.24100001 145916.18122912 6356.10915499
0.24200001 143774.64725045 7860.87921025
0.24300001 141667.26777920 6222.02669518
0.24400001 139594.63151300 8208.16472124
0.24500001 137555.08236409 5583.36105728
0.24600001 135549.03985713 6026.51059713
0.24700001 133575.91564320 5962.82915639
0.24800001 131634.54569339 7374.82577135
0.24900001 129723.39281459 6810.47844495
0.25000001 127844.21454455 6738.66886744
0.25100001 125994.17865525 5238.83819633
0.25200001 124175.76016062 5183.71735315
0.25300001 122384.83871535 5129.14883322
0.25400001 120623.33037875 5075.22686580
0.25500001 118888.13358960 5021.83500042
0.25600001 117181.74974970 4969.09233324
0.25700001 115501.22777351 5363.87727158
0.25800001 113847.34567810 5307.56350664
0.25900001 112220.08716458 5251.90032779
0.26000001 110617.42573125 4763.73966451
0.26100001 109038.99108083 5142.27906268
0.26200001 107486.41875989 4664.37336279
0.26300001 105956.15249752 4615.45022118
0.26400001 104450.27004854 4151.89843089
0.26500001 102967.26346132 4519.23340716
0.26600001 101506.31123848 5691.45914046
0.26700001 100067.80394196 4827.27109059
0.26800001 98651.20931572  4378.63413268
0.26900001 97255.00517331  5908.24184387
0.27000001 95880.16945021  4677.03488711
0.27100001 94525.39501620  4242.29992908
0.27200001 93191.37437965  3816.18696144
0.27300001 91876.64177705  4153.74317131
0.27400001 90579.80104736  4110.05866703
0.27500001 89304.00789393  4066.90471196
0.27600001 88044.37061194  3658.24377206
0.27700001 86804.81628022  4705.68931326
0.27800001 85581.90113758  3939.76300533
0.27900001 84376.99168886  4606.98396425
0.28000001 83188.84616737  4558.33304148
0.28100001 82017.65814120  4163.21652429
0.28200001 80863.38099432  5148.97602851
0.28300001 79725.15565044  4415.17932889
0.28400001 78602.24527281  3696.27075890
0.28500001 77495.68684989  3324.56512322
0.28600001 76404.18230423  3618.12022427
0.28700001 75328.40336186  4230.44333304
0.28800001 74266.05399060  3863.32031145
0.28900001 73219.88448779  3185.06512598
0.29000001 72187.33211238  3150.97719585
0.29100001 71169.47552891  4052.39012844
0.29200001 70165.13498954  3392.13361164
0.29300001 69174.70129579  3355.66491870
0.29400001 68197.10804191  3923.03882581
0.29500001 67234.05268142  4179.26891251
0.29600001 66282.67750315  3543.47210706
0.29700001 65344.90845847  4673.46807418
0.29800001 64419.98214276  3467.08360305
0.29900001 63507.88750208  2857.85507288
0.30000001 62607.08918597  4240.06531584
0.30100001 61719.58492506  3075.48706241
0.30200001 60843.07054039  3871.44476176
0.30300001 59979.37721375  2735.05973043
0.30400001 59127.11215437  3246.07861095
0.30500001 58286.98175674  2675.37258929
0.30600001 57456.97575848  2910.48324484
0.30700001 56639.40848225  3663.43711407
0.30800001 55832.58251478  2587.84032208
0.30900001 55037.13310104  2815.14949140
0.31000001 54252.73382802  3290.15719877
0.31100001 53478.69769506  3754.20475594
0.31200001 52716.28597674  2722.53271817
0.31300001 51963.67737895  2447.48932043
0.31400001 51223.09447907  3146.37872735
0.31500001 50491.61425121  2393.30262882
0.31600002 49771.78902910  2603.31354843
0.31700002 49061.47843084  2808.27915835
0.31800002 48361.22083791  2314.08452666
0.31900002 47671.88554026  3432.37592142
0.32000002 46992.74225825  2715.24077625
0.32100002 46323.17937207  3356.11450442
0.32200002 45664.50250131  3539.91240152
0.32300002 45014.20663987  2625.22865554
0.32400002 44375.05824062  3244.92628750
0.32500002 43745.26341581  2139.14348233
0.32600002 43125.42093496  2326.83219673
0.32700002 42515.31442576  2719.27963944
0.32800002 41915.80366490  2895.96301234
0.32900002 41323.92925636  2659.19497357
0.33000002 40743.11144921  2427.47469509
0.33100002 40170.69391817  2800.70091260
0.33200002 39609.33061400  2374.18338943
0.33300002 39056.56371408  1956.73393474
0.33400002 38513.81639937  1935.31936572
0.33500002 37980.14800727  2297.03946026
0.33600002 37455.35231867  2082.70496431
0.33700002 36939.96762873  2247.42773696
0.33800002 36434.66124372  2593.78365678
0.33900002 35937.86092513  2199.39719278
0.34000002 35450.24577103  2175.93618847
0.34100002 34972.06566132  2870.50728542
0.34200002 34503.68134919  1775.21448949
0.34300002 34043.74595884  2459.32032454
0.34400002 33593.50053548  1912.31010855
0.34500002 33151.95529327  2408.82118569
0.34600002 32720.03947819  2724.92501680
0.34700002 32295.92272839  2528.77086940
0.34800002 31881.76342989  3004.21871028
0.34900002 31476.11386645  2478.74408438
0.35000002 31079.68538201  2127.24916672
0.35100002 30692.76854080  1944.69390685
0.35200002 30313.04293310  1926.09083919
0.35300002 29943.55496912  1749.00312858
0.35400002 29582.23535570  1575.25410730
0.35500002 29229.96204687  1873.05605668
0.35600002 28885.88098003  1701.52289972
0.35700002 28550.44632058  1839.79084804
0.35800002 28224.06309201  1823.83904339
0.35900002 27906.66304881  1959.04783882
0.36000002 27597.41102204  1793.27985315
0.36100002 27296.18159219  1926.83754986
0.36200002 27004.82138686  2058.57763183
0.36300002 26720.40584792  2042.50791976
0.36400002 26445.09366288  2895.73789325
0.36500002 26177.14324482  1724.55027866
0.36600002 25918.41341035  1569.48959841
0.36700002 25667.30651547  1558.51892544
0.36800002 25425.15936305  1548.01090115
0.36900002 25190.78588172  1537.89755093
0.37000002 24963.89584105  2361.70947792
0.37100002 24744.96018760  1794.99949704
0.37200002 24534.67439553  1921.80113644
0.37300002 24331.83534273  1501.51763013
0.37400002 24136.55957588  2036.52231069
0.37500002 23949.33384890  1350.74249306
0.37600002 23769.88384124  1881.86179286
0.37700002 23597.73041879  1337.99137813
0.37800002 23433.15084057  1731.82709491
0.37900002 23276.68332772  1326.77101253
0.38000002 23126.89578896  1850.38301973
0.38100002 22983.67924154  1975.44732439
0.38200002 22848.87308673  1575.20138522
0.38300002 22720.41144490  1570.43491347
0.38400002 22599.41921650  1435.62817374
0.38500002 22484.78161128  1562.24270036
0.38600002 22377.95982456  1818.65688110
0.38700002 22276.97803043  1426.17220107
0.38800002 22182.76931877  1682.67404639
0.38900002 22095.12667518  1551.07796608
0.39000002 22014.63950294  1549.39040162
0.39100002 21939.68145793  1419.05866393
0.39200002 21871.62499607  1289.33235460
0.39300002 21809.29548730  1804.50119411
0.39400002 21754.14560831  1417.82650719
0.39500002 21703.88173226  1933.81595396
0.39600002 21659.66194628  1418.81622301
0.39700002 21620.71412126  1419.83236361
0.39800002 21588.59042006  1808.90807700
0.39900002 21561.00150860  1681.75819735
0.40000002 21539.34676743  1554.71012333
0.40100002 21522.54878784  1816.93365475
0.40200002 21511.60143898  1430.41400546
0.40300002 21505.45420517  1563.87670390
0.40400002 21504.29863207  1437.02482417
0.40500002 21507.68583189  1571.78175507
0.40600002 21516.75935363  1707.67768701
0.40700002 21529.91915810  1449.39422640
0.40800002 21547.42234529  1454.12786587
0.40900002 21569.07170631  1591.79756735
0.41000002 21595.74158142  1730.79079105
0.41100002 21626.25127871  1603.80287082
0.41200002 21660.02374579  2146.94165541
0.41300002 21699.10265806  1347.51433891
0.41400002 21741.14519023  1488.72498744
0.41500002 21786.94336597  1767.35692959
0.41600002 21835.40911073  1638.96588551
0.41700002 21888.74474949  1646.90923299
0.41800002 21945.64499731  1930.99739481
0.41900002 22003.93225937  1386.24779803
0.42000002 22065.90304217  1672.15421177
0.42100002 22131.55822912  1821.20601297
0.42200002 22199.68452028  1549.42705451
0.42300002 22270.05957736  2124.56378435
0.42400002 22343.03816543  1709.24250065
0.42500002 22418.91269000  2005.59602428
0.42600002 22495.82509738  1729.02919892
0.42700002 22576.27017812  1594.33627553
0.42800002 22657.94399774  2187.05814802
0.42900002 22742.56641439  1613.58516356
0.43000002 22828.60465699  2361.39097762
0.43100002 22915.04349831  1930.36335577
0.43200002 23004.28098559  2241.19218123
0.43300002 23094.25972117  2104.81093073
0.43400002 23186.11719461  1815.47306237
0.43500002 23278.58362648  2131.38721784
0.43600002 23372.84265358  1991.71688111
0.43700002 23467.47562099  2158.53850991
0.43800002 23562.39951954  1706.74249008
0.43900002 23659.23165333  1717.66029943
0.44000002 23755.90576684  2042.88921323
0.44100002 23853.40214804  1739.62870110
0.44200002 23951.23784214  2069.02777905
0.44300002 24049.52496201  1922.03812605
0.44400002 24147.59758412  1773.03743664
0.44500002 24245.41374556  2108.62373338
0.44600002 24343.09513739  2121.86598821
0.44700002 24441.61617856  1642.47668504
0.44800002 24538.79549810  1817.95675063
0.44900002 24636.23600260  2328.12441258
0.45000002 24733.57412151  1840.54900548
0.45100002 24829.28252176  1851.76797823
0.45200002 24924.91605103  1693.64812593
0.45300002 25019.41234767  2044.58647395
0.45400002 25113.25539538  2913.76559534
0.45500002 25206.50397626  2241.36243979
0.45600002 25298.14213736  2081.02527085
0.45700002 25389.08384770  1918.65315730
0.45800002 25478.38212322  2455.86136925
0.45900002 25566.45346384  2293.31098440
0.46000002 25653.62927572  2306.13311304
0.46100002 25738.49570962  1783.67783721
0.46200002 25822.40688704  1793.36624330
0.46300002 25904.64124187  1983.25942747
0.46400002 25984.63788625  2537.40000985
0.46500002 26063.99152706  2550.62233173
0.46600002 26140.36963917  2014.24627801
0.46700002 26215.06359120  2392.38681672
0.46800002 26288.41674122  2589.14628756
0.46900002 26359.02040532  2787.46653998
0.47000002 26427.66302726  2613.96027392
0.47100002 26494.37735767  2438.54260758
0.47200002 26559.02579701  2261.23556353
0.47300002 26621.27687596  2839.15931339
0.47400002 26680.59967197  2281.19138008
0.47500002 26738.03459330  2863.64364067
0.47600002 26793.77423716  2300.51356504
0.47700002 26845.87989924  2309.81961601
