# SAXS profile: number of points = 501, q_min = 0, q_max = 0.5, delta_q = 0.001
#    q    intensity    error
0.00000000 1682732.95097188 353.37391970
0.00100000 1682650.54339703 605.75421001
0.00200000 1682403.25730083 757.08148976
0.00300000 1681991.32768392 1311.95328233
0.00400000 1681414.60658398 1639.37930371
0.00500000 1680673.62118752 1966.38821462
0.00600000 1679768.26189782 2116.50809616
0.00700000 1678699.11466284 2417.32682558
0.00800000 1677465.99918584 2264.57919451
0.00900000 1676070.13674480 3771.15796888
0.01000000 1674510.89777828 2762.94310064
0.01100000 1672789.63370663 5419.83864919
0.01200000 1670906.19269276 3909.92066233
0.01300000 1668861.79260613 4205.53190285
0.01400000 1666656.43516614 4499.97257444
0.01500000 1664291.53405173 4793.15983150
0.01600000 1661766.49380858 4237.50474864
0.01700000 1659083.61005919 5823.38373254
0.01800000 1656242.84525648 4720.29232138
0.01900000 1653244.88071344 5455.70835253
0.02000000 1650090.82560327 7276.90087009
0.02100000 1646782.74941610 7608.13664724
0.02200000 1643319.28903975 7370.28734619
0.02300000 1639703.57462825 5902.93313735
0.02400000 1635935.14509653 7361.70848861
0.02500000 1632016.59157519 7001.35149761
0.02600000 1627947.94830410 8571.14633985
0.02700000 1623731.32690519 8865.57345096
0.02800000 1619366.49959333 8453.09351553
0.02900000 1614856.30451716 7266.85370398
0.03000000 1610201.73951736 7487.43843292
0.03100000 1605403.39018845 10017.71761572
0.03200000 1600462.70790587 7922.29076902
0.03300000 1595383.28961712 8950.10066736
0.03400000 1590163.56361205 10852.86682241
0.03500000 1584806.56408873 10269.54700952
0.03600000 1579313.69628598 10518.22970335
0.03700000 1573686.79333118 12558.02119156
0.03800000 1567927.27437496 11924.08747346
0.03900000 1562037.30225040 10309.44667228
0.04000000 1556016.64598139 11483.40337947
0.04100000 1549869.41709700 14646.26667066
0.04200000 1543596.46351976 11947.43718192
0.04300000 1537198.64703912 13189.16500381
0.04400000 1530679.54624785 12398.50490042
0.04500000 1524040.58759891 11567.46859736
0.04600000 1517281.66488532 19254.30522247
0.04700000 1510407.15861474 16312.39807169
0.04800000 1503417.35187786 11050.11805044
0.04900000 1496316.48759749 12344.61159729
0.05000000 1489103.54531700 12530.80691735
0.05100000 1481783.52459887 16181.07684240
0.05200000 1474354.54184148 14065.34298463
0.05300000 1466822.92331745 14257.51947930
0.05400000 1459188.16456358 14445.96350285
0.05500000 1451453.26669614 18288.31201351
0.05600000 1443619.25493987 13577.23972628
0.05700000 1435691.11670835 12490.51329840
0.05800000 1427667.86506007 13898.34731531
0.05900000 1419552.20335582 12775.97042691
0.06000000 1411347.93336772 18079.36787109
0.06100000 1403056.27613351 15658.10877337
0.06200000 1394679.67866215 19769.58536914
0.06300000 1386220.84299069 14638.49278641
0.06400000 1377679.08114968 14775.60883634
0.06500000 1369060.54139650 17619.80999199
0.06600000 1360365.92059564 13671.67814166
0.06700000 1351596.79227010 15164.91671897
0.06800000 1342756.46974755 19456.54215738
0.06900000 1333847.37279861 14005.39807010
0.07000000 1324870.71858349 16931.84857639
0.07100000 1315829.08055853 21316.43210346
0.07200000 1306725.20711415 17170.37002586
0.07300000 1297561.92247539 20164.11322007
0.07400000 1288341.40272398 18841.99389785
0.07500000 1279065.01177377 18955.74436299
0.07600000 1269734.10601752 21998.14441804
0.07700000 1260354.41168226 19169.99150054
0.07800000 1250925.53462811 19270.50876466
0.07900000 1241450.15092005 14897.40250978
0.08000000 1231931.76843812 16464.76885756
0.08100000 1222371.90428028 15035.17512807
0.08200000 1212771.96968455 16608.91290421
0.08300000 1203135.79210330 16675.46286116
0.08400000 1193464.97414217 16738.34704802
0.08500000 1183761.54767540 22905.78702283
0.08600000 1174027.98541620 18385.27911483
0.08700000 1164267.58503121 15368.33284407
0.08800000 1154480.27089310 21577.23727634
0.08900000 1144671.16622857 20088.97991088
0.09000000 1134840.11219029 21686.79556270
0.09100000 1124990.06750832 20182.32275929
0.09200000 1115123.05794464 18667.16086710
0.09300000 1105243.92246337 21817.51605468
0.09400000 1095349.57446001 18730.47860355
0.09500000 1085445.34330203 21882.57914951
0.09600000 1075533.28206250 21908.61398549
0.09700000 1065617.19282755 15664.57347100
0.09800000 1055696.84299467 18812.51862669
0.09900000 1045775.37858411 18823.95769966
0.10000000 1035853.22158166 25109.08327195
0.10100000 1025933.23151781 17266.45709852
0.10200000 1016018.30566089 18836.98027297
0.10300000 1006109.35638520 20403.89870731
0.10400000 996209.67763729 17259.33347703
0.10500000 986321.95720578 20387.27581465
0.10600001 976443.21317548 21940.68003244
0.10700001 966581.20404173 20356.20111503
0.10800001 956734.59970518 23463.91716202
0.10900001 946907.14975215 20311.15931814
0.11000001 937098.76601132 15602.69518850
0.11100001 927312.06403014 15578.84340905
0.11200001 917549.03445306 18662.94823937
0.11300001 907811.06437808 17075.92692490
0.11400001 898100.60799394 15492.23621734
0.11500001 888419.35200063 23187.74617908
0.11600001 878768.04586341 16964.61792428
0.11700001 869149.84884037 23075.92957347
0.11800001 859563.78916171 18411.85723101
0.11900001 850012.94952972 27540.42086196
0.12000001 840498.10248854 16780.54540663
0.12100001 831024.11140454 21290.83873716
0.12200001 821588.69780284 19705.80584517
0.12300001 812195.62314420 18128.20716268
0.12400001 802844.08521359 19569.32549914
0.12500001 793536.32800024 16497.62103650
0.12600001 784275.82029603 19422.59160489
0.12700001 775061.40607526 16369.29766774
0.12800001 765895.13909990 19266.09313205
0.12900001 756778.77461795 22135.78020088
0.13000001 747713.11236610 16161.81968558
0.13100001 738698.52206403 21939.34713947
0.13200001 729737.81057285 18925.75100937
0.13300001 720831.48080285 15937.58479190
0.13400001 711979.89580990 15859.35292686
0.13500001 703185.54054087 17213.98284405
0.13600001 694448.48251750 17125.10038634
0.13700001 685770.33730715 17034.53598194
0.13800001 677149.97497911 16942.29317290
0.13900001 668591.61167223 19656.59431013
0.14000001 660093.83903051 18149.28096007
0.14100001 651659.38315843 16656.41461910
0.14200001 643287.31574079 16558.21628814
0.14300001 634980.09309628 13715.57065781
0.14400001 626734.66932022 16357.77564085
0.14500001 618557.51668901 16255.69230540
0.14600001 610445.75595978 13460.32955390
0.14700001 602402.05737984 14710.65893521
0.14800001 594423.49445955 17270.97544634
0.14900001 586514.29062420 13196.57216167
0.15000001 578673.11209686 20971.11457187
0.15100001 570901.38430832 15619.86261170
0.15200001 563200.50416439 18095.63305268
0.15300001 555569.76808428 12833.66224835
0.15400001 548007.82453148 12741.18252163
0.15500001 540518.86600473 13912.95626756
0.15600001 533099.55192047 15065.39404828
0.15700001 525754.98359388 13706.43306919
0.15800001 518479.41544436 14838.88157039
0.15900001 511278.91086633 12270.69443998
0.16000001 504148.51520350 13392.70593855
0.16100001 497093.57674199 19326.99917605
0.16200001 490111.38227070 15578.19102086
0.16300001 483202.26449613 16641.48677486
0.16400001 476367.35479164 15327.12036401
0.16500001 469605.20387413 11693.17012852
0.16600001 462917.63077791 13915.30463817
0.16700001 456303.04056264 12648.72088160
0.16800001 449762.68321413 14821.92992516
0.16900001 443297.46995172 16956.12902629
0.17000001 436904.79207932 12327.26929061
0.17100001 430586.59988810 15552.78872238
0.17200001 424342.15460656 13214.01531845
0.17300001 418171.56815663 13097.13413317
0.17400001 412075.34177352 14062.07170212
0.17500001 406051.65153143 17151.62257072
0.17600001 400100.37061726 11684.93187575
0.17700001 394225.02563045 10525.80868147
0.17800001 388420.84497339 12514.92021615
0.17900001 382689.36387208 13432.39730637
0.18000001 377031.69379531 12283.69316407
0.18100001 371446.67701901 12168.59371394
0.18200001 365931.67495351 15067.23742796
0.18300001 360489.20756504 13929.30363832
0.18400001 355118.04514127 11825.43146185
0.18500001 349818.37787198 12687.91316482
0.18600001 344589.64683318 14498.61007547
0.18700001 339430.46309581 11486.32741383
0.18800001 334340.00594734 11374.24753972
0.18900001 329322.50990048 12201.39956830
0.19000001 324369.88138362 10222.51729481
0.19100001 319488.76204313 9201.27678160
0.19200001 314674.02350424 10020.79475199
0.19300001 309929.05967131 13528.40409391
0.19400001 305249.41636236 10714.25502061
0.19500001 300637.32447739 12374.23286024
0.19600001 296090.05043630 9624.40754425
0.19700001 291610.60342525 10393.00239722
0.19800001 287194.93529358 11144.59999075
0.19900001 282844.25917853 9333.86099401
0.20000001 278555.99594092 10078.15640945
0.20100001 274332.95672952 9974.74677812
0.20200001 270171.43082756 11517.40864053
0.20300001 266072.58221575 12212.73210093
0.20400001 262035.63245206 10474.87490237
0.20500001 258059.02242098 8771.42658669
0.20600001 254142.55116957 10258.46456286
0.20700001 250286.14849037 10151.60666263
0.20800001 246488.20297291 10818.36773987
0.20900001 242751.13642649 8411.32727479
0.21000001 239068.89607258 9836.49019390
0.21100001 235445.34137566 9733.31087260
0.21200001 231877.09821755 8890.16836594
0.21300001 228364.68284243 10995.75999869
0.21400001 224907.72063744 9429.25663351
0.21500001 221506.26660847 8612.16405290
0.21600001 218156.78511537 8521.20442948
0.21700001 214861.17081432 7025.96061781
0.21800001 211617.94081061 8341.97962117
0.21900001 208425.55099023 7565.84785867
0.22000001 205283.79896014 6805.15825729
0.22100001 202193.70773799 7406.35586464
0.22200001 199152.90477048 11324.83046526
0.22300001 196160.50856162 8568.29141913
0.22400001 193215.58736194 7825.23165819
0.22500001 190320.41090488 8387.42090520
0.22600001 187470.06164774 7021.69149106
0.22700001 184666.94842076 6947.17092811
0.22800001 181908.48570398 7498.26813531
0.22900001 179194.56521985 7418.65535094
0.23000001 176525.04600742 7339.91176011
0.23100001 173899.90271424 9077.57535099
0.23200001 171315.91671875 6586.24072974
0.23300001 168775.07454230 5924.00539661
0.23400001 166274.39671120 6447.29003740
0.23500001 163814.42270285 6958.83700554
0.23600001 161394.86680854 6885.10534370
0.23700001 159014.69102529 6244.50721191
0.23800001 156672.57793654 9548.41071397
0.23900001 154368.95920015 6113.01107347
0.24000001 152102.00314505 7148.03397591
0.24100001 149872.99775334 5440.39007578
0.24200001 147679.99793546 5921.22979731
0.24300001 145521.63294861 7456.52882500
0.24400001 143398.42432766 5796.88157766
0.24500001 141308.82832634 5735.72561309
0.24600001 139253.07471235 5675.25932837
0.24700001 137230.88854999 6636.48608422
0.24800001 135240.86341818 7071.74508268
0.24900001 133281.30819719 6497.46408199
0.25000001 131354.34784155 6429.13885926
0.25100001 129457.12098139 4893.47940460
0.25200001 127591.81700561 5326.32065289
0.25300001 125754.41782236 5749.49225485
0.25400001 123947.00814817 6163.26527176
0.25500001 122166.22918736 5160.30176502
0.25600001 120414.89848149 6498.79237852
0.25700001 118689.86312968 6430.61708862
0.25800001 116991.73839687 5454.15510212
0.25900001 115320.91835765 4947.26763162
0.26000001 113674.99491311 6675.56439213
0.26100001 112053.93169436 7045.95155833
0.26200001 110458.93850400 4793.36586319
0.26300001 108886.94447405 6467.88480780
0.26400001 107339.57059307 5546.77257286
0.26500001 105815.67649610 5488.65939957
0.26600001 104314.19966738 5431.11906268
0.26700001 102835.73486351 4547.39641085
0.26800001 101379.58274331 5726.93290017
0.26900001 99944.20367883  5262.06257270
0.27000001 98530.64431435  5607.37923328
0.27100001 97137.68882592  6341.14862664
0.27200001 95765.74988791  4313.76840784
0.27300001 94413.79765317  4656.48872062
0.27400001 93079.96877158  4991.41356159
0.27500001 91767.69491928  4179.10102440
0.27600001 90472.02301810  5262.75782803
0.27700001 89196.93520621  5579.26856120
0.27800001 87938.80867897  5152.33504435
0.27900001 86699.19184811  4733.77609895
0.28000001 85476.64856597  4683.69317984
0.28100001 84271.58680944  5347.03243613
0.28200001 83083.78612312  4232.28826542
0.28300001 81912.57923234  3838.42364450
0.28400001 80757.01947409  4833.30784429
0.28500001 79618.33811040  4440.31492658
0.28600001 78494.97594002  4055.05064899
0.28700001 77387.89413626  4346.10434040
0.28800001 76294.53590789  3307.36828815
0.28900001 75217.93979056  3271.98053576
0.29000001 74155.15372339  3236.87261324
0.29100001 73107.54757828  3842.53288260
0.29200001 72073.80727695  3801.17277572
0.29300001 71054.55144746  3760.20704059
0.29400001 70048.41429698  4959.42796699
0.29500001 69057.12585519  3066.13653311
0.29600001 68078.07327653  3639.45396965
0.29700001 67112.91314229  2999.94735947
0.29800001 66160.97290734  4747.71164058
0.29900001 65222.33732943  3228.50585064
0.30000001 64295.27689256  3773.81145586
0.30100001 63381.98181973  3732.56508606
0.30200001 62480.03483099  4259.57657625
0.30300001 61591.23449148  3651.12855350
0.30400001 60714.27433107  3610.98163679
0.30500001 59849.72106364  3021.81255956
0.30600001 58995.77789355  2988.43127068
0.30700001 58154.52707830  3761.43498950
0.30800001 57324.44853895  3454.08481024
0.30900001 56506.12858892  3153.04212454
0.31000001 55699.18011261  2858.20356280
0.31100001 54902.89682958  2826.40126260
0.31200001 54118.57093454  2794.95372824
0.31300001 53344.39292982  2763.77312855
0.31400001 52582.62895368  3478.34106997
0.31500001 51830.12789292  3930.79708551
0.31600002 51089.78633503  2915.18334630
0.31700002 50359.25815807  4083.63243739
0.31800002 49639.14988937  2612.75677814
0.31900002 48930.30580558  2583.52026886
0.32000002 48231.95229505  2786.84233556
0.32100002 47543.34203804  2296.34352917
0.32200002 46866.09182379  3178.92715893
0.32300002 46197.52417282  2245.19978111
0.32400002 45540.44674100  2886.12594887
0.32500002 44892.83639540  2634.31176442
0.32600002 44255.55387046  2387.80852215
0.32700002 43628.38042472  2361.16806039
0.32800002 43011.99577956  2547.17051068
0.32900002 42403.63113620  3148.46976095
0.33000002 41806.48774306  2075.69221474
0.33100002 41218.08617010  2257.92686732
0.33200002 40641.01518743  3248.03008759
0.33300002 40072.80066194  2007.64740824
0.33400002 39514.83928886  2581.30699878
0.33500002 38966.25137389  2553.06891092
0.33600002 38426.88716810  2913.71885750
0.33700002 37897.10687270  2305.66009132
0.33800002 37377.70496948  2280.78766525
0.33900002 36866.96458461  2820.32292429
0.34000002 36365.74403710  2604.15105382
0.34100002 35874.24397982  2760.52320498
0.34200002 35392.68434349  2731.43054357
0.34300002 34919.73363524  2342.41584319
0.34400002 34456.85774474  2139.77096729
0.34500002 34002.84122871  1941.22229768
0.34600002 33558.80382339  1921.40940391
0.34700002 33122.69663650  1729.00484631
0.34800002 32696.73378819  2396.34373283
0.34900002 32279.47856767  2542.00905760
0.35000002 31871.75112249  1678.04777608
0.35100002 31473.71369713  1661.81216192
0.35200002 31083.07979929  1975.01898399
0.35300002 30702.86003039  1793.35413931
0.35400002 30330.89733631  1776.63239562
0.35500002 29968.27422676  1760.33651146
0.35600002 29614.11429321  1744.41948506
0.35700002 29268.70780691  1728.90265204
0.35800002 28932.59589283  1713.82239889
0.35900002 28605.59978935  1544.70246179
0.36000002 28286.96697790  1684.91326785
0.36100002 27976.49694578  1671.03624172
0.36200002 27676.14426932  1959.05596490
0.36300002 27382.81192703  1794.12192244
0.36400002 27098.72350638  1928.75173693
0.36500002 26822.25662883  1472.54195867
0.36600002 26555.14011592  2192.79079894
0.36700002 26295.81247108  1596.68180888
0.36800002 26045.58853540  2018.27275121
0.36900002 25803.26197041  1575.28921791
0.37000002 25568.57837725  2418.91547196
0.37100002 25341.97895791  1696.89899140
0.37200002 25124.17684076  1827.40708908
0.37300002 24913.97046802  1816.97595230
0.37400002 24711.51641152  2085.03429599
0.37500002 24517.11089312  1521.04163186
0.37600002 24330.72062431  1926.26324308
0.37700002 24151.78252324  1643.28736073
0.37800002 23980.39046447  2044.92789373
0.37900002 23817.35159342  1629.10692616
0.38000002 23661.07488476  1893.12269121
0.38100002 23511.48866238  1481.92920059
0.38200002 23370.41565147  1342.63044278
0.38300002 23235.90396608  1606.06575822
0.38400002 23108.82084076  2268.70859352
0.38500002 22988.22354313  1730.32366806
0.38600002 22875.57911651  1327.92743062
0.38700002 22768.82148776  1855.20366271
0.38800002 22668.94503934  1851.82620799
0.38900002 22575.79787870  1716.88951001
0.39000002 22489.79772055  1846.63737832
0.39100002 22409.40980694  1581.20803089
0.39200002 22336.22015153  1711.73631241
0.39300002 22268.57777064  1579.28761032
0.39400002 22208.39694332  1842.18661373
0.39500002 22153.00692286  1710.65527563
0.39600002 22103.77046251  1842.79143077
0.39700002 22059.95769658  2370.56316639
0.39800002 22023.04523213  1449.88725155
0.39900002 21990.66786302  1319.44013429
0.40000002 21964.26594125  1717.49585665
0.40100002 21942.86497462  1455.47030273
0.40200002 21927.32761321  1988.26052553
0.40300002 21916.69121405  1460.96670555
0.40400002 21911.12669547  1464.21111080
0.40500002 21910.08143546  1601.18882717
0.40600002 21914.82469373  1873.06015532
0.40700002 21923.63029913  1475.89886167
0.40800002 21936.88088013  1480.41047634
0.40900002 21954.42283563  1620.23648204
0.41000002 21976.93547799  1761.34157734
0.41100002 22003.38186541  1631.77087646
0.41200002 22033.09271138  1910.93022140
0.41300002 22068.12869121  1781.56011366
0.41400002 22106.19963840  1788.94429050
0.41500002 22148.06879469  1382.03955827
0.41600002 22192.53672705  1526.95756186
0.41700002 22241.95400677  1812.94175700
0.41800002 22295.09597327  1821.62090281
0.41900002 22349.55116568  1548.82396917
0.42000002 22407.74772457  1556.55426944
0.42100002 22469.66427906  1422.32981626
0.42200002 22534.01526373  2287.65333798
0.42300002 22600.71749790  1724.88684117
0.42400002 22669.92626799  1589.72865487
0.42500002 22742.22284439  1743.87373034
0.42600002 22815.49899147  1607.46605762
0.42700002 22892.26678906  1616.65195725
0.42800002 22970.34430243  1773.77007109
0.42900002 23051.33601508  1784.17349211
0.43000002 23133.89098615  1645.16673544
0.43100002 23216.72001594  1504.44352832
0.43200002 23302.42101230  2270.23847470
0.43300002 23388.87813414  2436.18566190
0.43400002 23477.24147516  2144.64611039
0.43500002 23566.17250321  1541.22775475
0.43600002 23656.97371502  1860.85764061
0.43700002 23748.11593151  1716.27641970
0.43800002 23839.53411354  2040.78341450
0.43900002 23932.86756391  1579.56933407
0.44000002 24026.06710724  1589.32441446
0.44100002 24120.10625173  1759.07943230
0.44200002 24214.41100458  2735.38106876
0.44300002 24309.25532260  1780.89612933
0.44400002 24403.87336583  1954.75034924
0.44500002 24498.21958458  2294.50335503
0.44600002 24592.45532551  1648.92420772
0.44700002 24687.50901687  2820.30116374
0.44800002 24781.22235194  2002.81848540
0.44900002 24875.19675964  2014.89103302
0.45000002 24969.05873067  1858.07259350
0.45100002 25061.35151205  2208.90762696
0.45200002 25153.55367159  1880.10245829
0.45300002 25244.51530470  1891.06673110
0.45400002 25334.95086375  2247.84362192
0.45500002 25424.71501667  2608.57588434
0.45600002 25512.89476774  2798.25443074
0.45700002 25600.36249012  2110.49398371
0.45800002 25686.21310437  2299.04461287
0.45900002 25770.70627265  2133.81458051
0.46000002 25854.45151348  2324.18602896
0.46100002 25935.74212651  2875.75522328
0.46200002 26016.18263990  1987.50636697
0.46300002 26094.91763058  1997.82698848
0.46400002 26171.41955291  2008.00226037
0.46500002 26247.26784797  2752.02616429
0.46600002 26320.13124082  2765.58792121
0.46700002 26391.24353424  1852.66538391
0.46800002 26461.09879222  1861.53838826
0.46900002 26528.11279733  2057.25524494
0.47000002 26593.18143036  2442.45086424
0.47100002 26656.39013575  2075.99976217
0.47200002 26717.46677553  2843.40653636
0.47300002 26776.20662796  2855.68257222
0.47400002 26831.91509906  2867.66106213
0.47500002 26885.79811913  2879.46911504
0.47600002 26937.93358502  2505.63201117
0.47700002 26986.45734546  2128.42199172
