# SAXS profile: number of points = 501, q_min = 0, q_max = 0.5, delta_q = 0.001
#    q    intensity    error
0.00000000 1700912.83420644 306.16431016
0.00100000 1700829.90858700 561.27388316
0.00200000 1700581.07825850 1147.89226417
0.00300000 1700166.57104688 1326.12997266
0.00400000 1699586.23847209 1274.68972729
0.00500000 1698840.61756038 2140.53926285
0.00600000 1697929.59267499 2852.52183183
0.00700000 1696853.74180194 2443.46948975
0.00800000 1695612.90019530 2746.89301429
0.00900000 1694208.29138352 3049.57505485
0.01000000 1692639.27343669 3630.71139829
0.01100000 1690907.21612550 3347.99643370
0.01200000 1689011.95073727 3622.93079317
0.01300000 1686954.72126548 3896.86557799
0.01400000 1684735.49601295 4169.72053748
0.01500000 1682355.73632160 5652.71552575
0.01600000 1679814.81044078 4711.88075392
0.01700000 1677115.04089401 5433.85297625
0.01800000 1674256.39206529 5248.79402531
0.01900000 1671239.52443936 7019.20631937
0.02000000 1668065.57037285 5779.84746280
0.02100000 1664736.62852400 6592.35734784
0.02200000 1661251.27304640 7450.71229812
0.02300000 1657612.64652990 6564.14637905
0.02400000 1653820.38313682 6822.00939151
0.02500000 1649877.05074375 9651.78118765
0.02600000 1645782.53630544 7998.50349228
0.02700000 1641539.15694300 9652.25068491
0.02800000 1637146.57104834 9970.22307491
0.02900000 1632607.67818074 13958.79628935
0.03000000 1627923.46661699 9083.81336126
0.03100000 1623094.42900823 8569.93897949
0.03200000 1618122.20407659 12014.55791864
0.03300000 1613010.39957507 10694.25944219
0.03400000 1607757.09386487 13505.16021160
0.03500000 1602365.79054973 10383.33080224
0.03600000 1596837.61023592 13293.67371956
0.03700000 1591174.50985650 11790.60366332
0.03800000 1585377.85136073 10201.90694565
0.03900000 1579449.82519821 12319.70920707
0.04000000 1573390.20413665 12579.25526498
0.04100000 1567203.21927481 10860.71881315
0.04200000 1560889.55813020 14094.83336382
0.04300000 1554450.19622363 12311.24612555
0.04400000 1547888.69110215 10448.24915018
0.04500000 1541206.31704543 13824.62130626
0.04600000 1534403.25830393 12981.05216870
0.04700000 1527483.71116809 10997.88323190
0.04800000 1520448.06722548 14527.88195829
0.04900000 1513300.48807581 11349.75418887
0.05000000 1506040.03534238 11521.20680687
0.05100000 1498671.65394849 15196.53127895
0.05200000 1491193.57179432 15411.48628269
0.05300000 1483611.97615657 15622.43483721
0.05400000 1475926.49599912 13394.03357581
0.05500000 1468140.03542503 12332.37687287
0.05600000 1460253.80700466 18727.75594875
0.05700000 1452272.58977455 12634.77212081
0.05800000 1444195.49409607 16615.46993539
0.05900000 1436025.27747692 15509.07372111
0.06000000 1427765.62449920 15676.86728941
0.06100000 1419417.91436605 17160.76338663
0.06200000 1410984.68255005 13333.80587337
0.06300000 1402468.27746720 16156.43531182
0.06400000 1393868.37608652 23103.36941410
0.06500000 1385191.02126353 15084.73092719
0.06600000 1376436.63457364 19366.46435458
0.06700000 1367607.54766755 18134.47693075
0.06800000 1358706.21321115 15468.87096149
0.06900000 1349735.61958384 25510.00440449
0.07000000 1340696.70231412 17134.10465794
0.07100000 1331592.28391554 20133.67627582
0.07200000 1322424.87222575 15928.60833216
0.07300000 1313197.56785601 16034.14305481
0.07400000 1303912.35530230 14669.01468460
0.07500000 1294570.80038977 19185.54016105
0.07600000 1285173.92513197 20781.26334362
0.07700000 1275727.85033850 19403.82151346
0.07800000 1266232.07133045 22507.27612340
0.07900000 1256689.00814049 18096.32256601
0.08000000 1247102.69358712 21213.21781305
0.08100000 1237474.16202034 19787.21277909
0.08200000 1227805.22759752 18343.41096108
0.08300000 1218099.32736943 21487.27314324
0.08400000 1208358.41335485 21569.19869081
0.08500000 1198584.26113843 21646.43277236
0.08600000 1188779.64086419 17064.93254583
0.08700000 1178947.78900141 20230.74500925
0.08800000 1169088.50184548 18728.79867914
0.08900000 1159206.85811879 17214.22265161
0.09000000 1149303.03640505 23531.98077582
0.09100000 1139379.63236718 18868.12759845
0.09200000 1129438.92123519 17331.24106069
0.09300000 1119485.60670475 18941.69735556
0.09400000 1109516.74164786 15810.61431154
0.09500000 1099537.74484772 19000.01312402
0.09600000 1089550.33399842 25364.73296782
0.09700000 1079558.81992907 17456.46693893
0.09800000 1069562.49706699 19059.60459387
0.09900000 1059564.82926480 20661.51514222
0.10000000 1049566.13259322 22261.29871919
0.10100000 1039569.17730770 22267.57282521
0.10200000 1029576.95508119 27041.83999716
0.10300000 1019590.51825718 22267.85796623
0.10400000 1009613.27486056 23852.11474071
0.10500000 999647.49612374 20662.71471705
0.10600001 989690.40958298 17472.98500335
0.10700001 979750.00414844 20633.53605833
0.10800001 969824.61675139 20613.62319916
0.10900001 959918.11224091 20590.24447666
0.11000001 950030.56799824 30054.21843326
0.11100001 940164.76191749 18953.72249247
0.11200001 930322.01093629 15768.95882773
0.11300001 920504.39399995 15740.62587848
0.11400001 910713.97359271 21993.74349783
0.11500001 900952.78740206 23514.86885846
0.11600001 891221.15866983 21897.30489969
0.11700001 881522.78751045 20283.84029588
0.11800001 871856.14919782 20231.42289500
0.11900001 862224.78597808 18624.05625435
0.12000001 852629.20536377 21665.30912884
0.12100001 843074.56502825 21599.57137354
0.12200001 833558.34056171 24606.64337263
0.12300001 824084.57115021 35254.33961479
0.12400001 814651.92793492 15274.72436849
0.12500001 805263.19216468 18263.37005887
0.12600001 795921.72734206 18194.77154444
0.12700001 786626.23372565 18123.86927915
0.12800001 777378.80721928 18050.73675435
0.12900001 768181.26186508 17975.44237486
0.13000001 759034.57479239 17898.03611723
0.13100001 749938.83798478 14848.78969204
0.13200001 740897.28763103 17737.08190202
0.13300001 731909.98708468 17653.66972073
0.13400001 722977.27939534 26352.52307637
0.13500001 714102.06742518 16024.45114855
0.13600001 705284.06593729 14493.58823839
0.13700001 696525.21088681 21627.10881782
0.13800001 687823.89856649 22945.80633820
0.13900001 679185.32271935 15689.18169469
0.14000001 670606.77293304 25530.00104957
0.14100001 662091.97585291 18333.32767602
0.14200001 653639.53375708 21030.85299056
0.14300001 645252.40920117 16724.94323537
0.14400001 636926.79226590 23550.36925490
0.14500001 628669.83279245 15144.65698638
0.14600001 620478.20213956 15049.69950285
0.14700001 612355.04101421 16313.13906222
0.14800001 604297.21473386 21609.66941840
0.14900001 596308.63240955 16100.33383468
0.15000001 588388.45267989 14659.69899021
0.15100001 580538.08848640 14559.89594625
0.15200001 572758.41166776 13144.80616804
0.15300001 565049.39597107 13052.64166287
0.15400001 557409.11832184 15551.71513508
0.15500001 549842.17652631 18012.83055308
0.15600001 542345.09626054 14049.45038169
0.15700001 534923.12214052 12677.67859308
0.15800001 527570.22214203 15099.06047036
0.15900001 520292.65848908 18730.53658970
0.16000001 513085.57863578 16108.32250162
0.16100001 505954.24571988 17212.56425190
0.16200001 498895.85389062 12198.00420345
0.16300001 491910.70583629 12101.00393483
0.16400001 485000.20613742 13204.13123545
0.16500001 478162.77023907 13096.87889517
0.16600001 471400.42805512 15351.15566439
0.16700001 464710.99970783 12881.78952011
0.16800001 458096.07278076 13935.28319196
0.16900001 451556.98344170 12666.17398361
0.17000001 445090.63888448 17124.86313971
0.17100001 438699.20790416 11318.44009840
0.17200001 432381.41489216 16830.44736946
0.17300001 426138.33378868 13346.65324455
0.17400001 419969.69404094 13229.04598704
0.17500001 413874.03662426 16389.41262435
0.17600001 407850.95086968 12994.13190841
0.17700001 401904.48279161 11803.93521710
0.17800001 396029.33190361 14886.74328939
0.17900001 390227.19165705 17911.42894308
0.18000001 384499.56742866 11483.08012366
0.18100001 378844.91913689 11376.71345908
0.18200001 373260.40761415 12295.19840761
0.18300001 367749.04997953 13194.83653658
0.18400001 362309.29789838 15081.12523746
0.18500001 356941.51789201 11950.40258359
0.18600001 351645.13312015 14795.46967502
0.18700001 346418.38260313 11722.79862113
0.18800001 341260.82160824 14512.11712453
0.18900001 336176.77883265 14371.55797412
0.19000001 331158.16556123 11385.21826993
0.19100001 326211.31526747 14092.32948542
0.19200001 321331.32772691 10232.79661498
0.19300001 316521.61907985 10131.85750550
0.19400001 311777.54953771 13679.24063236
0.19500001 307101.53592951 13543.17837448
0.19600001 302490.75825090 13407.90349308
0.19700001 297948.31792821 11503.78509885
0.19800001 293469.97284746 11388.10283453
0.19900001 289057.09059705 9538.88444051
0.20000001 284707.13162121 8583.92042407
0.20100001 280422.87685856 8496.81357039
0.20200001 276200.38468819 15979.57401139
0.20300001 272041.23997673 9156.90857041
0.20400001 267944.36633541 15654.65034308
0.20500001 263908.25225509 8970.24191815
0.20600001 259932.81297036 8070.91422423
0.20700001 256017.79860828 9585.30683298
0.20800001 252161.90166478 9486.33118905
0.20900001 248367.17645229 10170.63635650
0.21000001 244627.75265879 9290.96248519
0.21100001 240947.57672787 9194.55996259
0.21200001 237323.06029542 11373.70820234
0.21300001 233754.81233831 12756.00071235
0.21400001 230242.69433030 8910.39269183
0.21500001 226786.30943526 8817.45212771
0.21600001 223382.49722902 10179.54088000
0.21700001 220033.07278119 7914.59000214
0.21800001 216736.44254182 10679.68871119
0.21900001 213490.96819555 10567.80342534
0.22000001 210296.75884026 9062.73925073
0.22100001 207154.65220740 8277.90029362
0.22200001 204062.32807717 8191.06223633
0.22300001 201018.82632175 10806.77261406
0.22400001 198023.14936774 10024.92241078
0.22500001 195077.98681442 6613.14406573
0.22600001 192177.83459147 6543.65557728
0.22700001 189325.59657650 7122.42928002
0.22800001 186518.21199038 6406.90088485
0.22900001 183756.10738397 6339.58600455
0.23000001 181038.81100198 6900.29460767
0.23100001 178366.29173888 8690.00614449
0.23200001 175735.38948387 7984.53779882
0.23300001 173148.09947943 9723.99772666
0.23400001 170601.29629727 7216.43517468
0.23500001 168095.86579712 7140.71271679
0.23600001 165631.28124641 8832.28849021
0.23700001 163206.22006480 6409.10856508
0.23800001 160820.02435682 6918.47777507
0.23900001 158472.69794539 6846.02087505
0.24000001 156162.45921155 6209.80048427
0.24100001 153890.52806977 6703.47171980
0.24200001 151655.10702499 8844.52626006
0.24300001 149454.83523626 5470.04722840
0.24400001 147289.94593386 5954.19634603
0.24500001 145159.25114562 9105.84025511
0.24600001 143062.77833118 5830.52380670
0.24700001 141000.49015726 6294.26217838
0.24800001 138970.60688342 6228.66289517
0.24900001 136971.55932317 6677.36383289
0.25000001 135005.64498414 7116.14788377
0.25100001 133069.88954072 8551.07150643
0.25200001 131166.51758266 5973.32349331
0.25300001 129291.25939320 6896.39610230
0.25400001 127446.54818561 6824.76297823
0.25500001 125628.81137378 5306.56124349
0.25600001 123841.04767499 5251.47987512
0.25700001 122079.98189059 4724.49552270
0.25800001 120346.06925890 4675.44501192
0.25900001 118640.03211809 6477.74606014
0.26000001 116959.07886224 4578.94815411
0.26100001 115303.60585447 5437.71830939
0.26200001 113674.40796418 4484.45560638
0.26300001 112068.65379195 4881.71079017
0.26400001 110487.93867194 4391.89577003
0.26500001 108931.06141894 5650.25442316
0.26600001 107396.94761271 4731.37275096
0.26700001 105886.21439382 4682.28862206
0.26800001 104398.20904779 4633.71472786
0.26900001 102931.21093682 4585.58566423
0.27000001 101486.48981590 4537.96860686
0.27100001 100062.75913802 6532.09722565
0.27200001 98660.40938325  6464.23032870
0.27300001 97278.32463137  4797.76719787
0.27400001 95914.67744501  5934.72094777
0.27500001 94572.95519104  5089.91668926
0.27600001 93248.30411510  5036.80738515
0.27700001 91944.47294942  4600.90164413
0.27800001 90657.91386605  4552.84064983
0.27900001 89390.14334285  5256.14067732
0.28000001 88139.79122884  4086.60161374
0.28100001 86907.22459295  4411.41092913
0.28200001 85692.33813414  5456.45988894
0.28300001 84494.31581557  3599.45802411
0.28400001 83312.27432759  3561.59989608
0.28500001 82147.29578496  4228.94298717
0.28600001 80998.09005335  4184.36153021
0.28700001 79865.38566989  4485.24027152
0.28800001 78746.58378297  4096.39748229
0.28900001 77645.10096049  4053.07446198
0.29000001 76557.47756417  4010.08086463
0.29100001 75485.36257046  4298.13674821
0.29200001 74427.47103847  4252.41375907
0.29300001 73384.32766727  4207.12370431
0.29400001 72354.47965606  3201.68587634
0.29500001 71339.80221746  4434.48231575
0.29600001 70337.66984487  3446.89767392
0.29700001 69349.49448531  3099.92255024
0.29800001 68374.98876659  3066.61839135
0.29900001 67413.97424660  4247.08057859
0.30000001 66464.71038907  4501.32272419
0.30100001 65529.59554465  4155.88714618
0.30200001 64606.00164075  3229.97720494
0.30300001 63695.81018626  3194.98199020
0.30400001 62797.63226742  4309.48771837
0.30500001 61912.19032145  2841.76967029
0.30600001 61037.41133634  3372.92751013
0.30700001 60175.65765695  3058.12706691
0.30800001 59325.36282850  3299.67683674
0.30900001 58486.98709421  2991.60953150
0.31000001 57660.21223824  2689.84902826
0.31100001 56844.18490139  4522.52356487
0.31200001 56040.40043701  3157.31631011
0.31300001 55246.95012114  2862.34462130
0.31400001 54466.11801712  2830.87661797
0.31500001 53694.63047433  2799.63816549
0.31600002 52935.64923323  3523.92633631
0.31700002 52186.66852657  3485.02588921
0.31800002 51448.23009113  2707.97771907
0.31900002 50721.13274701  2921.53738456
0.32000002 50004.94804897  3370.83370759
0.32100002 49298.48267857  3809.78692179
0.32200002 48603.60779421  2825.81389096
0.32300002 47917.57573222  3493.19143628
0.32400002 47243.32743059  3454.66848194
0.32500002 46578.45979005  2505.45547074
0.32600002 45924.16293328  2703.09635825
0.32700002 45280.17817981  3341.67730791
0.32800002 44647.14525896  3525.33875658
0.32900002 44022.25003437  2179.10147989
0.33000002 43408.67182504  2586.28878981
0.33100002 42804.01065263  3197.45974717
0.33200002 42210.79484413  3162.64395346
0.33300002 41626.55009663  3545.33343962
0.33400002 41052.70340917  2475.47813280
0.33500002 40488.50451634  2448.74486911
0.33600002 39933.53241531  2624.23220695
0.33700002 39388.25306809  2596.07988266
0.33800002 38853.46819036  2173.26884615
0.33900002 38327.49101570  2150.17234781
0.34000002 37811.19757225  2127.44713215
0.34100002 37304.74210631  2870.60004103
0.34200002 36808.23626583  2272.54061468
0.34300002 36320.42042117  2061.54716074
0.34400002 35842.82882203  1854.86647939
0.34500002 35374.29045047  2570.29606586
0.34600002 34915.81806922  2726.05262486
0.34700002 34465.32390911  2878.54398922
0.34800002 34025.09915948  1781.21402536
0.34900002 33593.63316480  1940.03240715
0.35000002 33171.83003487  2095.79632086
0.35100002 32759.74067786  2594.57158457
0.35200002 32355.24375610  1884.53126183
0.35300002 31961.18869881  2036.56704035
0.35400002 31575.38958940  1849.52853280
0.35500002 31199.08509072  2165.84058958
0.35600002 30831.44313390  2476.53578703
0.35700002 30472.45904741  2127.28246686
0.35800002 30122.97234445  1622.12213758
0.35900002 29782.59690412  1608.26030900
0.36000002 29450.72332603  1913.70809237
0.36100002 29127.09329151  1581.60124064
0.36200002 28813.59325193  2196.46031763
0.36300002 28507.17234346  1712.14085205
0.36400002 28210.02265747  2162.29833912
0.36500002 27920.71582830  1686.13210874
0.36600002 27640.70268175  1673.78283018
0.36700002 27368.56532617  1510.74487757
0.36800002 27105.60792446  2250.44320453
0.36900002 26850.54735424  1639.22599363
0.37000002 26603.22031488  2072.65699291
0.37100002 26364.12407945  1912.45365132
0.37200002 26133.79940241  1900.84198958
0.37300002 25911.11815784  1744.33655702
0.37400002 25696.29996110  2023.58371780
0.37500002 25489.52067479  2731.45716490
0.37600002 25290.86223246  1573.21815970
0.37700002 25099.74637861  1565.47125579
0.37800002 24916.04814288  1558.12514443
0.37900002 24740.96544250  1551.25860673
0.38000002 24572.54032347  1685.18489522
0.38100002 24410.90057102  1678.49360278
0.38200002 24257.88523724  1951.06180206
0.38300002 24111.45126900  1666.58359067
0.38400002 23972.47513300  1522.85155497
0.38500002 23840.00266686  1932.47070773
0.38600002 23715.53949243  1789.69327258
0.38700002 23597.07917279  2197.36011667
0.38800002 23485.41534420  1644.44886031
0.38900002 23380.63998100  1504.54425406
0.39000002 23282.99089617  1502.10222883
0.39100002 23190.98913398  1636.35627082
0.39200002 23106.36803134  1634.54455198
0.39300002 23027.17528587  2041.35918581
0.39400002 22955.56760161  1496.12918932
0.39500002 22888.69231742  2311.30025972
0.39600002 22828.07998958  2175.05956446
0.39700002 22772.95132339  1767.40883594
0.39800002 22724.80769420  1496.08778543
0.39900002 22681.09562882  1496.95238243
0.40000002 22643.55799193  1498.21108552
0.40100002 22610.94283351  1636.12790095
0.40200002 22584.22211960  1501.73792099
0.40300002 22562.54241696  1777.47717582
0.40400002 22545.98427092  1506.63547029
0.40500002 22533.92226297  1921.24230317
0.40600002 22527.69621306  1650.37910277
0.40700002 22525.55819983  1654.27707258
0.40800002 22527.91613567  1658.50526449
0.40900002 22534.64895966  1524.46907435
0.41000002 22546.38293532  2084.97686073
0.41100002 22562.13021036  1673.20765568
0.41200002 22581.01543605  1818.56216431
0.41300002 22605.49391181  1684.56148613
0.41400002 22632.91001326  1408.89871508
0.41500002 22664.17608421  1979.94251653
0.41600002 22698.06867803  1987.66996832
0.41700002 22736.94924332  1568.16746362
0.41800002 22779.72678544  1861.21766520
0.41900002 22823.76255318  2156.84566348
0.42000002 22871.61252251  1733.21087908
0.42100002 22923.28749189  1741.25300039
0.42200002 22977.28113999  2624.23540335
0.42300002 23033.74716073  1757.93566661
0.42400002 23092.77274845  1619.38076572
0.42500002 23154.99261852  1627.56450828
0.42600002 23218.24752622  1933.26747188
0.42700002 23284.88817578  1494.88989172
0.42800002 23353.00381746  2103.87221361
0.42900002 23424.01080472  1661.93364535
0.43000002 23496.75492223  1822.87833325
0.43100002 23569.71321800  1680.04923779
0.43200002 23645.59848656  1535.78169448
0.43300002 23722.33115604  1853.18859773
0.43400002 23801.02783912  2174.22399614
0.43500002 23880.34366546  2030.30691465
0.43600002 23961.58069879  2198.95436493
0.43700002 24043.16022732  1895.56284215
0.43800002 24125.14919769  2541.82583992
0.43900002 24209.10809793  1757.58133120
0.44000002 24292.91716452  2089.06951056
0.44100002 24377.64243519  1939.48532406
0.44200002 24462.74645911  1950.65949509
0.44300002 24548.31979482  2452.37726372
0.44400002 24633.89370115  1808.74373072
0.44500002 24719.19447419  1819.08560756
0.44600002 24804.37509575  1829.44677189
0.44700002 24890.54583956  2174.43818759
0.44800002 24975.26479575  2186.70941282
0.44900002 25060.49566423  2368.21695250
0.45000002 25145.59978351  2381.53986836
0.45100002 25229.24611657  1881.59726455
0.45200002 25312.80356027  2752.00813350
0.45300002 25395.14113029  2594.11378940
0.45400002 25477.10801835  2260.45651606
0.45500002 25558.47487254  1923.01974055
0.45600002 25638.26909237  2284.75445845
0.45700002 25717.48549451  1766.79133721
0.45800002 25795.12364805  2131.19321681
0.45900002 25871.39084823  2320.66386907
0.46000002 25947.02027544  2332.50749821
0.46100002 26020.27532194  3065.44878096
0.46200002 26092.73722068  2355.78289162
0.46300002 26163.71372916  2003.09401804
0.46400002 26232.37363527  2195.64977734
0.46500002 26300.49238938  2941.44720824
0.46600002 26365.73217826  2585.68747727
0.46700002 26429.20562594  2411.92941974
0.46800002 26491.60567930  1863.68454787
0.46900002 26551.10503135  2246.22359212
0.47000002 26608.88015688  2067.90921940
0.47100002 26664.78043543  2643.01316203
0.47200002 26718.66452054  1895.68933758
0.47300002 26770.29700612  2284.04184882
0.47400002 26818.95463905  2101.93566946
0.47500002 26865.82831004  2110.04225548
0.47600002 26911.12153082  2118.03992047
0.47700002 26952.82912049  2512.27332140
