# SAXS profile: number of points = 501, q_min = 0, q_max = 0.5, delta_q = 0.001
#    q    intensity    error
0.00000000 1682732.95097188 277.65093691
0.00100000 1682650.47694341 504.79515507
0.00200000 1682402.99349099 908.49764525
0.00300000 1681990.73515275 1513.79171556
0.00400000 1681413.56416716 1261.06022104
0.00500000 1680671.99438906 1815.12582579
0.00600000 1679765.91159772 2116.50513478
0.00700000 1678695.90659615 2820.20924029
0.00800000 1677461.82219985 2717.48826670
0.00900000 1676064.84945542 3268.32659615
0.01000000 1674504.37819724 2762.93234333
0.01100000 1672781.73959214 3312.10798860
0.01200000 1670896.81095469 3909.89870906
0.01300000 1668850.78976552 5256.88021961
0.01400000 1666643.67869142 3749.94844329
0.01500000 1664276.91755512 5591.97069199
0.01600000 1661749.88904743 6356.19360975
0.01700000 1659064.88219004 5375.37045943
0.01800000 1656221.86346590 6136.30228026
0.01900000 1653221.55050141 6943.53082542
0.02000000 1650064.99815799 5717.47547725
0.02100000 1646754.33646307 5977.71851238
0.02200000 1643288.13114467 7370.14760303
0.02300000 1639669.54091607 9444.49698557
0.02400000 1635898.18286919 6748.08031203
0.02500000 1631976.57515752 7637.65072055
0.02600000 1627904.67570075 9889.52135721
0.02700000 1623684.87129706 8183.37212614
0.02800000 1619316.63852355 9157.23601080
0.02900000 1614802.86479160 10173.25851528
0.03000000 1610144.70204018 11230.75981296
0.03100000 1605342.59933614 11558.46724706
0.03200000 1600398.04056144 14259.54719817
0.03300000 1595314.76878013 9763.32683503
0.03400000 1590090.90708137 9182.77541209
0.03500000 1584729.83566281 8557.54150775
0.03600000 1579232.77200280 8764.74228967
0.03700000 1573601.49540505 10763.43472635
0.03800000 1567837.55775280 9171.85013732
0.03900000 1561943.02552686 12183.15616331
0.04000000 1555917.70965657 11482.67322936
0.04100000 1549765.87031077 10739.87797922
0.04200000 1543488.13346417 10951.04881498
0.04300000 1537085.40731192 12173.71699099
0.04400000 1530561.45991554 14463.80646793
0.04500000 1523917.37163563 12618.03642344
0.04600000 1517153.42868904 12835.11860337
0.04700000 1510273.61447014 14136.16168888
0.04800000 1503278.71415149 12154.00896942
0.04900000 1496172.39802981 13465.55220906
0.05000000 1488954.12903129 13668.59954100
0.05100000 1481628.53332877 23113.40619664
0.05200000 1474194.16658528 11719.84417051
0.05300000 1466656.87779988 13067.91339040
0.05400000 1459016.50015080 18055.33003136
0.05500000 1451275.95183950 13409.79042055
0.05600000 1443436.13040683 12341.37949088
0.05700000 1435502.27593931 17484.41853709
0.05800000 1427473.19652249 16423.07989282
0.05900000 1419351.63767437 16606.41493641
0.06000000 1411141.31380573 16785.52671192
0.06100000 1402843.64599441 14351.09116917
0.06200000 1394461.11098071 14495.42392621
0.06300000 1385996.35797036 13305.56565862
0.06400000 1377448.44453323 16116.14755474
0.06500000 1368823.78584298 16261.62733650
0.06600000 1360122.91058235 13669.23589092
0.06700000 1351347.71429608 22053.99572942
0.06800000 1342501.11130308 13894.88715239
0.06900000 1333585.81946770 21003.97764000
0.07000000 1324602.97040607 18339.12898407
0.07100000 1315555.18117398 28415.99324430
0.07200000 1306445.00888014 14305.57351741
0.07300000 1297275.47101941 17279.71008363
0.07400000 1288048.58467046 17388.65670796
0.07500000 1278766.00274328 17493.51973749
0.07600000 1269428.79285426 14661.90324483
0.07700000 1260042.75415345 19165.25118930
0.07800000 1250607.72617399 19265.61292519
0.07900000 1241125.92764901 14893.51183035
0.08000000 1231601.55991610 20949.54351694
0.08100000 1222035.30998250 19540.34552342
0.08200000 1212429.26851178 18113.69412155
0.08300000 1202786.84757029 16670.62648971
0.08400000 1193109.84895281 19775.79667464
0.08500000 1183400.29737377 18319.03746334
0.08600000 1173660.66272106 36759.05368232
0.08700000 1163894.11208014 19972.42390115
0.08800000 1154100.72897404 21570.14363754
0.08900000 1144285.76997118 16992.64448221
0.09000000 1134448.55201633 20130.79050118
0.09100000 1124592.62119466 18623.25468193
0.09200000 1114719.79899354 17105.37611928
0.09300000 1104834.76640163 21809.43931364
0.09400000 1094934.57463047 17163.10026396
0.09500000 1085024.79765906 18749.22938481
0.09600000 1075106.84260002 17207.08582468
0.09700000 1065185.25246039 15658.22394730
0.09800000 1055259.34542145 15670.60201630
0.09900000 1045332.34319751 18815.98306233
0.10000000 1035404.85287640 18823.66111052
0.10100000 1025479.35143972 23534.75222242
0.10200000 1015559.09213606 20397.50532498
0.10300000 1005645.00368376 15688.06279544
0.10400000 995740.27119522 20387.78301187
0.10500000 985847.33084321 17242.47062770
0.10600001 975963.64449767 21929.90412374
0.10700001 966096.86256857 18780.92389212
0.10800001 956245.37569271 15634.61262837
0.10900001 946413.17774773 20300.56361815
0.11000001 936600.05283884 21832.14825930
0.11100001 926808.94158341 17127.43004671
0.11200001 917041.32653053 20207.00658139
0.11300001 907298.90043326 15514.81192786
0.11400001 897584.24119543 20128.32755654
0.11500001 887898.85124994 16994.38481316
0.11600001 878243.41261394 18495.80714064
0.11700001 868621.37439864 19986.97876620
0.11800001 859031.37652995 18400.45295190
0.11900001 849476.73535521 16819.64015227
0.12000001 839958.19612810 22867.86296678
0.12100001 830480.72683259 27356.03643056
0.12200001 821042.05366019 24237.16256589
0.12300001 811645.64086255 15096.60963131
0.12400001 802290.82885753 18051.54449984
0.12500001 792980.16712007 14987.32586478
0.12600001 783716.63404922 22394.70387327
0.12700001 774499.54753016 16357.43121470
0.12800001 765330.30395275 16290.05628737
0.12900001 756211.26549279 16220.73240934
0.13000001 747143.27152846 22022.04896631
0.13100001 738126.53328752 27768.32149121
0.13200001 729163.58767050 20365.53996368
0.13300001 720255.20747008 17372.55642317
0.13400001 711401.68865813 18727.65033685
0.13500001 702605.46668923 18633.09785512
0.13600001 693866.74104216 18536.65086096
0.13700001 685187.15157446 15601.71217702
0.13800001 676565.34613206 18338.30457167
0.13900001 668005.90221098 25250.62429435
0.14000001 659506.75602303 13948.56854771
0.14100001 651071.32265968 13867.81982670
0.14200001 642698.44230641 16543.05868523
0.14300001 634390.75990410 15073.12516628
0.14400001 626144.70327239 24513.56628942
0.14500001 617967.10713036 13533.48028456
0.14600001 609855.11342893 17481.49765112
0.14700001 601811.32494117 14696.23324838
0.14800001 593832.69609106 14599.37752218
0.14900001 585923.58193505 14501.60933709
0.15000001 578082.75059554 17021.64739442
0.15100001 570311.64389065 19504.65914139
0.15200001 562611.13974604 15494.31151974
0.15300001 554981.22046776 15384.08015733
0.15400001 547420.20805852 17818.52861318
0.15500001 539932.16885976 12634.41334757
0.15600001 532514.06815650 15048.84827633
0.15700001 525170.84072356 12446.54951259
0.15800001 517896.83213950 16057.39203837
0.15900001 510697.77386759 19610.79544216
0.16000001 503569.19877948 17025.67541439
0.16100001 496516.23900721 14478.41421289
0.16200001 489536.24257525 15559.91020478
0.16300001 482629.18195701 15434.48196761
0.16400001 475796.55859447 15308.75499550
0.16500001 469036.85763795 11679.01830657
0.16600001 462352.08055784 12740.11218127
0.16700001 455740.14964713 12633.11754469
0.16800001 449202.65934300 13664.74554241
0.16900001 442740.55563349 14676.85011226
0.17000001 436351.04082588 13430.88567082
0.17100001 430036.37507143 15532.91460106
0.17200001 423795.28504923 12097.23698300
0.17300001 417628.28534092 14170.12839079
0.17400001 411535.82074529 15123.94212663
0.17500001 405516.06477188 14987.87446181
0.17600001 399568.60880165 13791.11118413
0.17700001 393697.62158280 10511.72699274
0.17800001 387897.70306425 15622.58072880
0.17900001 382170.63953265 12382.32930572
0.18000001 376517.54092481 16355.92275035
0.18100001 370937.28311744 15189.88246118
0.18200001 365427.02948520 11034.06967653
0.18300001 359989.46833948 10929.28077508
0.18400001 354623.48436286 14761.20323393
0.18500001 349329.02500017 11695.53630953
0.18600001 344105.63490414 9652.16351506
0.18700001 338951.88223714 14337.66529601
0.18800001 333866.84855623 12304.66328489
0.18900001 328854.98457277 10309.60425346
0.19000001 323908.19466525 10207.96723719
0.19100001 319032.97528699 14701.04019585
0.19200001 314224.31005368 14554.87072942
0.19300001 309485.44554936 13509.04033657
0.19400001 304811.96098446 9807.32530811
0.19500001 300206.15858412 9708.66762739
0.19600001 295665.54090960 11357.99229078
0.19700001 291192.67621874 9513.26518164
0.19800001 286783.60818606 9416.54021980
0.19900001 282439.70827544 11015.14914332
0.20000001 278158.28576195 10063.76725449
0.20100001 273942.23542218 13280.72020095
0.20200001 269787.63899728 9036.53739531
0.20300001 265695.99839134 10569.38731557
0.20400001 261666.30256268 9655.48702094
0.20500001 257696.91553453 10351.68558631
0.20600001 253787.94046669 10244.15070116
0.20700001 249938.91809060 8577.90407434
0.20800001 246148.77356278 9260.11729916
0.20900001 242419.26016357 8399.82776174
0.21000001 238744.78752442 9067.52745882
0.21100001 235129.00759084 11963.36447177
0.21200001 231568.53995471 8138.47672145
0.21300001 228064.06389336 9517.11383620
0.21400001 224615.09261190 7968.22078712
0.21500001 221221.69978409 7884.34175306
0.21600001 217880.29469138 9219.60510576
0.21700001 214593.04481416 9122.35076635
0.21800001 211357.92186382 7637.41886765
0.21900001 208173.84706903 8930.65846152
0.22000001 205040.40116648 6797.08962005
0.22100001 201958.79265670 7397.75092481
0.22200001 198926.38220259 6654.08779931
0.22300001 195942.37572238 7242.03054914
0.22400001 193006.00880720 9119.53434737
0.22500001 190119.41013959 8378.56280105
0.22600001 187277.61982172 9565.20488472
0.22700001 184483.21878863 9463.98957140
0.22800001 181733.27875400 6242.53842041
0.22900001 179028.05594002 8647.05551083
0.23000001 176367.25226623 6111.12558003
0.23100001 173750.89975002 6651.18475698
0.23200001 171175.62788046 7777.36502057
0.23300001 168643.48640434 6511.32531802
0.23400001 166151.68737478 7613.90143405
0.23500001 163700.44124877 6953.99507315
0.23600001 161289.64815119 6307.23198927
0.23700001 158918.16880654 8510.06834210
0.23800001 156585.00248682 6736.28712560
0.23900001 154290.30379062 8331.67679878
0.24000001 152032.10245311 6595.15291637
0.24100001 149811.74066630 6525.79973210
0.24200001 147627.60755828 6457.23186004
0.24300001 145478.06185468 8519.19570519
0.24400001 143363.48922514 5268.60847825
0.24500001 141282.69612701 7298.66442718
0.24600001 139235.71452903 7222.15685427
0.24700001 137222.23415916 7657.00102830
0.24800001 135240.82372765 7071.74300726
0.24900001 133289.87750501 7997.39302864
0.25000001 131371.51248747 5440.75144706
0.25100001 129482.99167258 6362.79451181
0.25200001 127626.14558775 7749.45992671
0.25300001 125797.28063323 6710.02726643
0.25400001 123998.33480669 7588.69844920
0.25500001 122226.03729640 4693.48005424
0.25600001 120483.05222908 5109.08407150
0.25700001 118766.34164073 5055.88340286
0.25800001 117076.55574065 5003.26684630
0.25900001 115413.96963177 5401.37403433
0.26000001 113776.15810839 5790.63784091
0.26100001 112163.29676828 7052.82843450
0.26200001 110576.36495567 8288.25182743
0.26300001 109012.30774380 6043.64262729
0.26400001 107472.90775311 7262.48208506
0.26500001 105956.92581368 4650.44969402
0.26600001 104463.20773416 5438.87716804
0.26700001 102992.51961677 4968.35938142
0.26800001 101543.93637897 4507.02782946
0.26900001 100116.10795227 5676.58358952
0.27000001 98710.13438808  5216.33729859
0.27100001 97324.59469894  4367.92801679
0.27200001 95960.12251434  4322.52392322
0.27300001 94615.14899293  4277.55108840
0.27400001 93288.68704935  6157.05363664
0.27500001 91983.29617202  5331.35209844
0.27600001 90694.67071101  4522.03649566
0.27700001 89426.51185629  4474.90286507
0.27800001 88175.24544328  5535.20129467
0.27900001 86942.23966905  3651.57423892
0.28000001 85726.29673079  5058.70900950
0.28100001 84527.82094652  3933.07969479
0.28200001 83346.39966667  3891.86031664
0.28300001 82181.57383775  4901.30929566
0.28400001 81032.20261553  4849.77755608
0.28500001 79899.44682652  4113.22371731
0.28600001 78782.18698884  4069.88797248
0.28700001 77680.94813006  4362.56225348
0.28800001 76593.31047440  3652.35218285
0.28900001 75522.39271819  4927.83635811
0.29000001 74465.15509231  3575.44459100
0.29100001 73422.94007027  3537.51742003
0.29200001 72394.55432026  4454.43713818
0.29300001 71380.49951278  3777.45621303
0.29400001 70379.33324241  4048.57133641
0.29500001 69393.02274249  3389.15539118
0.29600001 68418.85115254  3657.67195576
0.29700001 67458.15827945  3618.45578140
0.29800001 66510.88158283  4772.82108832
0.29900001 65576.68424605  4426.42639615
0.30000001 64653.97732268  3211.03993574
0.30100001 63744.79996144  4908.98727742
0.30200001 62846.99241495  4570.23350477
0.30300001 61962.03570542  4238.20344289
0.30400001 61088.87159379  4751.18721314
0.30500001 60228.03320465  3870.25359696
0.30600001 59377.58519490  3554.63930598
0.30700001 58539.80476815  4327.26257333
0.30800001 57712.99696556  2674.99753600
0.30900001 56897.75833241  2910.32047649
0.31000001 56093.81788450  2878.45440102
0.31100001 55300.37508804  3623.28074731
0.31200001 54518.77337005  3327.55349019
0.31300001 53747.22181452  3037.79312078
0.31400001 52987.92652840  4005.88743521
0.31500001 52237.69792119  2723.67369857
0.31600002 51499.58779565  2448.80551563
0.31700002 50771.15736307  2906.14118506
0.31800002 50052.98066795  2874.04228604
0.31900002 49345.79274616  3552.89724595
0.32000002 48648.99881865  3279.42916564
0.32100002 47961.97222731  3243.18871558
0.32200002 47286.11316849  2291.01229149
0.32300002 46618.68901029  2492.23523250
0.32400002 45962.70153837  2464.74998670
0.32500002 45316.07981323  2659.14768936
0.32600002 44679.59694418  2410.68776727
0.32700002 44053.05546687  2384.15147476
0.32800002 43437.34914890  3001.08659481
0.32900002 42829.32875776  2544.06224868
0.33000002 42232.41186826  2306.52328341
0.33100002 41644.12885615  3318.20434439
0.33200002 41067.01285863  3076.94608414
0.33300002 40498.65462950  3043.47403953
0.33400002 39940.49751424  3411.91716173
0.33500002 39391.58519408  1985.33598780
0.33600002 38851.59049485  2160.34279177
0.33700002 38321.19856456  2331.46183108
0.33800002 37800.92275122  2114.39471422
0.33900002 37289.20271326  2091.92437128
0.34000002 36787.00664936  2446.15212299
0.34100002 36294.23497597  1861.89434244
0.34200002 35811.36561295  2210.99381765
0.34300002 35336.93410973  2005.72447506
0.34400002 34872.48735101  2346.04669765
0.34500002 34416.77045881  1964.85351855
0.34600002 33970.89224771  2298.64053281
0.34700002 33532.90914465  2625.62691038
0.34800002 33104.80769458  2252.94779436
0.34900002 32685.39548450  1887.58167863
0.35000002 32275.33969097  2209.08572978
0.35100002 31874.85138192  2356.18912575
0.35200002 31481.72240120  1666.95728010
0.35300002 31098.90018456  2311.89234922
0.35400002 30724.09993106  2454.08759823
0.35500002 30358.60355050  2107.49435830
0.35600002 30001.38565619  2249.20398918
0.35700002 29652.89442670  2707.01286043
0.35800002 29313.60040681  1578.53745667
0.35900002 28983.26299427  1878.11553099
0.36000002 28661.15640768  2328.00253948
0.36100002 28347.14609894  2462.80016973
0.36200002 28043.15306402  1985.03468366
0.36300002 27745.99113765  1666.42430666
0.36400002 27458.15607840  1653.66752815
0.36500002 27177.65929080  1641.25892231
0.36600002 26906.55628750  1481.20599379
0.36700002 26643.04043445  1470.69590165
0.36800002 26388.63539993  1752.73324629
0.36900002 26141.94549484  1886.14145680
0.37000002 25902.83599862  2018.09004825
0.37100002 25671.76052961  1718.98116649
0.37200002 25449.34417983  1708.66904917
0.37300002 25234.50434985  1840.35248941
0.37400002 25027.25109519  1548.56123487
0.37500002 24828.03104127  2520.54183071
0.37600002 24636.74286261  1671.84944985
0.37700002 24452.83913106  1802.41885773
0.37800002 24276.33648378  1794.14273283
0.37900002 24108.22261762  1511.58562973
0.38000002 23946.70617403  1505.40975495
0.38100002 23791.77332654  1499.59554381
0.38200002 23645.41764715  1630.11516982
0.38300002 23505.42320341  2030.86866098
0.38400002 23372.89300433  1349.78463495
0.38500002 23246.71467418  2153.57574944
0.38600002 23128.52017413  1476.87172569
0.38700002 23016.13114996  1607.44667567
0.38800002 22910.55490296  1604.19713030
0.38900002 22811.64191495  1334.48111525
0.39000002 22719.76752097  1599.01731388
0.39100002 22633.55212710  1730.10880656
0.39200002 22554.47335691  1329.58626738
0.39300002 22480.87397111  1727.20562903
0.39400002 22414.67667608  1726.49055277
0.39500002 22353.30179115  1593.34342716
0.39600002 22297.93295368  1726.19456139
0.39700002 22248.03308344  1461.02840181
0.39800002 22204.98762716  1594.76228694
0.39900002 22166.38234699  1595.97960460
0.40000002 22133.83883197  1464.48551570
0.40100002 22106.18488815  1333.00301191
0.40200002 22084.35812483  1601.99941428
0.40300002 22067.42642411  1471.01471513
0.40400002 22055.58794266  2143.80324960
0.40500002 22048.20080689  1611.28259131
0.40600002 22046.65992898  1749.73324817
0.40700002 22048.99711253  2159.03789956
0.40800002 22055.95193418  1623.75925833
0.40900002 22067.09383470  1357.12633514
0.41000002 22083.18064911  1633.71378183
0.41100002 22103.25264487  1639.17729381
0.41200002 22126.44935164  2056.10040342
0.41300002 22155.19976505  1651.00556472
0.41400002 22186.84046236  1519.24397265
0.41500002 22222.29284848  1525.33825339
0.41600002 22260.39225149  1949.34264183
0.41700002 22303.40294856  1817.95046048
0.41800002 22350.15128560  1685.64848983
0.41900002 22398.22953834  1552.19738056
0.42000002 22450.08261772  2126.58417673
0.42100002 22505.61684364  1424.60561371
0.42200002 22563.61483200  2004.32600050
0.42300002 22623.93831006  1870.54730811
0.42400002 22686.88764821  1446.28915611
0.42500002 22752.94068256  2035.47816991
0.42600002 22819.97241019  2338.59088341
0.42700002 22890.49144361  2057.39746844
0.42800002 22962.31200129  1625.38733203
0.42900002 23037.04455473  1931.65627745
0.43000002 23113.50686027  1942.57477612
0.43100002 23190.18407261  2103.81359876
0.43200002 23269.75845582  1511.37088333
0.43300002 23350.16763881  2432.15357651
0.43400002 23432.56838379  1987.66770735
0.43500002 23515.43795929  2460.65554467
0.43600002 23600.39255481  1547.00580528
0.43700002 23685.53123831  2178.59526654
0.43800002 23771.12767128  2034.92748073
0.43900002 23858.64558424  2676.94016141
0.44000002 23946.09582119  2059.24460773
0.44100002 24034.42882413  2708.92060114
0.44200002 24123.08435331  2244.17064374
0.44300002 24212.25231270  1773.78968849
0.44400002 24301.38737363  1946.54122088
0.44500002 24390.18627855  2610.72566298
0.44600002 24478.97052569  1969.57806184
0.44700002 24568.61381629  1816.11201937
0.44800002 24656.99835504  1826.71380970
0.44900002 24745.67054865  2672.53254591
0.45000002 24834.30774842  2352.05739832
0.45100002 24921.46857007  2027.61077895
0.45200002 25008.50655611  2039.19372123
0.45300002 25094.47703250  2050.72076029
0.45400002 25179.94632513  3093.35655265
0.45500002 25264.83782189  2246.54948559
0.45600002 25348.17006646  1911.37885445
0.45700002 25430.91649068  2620.65606857
0.45800002 25512.02662774  2107.80373988
0.45900002 25591.94428170  2295.59751087
0.46000002 25671.10827954  2307.70438816
0.46100002 25747.94601639  2141.19929220
0.46200002 25824.00533064  1972.82498074
0.46300002 25898.39017322  1982.78084564
0.46400002 25970.64629095  1992.59793111
0.46500002 26042.31474558  2548.50104179
0.46600002 26111.10823162  2377.80818381
0.46700002 26178.20712682  2021.48125014
0.46800002 26244.16261401  2030.90462014
0.46900002 26307.28581396  1854.66373779
0.47000002 26368.62275676  2049.23761467
0.47100002 26428.05584839  2432.43837558
0.47200002 26485.60650975  2442.90003221
0.47300002 26540.77308321  2453.16377235
0.47400002 26593.01224954  1894.75221259
0.47500002 26643.52981328  2663.28736637
0.47600002 26692.50407668  2864.77313581
0.47700002 26737.74390749  2492.22522774
