# SAXS profile: number of points = 501, q_min = 0, q_max = 0.5, delta_q = 0.001
#    q    intensity    error
0.00000000 1682732.95097188 252.40994265
0.00100000 1682650.47441685 605.75418518
0.00200000 1682402.98295565 832.78950293
0.00300000 1681990.71431892 1009.19446454
0.00400000 1681413.51797858 1639.37824232
0.00500000 1680671.91734599 1815.12574258
0.00600000 1679765.80440653 2292.88041636
0.00700000 1678695.77139448 2417.32201127
0.00800000 1677461.63657014 3170.40262697
0.00900000 1676064.62056299 2765.50674215
0.01000000 1674504.09628139 2762.93187817
0.01100000 1672781.40397985 4215.40932157
0.01200000 1670896.40690521 4887.37220448
0.01300000 1668850.29593846 4205.50293125
0.01400000 1666643.13575623 4499.93666603
0.01500000 1664276.28524942 5192.54224120
0.01600000 1661749.18307729 5932.44484879
0.01700000 1659064.06752071 5823.31513822
0.01800000 1656220.94321546 6136.29887073
0.01900000 1653220.51546017 4959.66177017
0.02000000 1650063.89874125 7276.78212262
0.02100000 1646753.11901217 7064.57120086
0.02200000 1643286.79413019 9637.87748544
0.02300000 1639668.10381188 7083.36653089
0.02400000 1635896.58619985 9201.91871696
0.02500000 1631974.87020855 8274.11296984
0.02600000 1627902.84848868 7252.30752173
0.02700000 1623682.86615671 8183.36202024
0.02800000 1619314.47257549 9861.62559023
0.02900000 1614800.59736483 10899.90453267
0.03000000 1610142.24008893 7487.16176056
0.03100000 1605340.00389184 10787.88532254
0.03200000 1600395.26541842 11090.73970017
0.03300000 1595311.83814639 8949.69982459
0.03400000 1590087.91335825 10852.35050940
0.03500000 1584726.58411933 10269.02873930
0.03600000 1579229.35141230 12270.61262754
0.03700000 1573597.85797260 10763.40984631
0.03800000 1567833.72800227 11006.19327994
0.03900000 1561939.00669515 13120.28826384
0.04000000 1555913.58610622 11482.64279756
0.04100000 1549761.53092618 13668.89733655
0.04200000 1543483.53728192 10951.01620506
0.04300000 1537080.67788616 13188.15282843
0.04400000 1530556.46077324 13430.63356703
0.04500000 1523912.19884440 13669.49305879
0.04600000 1517148.03332077 10695.89413213
0.04700000 1510268.07387957 10873.93063766
0.04800000 1503272.95132442 12153.96237696
0.04900000 1496166.42545795 13465.49845591
0.05000000 1488947.85375300 13668.54193394
0.05100000 1481622.15211309 11556.65332484
0.05200000 1474187.48711818 18751.66570999
0.05300000 1466650.02999665 13067.85237647
0.05400000 1459009.40791698 13240.51099430
0.05500000 1451268.59872164 12190.65679795
0.05600000 1443428.63639442 14809.57850048
0.05700000 1435494.49983108 17484.32382409
0.05800000 1427465.19940260 15159.68112550
0.05900000 1419343.40316739 12774.09122513
0.06000000 1411132.89625732 20658.98656637
0.06100000 1402835.00082725 14351.00272910
0.06200000 1394452.20302664 14495.33132802
0.06300000 1385987.18235939 13305.47757275
0.06400000 1377439.07013003 20145.04734277
0.06500000 1368814.19179696 14906.38724596
0.06600000 1360113.11443619 21870.61990343
0.06700000 1351337.67804185 13783.64496109
0.06800000 1342490.87040222 20842.17173860
0.06900000 1333575.42617941 19603.55968265
0.07000000 1324592.31031956 16928.29051861
0.07100000 1315544.21517409 17049.45382721
0.07200000 1306433.76588351 21458.17560988
0.07300000 1297264.07189359 15839.59505999
0.07400000 1288036.96788276 17388.49988131
0.07500000 1278754.22069824 17493.35855911
0.07600000 1269416.80302963 14661.76476234
0.07700000 1260030.50997636 19165.06495536
0.07800000 1250595.33635925 23711.28868934
0.07900000 1241113.31811647 20850.70472233
0.08000000 1231588.74946186 20949.32561110
0.08100000 1222022.35116912 18037.05074952
0.08200000 1212416.04644690 15094.58048658
0.08300000 1202773.43130382 15154.94594568
0.08400000 1193096.21835998 16733.17524793
0.08500000 1183386.47563214 25951.66662892
0.08600000 1173646.51838887 16847.69656250
0.08700000 1163879.94412914 18435.85918071
0.08800000 1154086.37332076 16947.75918815
0.08900000 1144271.08068348 16992.42634628
0.09000000 1134433.88806522 20130.53028936
0.09100000 1124577.74888517 23278.76049559
0.09200000 1114704.64142306 20215.16962205
0.09300000 1104819.55876297 18693.54781272
0.09400000 1094919.14615351 21843.63799236
0.09500000 1085009.19818608 17186.54650708
0.09600000 1075091.14464458 15642.57688990
0.09700000 1065169.35096827 15657.99019536
0.09800000 1055243.20411482 17237.39854968
0.09900000 1045316.23305753 18815.69307980
0.10000000 1035388.53506781 21960.59186153
0.10100000 1025463.05985600 17258.54410908
0.10200000 1015542.61377950 20397.17435717
0.10300000 1005628.22192270 23531.70149994
0.10400000 995723.48967549 21955.70398025
0.10500000 985830.44970359 17242.17537655
0.10600001 975946.67199333 17230.33930479
0.10700001 966079.78633203 20345.64125757
0.10800001 956228.23121517 17197.76554776
0.10900001 946395.89586056 18738.63961999
0.11000001 936582.68735240 15594.10247842
0.11100001 926791.49310418 17127.10759880
0.11200001 917023.84523662 15543.55490851
0.11300001 907281.51724006 20168.86907781
0.11400001 897566.63186579 21676.23518017
0.11500001 887881.30200997 18538.96245893
0.11600001 878225.87088728 18495.43771186
0.11700001 868603.63227044 23061.42752286
0.11800001 859013.64340000 19933.41253393
0.11900001 849458.98734212 18348.31499083
0.12000001 839940.50081745 15244.92080795
0.12100001 830463.02941367 22796.21123129
0.12200001 821024.29385645 19692.26861588
0.12300001 811627.93607240 16605.90835442
0.12400001 802273.13565159 16546.88420246
0.12500001 792962.34481575 19483.08573018
0.12600001 783698.96319090 17915.35914278
0.12700001 774481.78048176 20818.07124043
0.12800001 765312.71212646 16289.68184533
0.12900001 756193.73769539 16220.35643807
0.13000001 747125.81859438 16149.12533010
0.13100001 738108.99515338 14614.55879293
0.13200001 729146.10496793 16001.11202782
0.13300001 720237.93012064 15924.46138569
0.13400001 711384.32485754 15846.08658328
0.13500001 702588.33040154 18632.64340074
0.13600001 693849.52246799 28517.21671804
0.13700001 685170.03567183 21274.53061077
0.13800001 676548.32038408 14106.03314519
0.13900001 667989.08650928 14027.77147822
0.14000001 659490.07703916 16737.85894462
0.14100001 651054.77109946 22187.94764552
0.14200001 642681.99681512 20678.29422282
0.14300001 634374.36796956 15072.73569390
0.14400001 626128.61284965 21789.27675497
0.14500001 617951.05704290 16239.75454515
0.14600001 609839.18418073 13446.95464554
0.14700001 601795.61565081 16031.83595726
0.14800001 593817.17558526 14598.99595052
0.14900001 585908.25004524 15819.52349760
0.15000001 578067.53893645 20949.16859950
0.15100001 570296.58055794 16903.59144533
0.15200001 562596.51929376 15493.90887246
0.15300001 554966.57660719 12819.72852458
0.15400001 547405.88132284 13999.90607550
0.15500001 539917.98222659 21477.93834658
0.15600001 532500.03004073 13794.41392923
0.15700001 525157.12976226 14935.46947535
0.15800001 517883.27386323 12351.51666461
0.15900001 510684.45142244 13482.07015391
0.16000001 503556.10513094 18241.32076940
0.16100001 496503.46013501 15684.54504604
0.16200001 489523.52751213 11968.85081267
0.16300001 482616.74862586 15434.08434966
0.16400001 475784.42778459 12953.23165795
0.16500001 469025.03826215 11678.72400410
0.16600001 462340.48645064 12739.79270563
0.16700001 455728.91541468 12632.80613175
0.16800001 449191.65047163 17080.51331566
0.16900001 442729.80361385 13547.53263027
0.17000001 436340.60958615 11192.13716437
0.17100001 430026.19492257 15532.54689407
0.17200001 423785.31679814 17595.56718437
0.17300001 417618.72590733 14169.80403920
0.17400001 411526.57468988 18364.37426281
0.17500001 405507.15356996 11775.92829582
0.17600001 399559.98697385 15912.47723277
0.17700001 393689.28342761 13664.95567318
0.17800001 387889.57811410 11456.31923071
0.17900001 382162.78964652 14445.75413096
0.18000001 376510.10800106 13288.92488960
0.18100001 370930.10371520 10126.39230976
0.18200001 365420.23074905 11033.86438868
0.18300001 359983.02315541 13909.74467181
0.18400001 354617.36374281 9840.63230874
0.18500001 349323.21649812 10720.73002080
0.18600001 344100.22766301 9652.01184194
0.18700001 338946.74218653 11469.95829749
0.18800001 333862.06797563 17036.98213373
0.18900001 328850.51600620 11246.68817879
0.19000001 323904.14222148 12063.81034704
0.19100001 319029.22113851 12863.25880409
0.19200001 314220.82505616 11825.70130977
0.19300001 309482.31284849 9906.52930239
0.19400001 304809.31337869 12481.94197268
0.19500001 300203.90264218 14121.59224761
0.19600001 295663.54554871 11357.91563899
0.19700001 291191.05892990 11242.88731659
0.19800001 286782.26823763 11984.63155603
0.19900001 282438.76278598 9320.47961242
0.20000001 278157.65166852 9225.09895358
0.20100001 273942.00825419 9130.48756664
0.20200001 269787.73639254 9858.04435371
0.20300001 265696.40120660 8943.34128732
0.20400001 261667.09299315 8850.88983884
0.20500001 257698.10042651 8759.15884752
0.20600001 253789.39257694 8668.17711319
0.20700001 249940.83575121 9357.78533286
0.20800001 246150.88263922 12346.92885682
0.20900001 242421.70683884 9927.16936432
0.21000001 238747.56626124 12090.17732700
0.21100001 235132.16255134 8224.92343487
0.21200001 231572.02835831 14057.58064606
0.21300001 228067.84262021 8785.17371305
0.21400001 224619.22518847 10141.55849672
0.21500001 221226.18704607 8601.27455900
0.21600001 217885.14507615 7801.37798829
0.21700001 214598.09250055 7719.09375220
0.21800001 211363.37972553 7637.61608749
0.21900001 208179.65730095 8930.90772048
0.22000001 205046.51699699 7477.02159583
0.22100001 201965.16053322 6725.44016376
0.22200001 198933.05474269 9981.46649368
0.22300001 195949.33647932 9875.84702554
0.22400001 193013.21095249 8468.45503098
0.22500001 190126.98141122 9667.95746193
0.22600001 187285.49354850 7652.48562826
0.22700001 184491.32428854 9464.40538357
0.22800001 181741.73230607 8115.67743992
0.22900001 179036.71997785 7412.12055761
0.23000001 176376.26276576 8556.01291140
0.23100001 173760.14565277 9674.96536750
0.23200001 171185.11848652 8376.08824368
0.23300001 168653.26287683 5919.72980695
0.23400001 166161.66231084 7614.35853552
0.23500001 163710.71788000 9852.11146799
0.23600001 161300.13097905 6307.64192027
0.23700001 158928.94956654 7375.89289825
0.23800001 156595.99791422 6736.76014891
0.23900001 154301.45275756 10554.21986783
0.24000001 152043.52672119 5496.37375095
0.24100001 149823.38216249 7070.16573868
0.24200001 147639.35609400 5919.60026260
0.24300001 145490.04349625 5324.93584385
0.24400001 143375.72696619 7376.68150135
0.24500001 141295.03325876 5213.78697388
0.24600001 139248.23084816 5675.06191668
0.24700001 137234.92164567 6126.16719207
0.24800001 135253.69314696 5556.89824582
0.24900001 133302.98756858 6998.40717843
0.25000001 131384.75257876 6430.62701919
0.25100001 129496.30522286 4894.96056900
0.25200001 127639.69283918 6781.49720138
0.25300001 125810.90383167 7669.43306042
0.25400001 124011.99718139 5692.15093993
0.25500001 122239.83498463 4694.00988549
0.25600001 120497.03455327 5574.19308216
0.25700001 118780.43328675 7354.88477710
0.25800001 117090.78251517 5458.77253913
0.25900001 115428.18192298 4951.86923879
0.26000001 113790.50412699 5791.36798156
0.26100001 112177.64720243 7053.73078984
0.26200001 110590.85980158 4799.09058817
0.26300001 109026.87964681 5612.70402980
0.26400001 107487.54009613 5127.15590519
0.26500001 105971.53845914 6342.39687689
0.26600001 104477.91255466 5021.20871498
0.26700001 103007.21038522 5383.15706946
0.26800001 101558.72382983 6146.84205067
0.26900001 100130.89550361 4055.30145980
0.27000001 98724.84934079  5217.11491030
0.27100001 97339.31425574  5957.16631436
0.27200001 95974.82141698  7074.30442143
0.27300001 94629.98863938  6222.86834742
0.27400001 93303.33102950  4618.51510453
0.27500001 91998.06172517  4189.59192924
0.27600001 90709.34626534  3768.97351570
0.27700001 89441.10938787  4848.60276938
0.27800001 88189.70310153  6274.25672410
0.27900001 86956.78211944  5113.05903061
0.28000001 85740.73352453  4336.76650692
0.28100001 84542.11054559  4291.35773440
0.28200001 83360.61845915  4246.39010529
0.28300001 82195.67091577  5602.45719478
0.28400001 81046.27007922  3464.72820988
0.28500001 79913.46504608  3771.11659402
0.28600001 78796.07043454  4409.82229059
0.28700001 77694.62649652  3356.40802352
0.28800001 76606.86874260  4649.27108405
0.28900001 75535.83406000  4928.71340571
0.29000001 74478.44044313  5851.77134261
0.29100001 73436.14205879  3216.50317443
0.29200001 72407.56364065  5091.70011623
0.29300001 71393.30008533  3778.13361936
0.29400001 70392.00219331  3737.81549340
0.29500001 69405.58983222  3081.60833442
0.29600001 68431.15863441  3048.60826148
0.29700001 67470.40409774  4222.29808831
0.29800001 66522.83679003  3580.25924552
0.29900001 65588.46944251  3246.62939110
0.30000001 64665.50004194  3211.61221162
0.30100001 63756.15056784  3176.96913319
0.30200001 62858.08700951  3142.59020881
0.30300001 61973.00184707  3108.56591981
0.30400001 61099.52734907  4192.95526283
0.30500001 60238.48820729  3041.44141357
0.30600001 59387.76417347  3008.28733663
0.30700001 58549.70927553  2975.49636625
0.30800001 57722.67719970  2675.44621487
0.30900001 56907.21856409  2910.80436736
0.31000001 56103.00438817  3140.64633434
0.31100001 55309.25885167  3106.16812417
0.31200001 54527.46248547  3328.08383037
0.31300001 53755.62461182  2785.07904300
0.31400001 52996.03036015  2754.46880838
0.31500001 52245.53936457  3714.65802470
0.31600002 51507.16624527  2694.08245802
0.31700002 50778.35568000  3875.40428899
0.31800002 50059.89197013  4311.65869954
0.31900002 49352.39477603  3790.26409826
0.32000002 48655.41440430  3279.86164029
0.32100002 47968.02932282  3011.91270379
0.32200002 47291.84133066  2978.67676725
0.32300002 46624.12099124  2945.71210371
0.32400002 45967.78371049  2689.11547440
0.32500002 45320.82868647  2216.18862771
0.32600002 44684.04765452  3725.97949011
0.32700002 44057.21149288  2817.89938052
0.32800002 43441.09040886  2358.19970451
0.32900002 42832.74076413  2756.28699869
0.33000002 42235.54724572  2096.99502005
0.33100002 41646.97877756  2074.01964134
0.33200002 41069.52115683  2666.84948261
0.33300002 40500.79031751  2029.08969100
0.33400002 39942.20047595  2609.22436965
0.33500002 39393.01442016  2183.94882288
0.33600002 38852.72660966  1964.00542313
0.33700002 38321.88791076  1942.91980909
0.33800002 37801.32379640  2498.85662790
0.33900002 37289.29915347  3042.80695502
0.34000002 36786.69418914  2446.13134595
0.34100002 36293.61406201  2048.04873851
0.34200002 35810.43665517  2210.93646380
0.34300002 35335.62187310  1823.31817500
0.34400002 34870.83875879  2706.84898685
0.34500002 34414.78031400  2143.35261947
0.34600002 33968.55688322  2121.67616341
0.34700002 33530.16380751  2100.32956038
0.34800002 33101.80271084  2079.45534478
0.34900002 32682.03963730  1715.80716222
0.35000002 32271.65557784  1869.01302131
0.35100002 31870.78042933  2019.33274364
0.35200002 31477.32200988  2333.41399111
0.35300002 31094.10871050  1651.09725073
0.35400002 30719.02204841  2126.52440202
0.35500002 30353.15467785  1782.94439022
0.35600002 29995.70948624  1606.27031907
0.35700002 29646.82303730  2069.64481426
0.35800002 29307.17603218  2051.64895531
0.35900002 28976.48744227  2190.62255440
0.36000002 28654.09497402  2172.26704287
0.36100002 28339.81553404  1538.85205639
0.36200002 28035.45052141  2289.79552980
0.36300002 27738.04544692  2120.29629439
0.36400002 27449.82642144  2254.31710164
0.36500002 27169.09734667  1789.90021798
0.36600002 26897.63480090  1480.71486593
0.36700002 26633.80331148  1470.18601243
0.36800002 26379.08838236  1606.09087224
0.36900002 26132.12257252  2175.49930721
0.37000002 25892.70578317  1585.02205960
0.37100002 25661.39338356  2004.66814608
0.37200002 25438.71367019  1707.95531672
0.37300002 25223.54325176  1981.05718084
0.37400002 25016.06120682  1688.58421145
0.37500002 24816.57228946  1539.62021777
0.37600002 24625.00111377  1392.54387895
0.37700002 24440.78728061  1385.79270446
0.37800002 24264.10061920  1931.17985977
0.37900002 24095.69374069  1510.80006911
0.38000002 23933.94556383  1778.17256990
0.38100002 23778.83880530  1362.52752809
0.38200002 23632.21100072  1629.20470357
0.38300002 23492.01632460  1894.39628616
0.38400002 23359.21986175  2158.39201748
0.38500002 23232.87108133  1748.73828914
0.38600002 23114.42780902  1610.15111746
0.38700002 23001.83998200  1606.44858045
0.38800002 22896.04184870  2137.57456826
0.38900002 22796.92404459  1867.06816771
0.39000002 22704.94812492  1997.46790592
0.39100002 22618.50324932  1861.95527570
0.39200002 22539.22507827  1594.42485758
0.39300002 22465.49232995  1858.79492344
0.39400002 22399.15764441  1459.86516864
0.39500002 22337.55872567  1459.53615628
0.39600002 22282.09456085  1724.96843215
0.39700002 22232.00960904  1592.70124385
0.39800002 22188.82155895  1859.20144651
0.39900002 22150.11959967  1594.80868674
0.40000002 22117.44858299  1596.43751436
0.40100002 22089.66937894  1731.60926466
0.40200002 22067.74678328  2000.99303438
0.40300002 22050.72526213  2004.41102130
0.40400002 22038.75599087  1740.51083684
0.40500002 22031.26406028  1878.38566278
0.40600002 22029.60967160  1613.88928101
0.40700002 22031.95201283  1752.86218519
0.40800002 22038.81325677  1352.08125737
0.40900002 22049.86712360  1356.06689235
0.41000002 22065.92445975  1496.40073814
0.41100002 22085.94461884  1774.38487475
0.41200002 22109.10781749  1506.62522361
0.41300002 22137.83711810  1649.71170021
0.41400002 22169.44687085  1656.05775972
0.41500002 22204.83991878  1385.58207659
0.41600002 22242.92605574  1669.55410885
0.41700002 22285.91503446  1676.79232665
0.41800002 22332.68635653  1824.69222522
0.41900002 22380.77607765  1550.98785567
0.42000002 22432.66625014  1841.60982307
0.42100002 22488.19451211  1992.90389210
0.42200002 22546.21634687  2002.78049299
0.42300002 22606.61177364  2156.67086540
0.42400002 22669.56970444  1589.70365085
0.42500002 22735.61581092  1452.80591916
0.42600002 22802.73570198  1606.56682001
0.42700002 22873.30841901  1762.15976410
0.42800002 22945.26624736  1771.83354358
0.42900002 23020.05331525  1633.27286011
0.43000002 23096.53504871  1642.51016782
0.43100002 23173.32088838  1501.63126473
0.43200002 23253.02311809  1812.34070771
0.43300002 23333.47053760  1519.00900398
0.43400002 23415.97759008  1833.47113219
0.43500002 23498.97848921  1997.88324583
0.43600002 23584.01087016  2318.89797870
0.43700002 23669.30387565  1710.58067216
0.43800002 23755.02196698  1564.26827065
0.43900002 23842.73662064  1730.98276069
0.44000002 23930.26398579  1741.28574145
0.44100002 24018.72100021  2388.66191667
0.44200002 24107.56651918  1762.14265823
0.44300002 24196.83784591  1772.66042460
0.44400002 24286.16280387  2431.65216597
0.44500002 24375.11805250  1630.69547499
0.44600002 24464.05260976  1804.34628574
0.44700002 24553.94317312  1980.03007132
0.44800002 24642.45771014  1659.66960543
0.44900002 24731.32818886  1669.36473186
0.45000002 24820.18769397  2014.90293249
0.45100002 24907.51752945  2533.09465279
0.45200002 24994.76386447  1698.39428508
0.45300002 25080.90760250  2391.21384415
0.45400002 25166.60126492  2061.14474128
0.45500002 25251.71155722  1727.21715237
0.45600002 25335.23029760  1910.40313113
0.45700002 25418.17727087  2793.96617803
0.45800002 25499.55943896  2282.33817575
0.45900002 25579.69314540  2117.99869282
0.46000002 25659.05589704  1951.75617931
0.46100002 25736.13388577  1783.51416281
0.46200002 25812.39523557  2151.20512089
0.46300002 25887.08579019  1801.74125639
0.46400002 25959.54035424  2172.81363063
0.46500002 26031.49564051  2001.56179466
0.46600002 26100.51943447  2559.67806226
0.46700002 26167.86833749  2388.07977766
0.46800002 26234.06525895  2952.90652550
0.46900002 26297.45357245  2224.76467768
0.47000002 26359.04180759  2420.94630956
0.47100002 26418.72783176  2805.66902871
0.47200002 26476.53106639  1878.50996820
0.47300002 26531.98309128  2640.99372208
0.47400002 26584.50567107  2272.97534261
0.47500002 26635.29896354  2472.28856698
0.47600002 26684.50649069  2291.13183588
0.47700002 26730.06812119  2491.50976767
