# SAXS profile: number of points = 501, q_min = 0, q_max = 0.5, delta_q = 0.001
#    q    intensity    error
0.00000000 1682732.95097188 277.65093691
0.00100000 1682650.46238096 555.27466577
0.00200000 1682402.92822779 908.49761001
0.00300000 1681990.58605121 1110.11382634
0.00400000 1681413.29566685 1639.37802557
0.00500000 1680671.57991978 1663.86492998
0.00600000 1679765.31133463 1940.12901358
0.00700000 1678695.09282557 2618.76445364
0.00800000 1677460.74455699 2717.48652091
0.00900000 1676063.50514175 3771.14304778
0.01000000 1674502.71003463 2762.92959086
0.01100000 1672779.75234170 3613.20442237
0.01200000 1670894.44016642 3258.24430118
0.01300000 1668847.97644296 4205.49708612
0.01400000 1666640.46076827 4499.92944356
0.01500000 1664273.19363072 4793.10701109
0.01600000 1661745.65686053 4661.19677587
0.01700000 1659060.12274471 7615.08630500
0.01800000 1656216.51172130 6136.28245205
0.01900000 1653215.61807155 8431.40003261
0.02000000 1650058.42987500 5717.45271815
0.02100000 1646747.08490037 5977.69218921
0.02200000 1643280.14522665 6236.24843446
0.02300000 1639660.82668618 8263.89094266
0.02400000 1635888.72275474 7361.49958806
0.02500000 1631966.33063407 10819.93726626
0.02600000 1627893.64998830 6592.96958400
0.02700000 1623672.92934901 8865.25460028
0.02800000 1619303.84360292 9157.16365552
0.02900000 1614789.12959274 10899.82712521
0.03000000 1610130.02480465 7487.10495949
0.03100000 1605327.02143877 14640.58310918
0.03200000 1600381.46865763 11882.83295208
0.03300000 1595297.10693942 9763.21874456
0.03400000 1590072.21606093 11687.03132729
0.03500000 1584709.98568697 10268.92118145
0.03600000 1579211.84185600 12270.47657829
0.03700000 1573579.43558637 11660.22415695
0.03800000 1567814.31968764 10088.88561410
0.03900000 1561918.60971959 13120.11692924
0.04000000 1555892.10978543 11482.48430230
0.04100000 1549738.89776623 11716.02661034
0.04200000 1543459.89919415 13937.44353632
0.04300000 1537055.92047084 11159.02650060
0.04400000 1530530.63671287 11364.19050537
0.04500000 1523885.20755207 14720.73178895
0.04600000 1517119.90506238 13904.40457627
0.04700000 1510238.68029589 14135.83470500
0.04800000 1503242.26442851 14363.48050492
0.04900000 1496134.50104803 14587.31206422
0.05000000 1488914.82415161 17085.29840274
0.05100000 1481587.81247651 15023.30111836
0.05200000 1474151.87136539 15235.36030055
0.05300000 1466612.97506495 15443.43534737
0.05400000 1458971.17512549 16851.11785853
0.05500000 1451228.98126741 14628.38881358
0.05600000 1443387.50157498 17277.34920009
0.05700000 1435452.10353257 22479.18099062
0.05800000 1427421.33644055 20212.28706776
0.05900000 1419298.18441702 12773.68425636
0.06000000 1411086.25251304 14202.58379507
0.06100000 1402786.83248343 14350.50996692
0.06200000 1394402.50160212 15812.52510730
0.06300000 1385935.97689268 15965.98320030
0.06400000 1377386.36435243 14772.46944854
0.06500000 1368759.96688352 17615.94159783
0.06600000 1360057.27992599 16402.29156335
0.06700000 1351280.24539420 15161.36506286
0.06800000 1342431.90092330 16673.00498992
0.06900000 1333514.73117931 15402.09586623
0.07000000 1324530.03167104 18338.11914723
0.07100000 1315480.37548865 18469.34533692
0.07200000 1306368.38863153 22887.57524103
0.07300000 1297197.01803035 17278.66508977
0.07400000 1287968.26135513 17387.57234315
0.07500000 1278683.72327301 14576.99512857
0.07600000 1269344.63979991 19059.21066010
0.07700000 1259956.75489907 19163.94314058
0.07800000 1250519.72520010 14818.65943856
0.07900000 1241035.98035909 16381.67570910
0.08000000 1231509.58020572 17955.41052171
0.08100000 1221941.50532336 15029.88122065
0.08200000 1212333.51424513 24149.68473699
0.08300000 1202689.14588399 18184.66073921
0.08400000 1193010.13911073 21295.23198270
0.08500000 1183298.67963661 22896.83052586
0.08600000 1173557.05179235 15314.92024495
0.08700000 1163788.53764093 18434.41130187
0.08800000 1153993.11553842 15405.80881595
0.08900000 1144176.12089543 18535.65402912
0.09000000 1134336.93675214 21677.17987963
0.09100000 1124479.03169608 15517.81136645
0.09200000 1114604.21562151 17103.60249235
0.09300000 1104717.23570193 21807.11925752
0.09400000 1094815.03639095 17161.22650196
0.09500000 1084903.33076723 17184.86956709
0.09600000 1074983.47820381 23461.51551467
0.09700000 1065059.76879511 17222.01727107
0.09800000 1055132.02765972 20369.32475169
0.09900000 1045202.91438340 25084.87112475
0.10000000 1035273.57281281 21958.15351199
0.10100000 1025346.03902853 18825.35416195
0.10200000 1015423.85317872 20394.78905039
0.10300000 1005507.80678762 20391.69928089
0.10400000 995601.05234592 18816.86077458
0.10500000 985706.28014450 15672.73059169
0.10600001 975820.69589669 23492.88435914
0.10700001 965951.99930384 15648.42312510
0.10800001 956098.62611984 28137.98389093
0.10900001 946264.59282854 23420.04977479
0.11000001 936449.51695449 18710.26222943
0.11100001 926656.60520682 26465.31389052
0.11200001 916887.11903634 17095.36113923
0.11300001 907142.90955085 17063.35893201
0.11400001 897426.39640951 18576.72728035
0.11500001 887739.14710354 18535.99426434
0.11600001 878082.10425330 16951.37582088
0.11700001 868458.12467622 21520.39334298
0.11800001 858866.47046437 15330.76721984
0.11900001 849310.10930558 19873.85749384
0.12000001 839789.89399958 24387.49967052
0.12100001 830310.82205697 21272.56426321
0.12200001 820870.23147464 18174.06778105
0.12300001 811472.25406361 19621.40002771
0.12400001 802115.80831030 16543.63932589
0.12500001 792803.61408845 17980.78681479
0.12600001 783538.47783491 29852.81741228
0.12700001 774319.83284699 17840.32978954
0.12800001 765149.15421611 17766.76419823
0.12900001 756028.59507259 16216.81412864
0.13000001 746959.09635313 14677.74693517
0.13100001 737940.89011268 21916.84546945
0.13200001 728976.62513208 14543.08435695
0.13300001 720066.81241336 15920.67797301
0.13400001 711211.83734458 15842.24442374
0.13500001 702414.29656830 15762.17755815
0.13600001 693674.37812061 15680.51005676
0.13700001 684993.39007150 18433.17299601
0.13800001 676370.50686100 16922.79087967
0.13900001 667809.68159731 15426.40437238
0.14000001 659309.55811558 20916.59671766
0.14100001 650872.93469394 16636.31299539
0.14200001 642498.98440256 20672.40579817
0.14300001 634190.00062261 17808.05605745
0.14400001 625942.94740644 14975.68572310
0.14500001 617764.43640393 13529.04179544
0.14600001 609651.38396483 20164.22047587
0.14700001 601606.72219810 17362.37082173
0.14800001 593627.28076410 21228.11256164
0.14900001 585717.33442782 14496.50471105
0.15000001 577875.65413908 23559.99153088
0.15100001 570103.66350367 14298.20055533
0.15200001 562402.55237342 19360.70877903
0.15300001 554771.85565742 12815.23047042
0.15400001 547210.15506905 13994.90037632
0.15500001 539721.65902641 17681.28238414
0.15600001 532302.92783858 15042.88145067
0.15700001 524959.12693193 14929.83827459
0.15800001 517684.62013333 12346.77877293
0.15900001 510485.05906804 14701.97039510
0.16000001 503356.12743601 12156.05105137
0.16100001 496302.80682420 14472.19053014
0.16200001 489322.39784100 13160.32651118
0.16300001 482415.19069914 14240.89710172
0.16400001 475582.37164677 11770.66425395
0.16500001 468822.42518092 12841.04683195
0.16600001 462137.40716331 11576.54259600
0.16700001 455525.47132927 12627.16666144
0.16800001 448988.01596562 12520.03141635
0.16900001 442525.86108656 19183.49698391
0.17000001 436136.44637594 17899.04060446
0.17100001 429821.78702749 12198.34289186
0.17200001 423580.91492896 10991.92526148
0.17300001 417414.06388969 13073.40909841
0.17400001 411321.90464633 15116.08070963
0.17500001 405302.32286231 16049.97274335
0.17600001 399355.31254794 14844.03766848
0.17700001 393484.66817270 13657.85347734
0.17800001 387685.24923671 14573.08920713
0.17900001 381958.57180101 14438.03469604
0.18000001 376306.03055905 14303.39289717
0.18100001 370726.33170218 12144.99520025
0.18200001 365216.75235709 12030.24039093
0.18300001 359779.86709341 11915.90976103
0.18400001 354414.57665827 11802.00596026
0.18500001 349120.90147238 11688.56833349
0.18600001 343898.36002573 11575.61934534
0.18700001 338745.41000070 9552.62101333
0.18800001 333661.39596110 10405.23112465
0.18900001 328650.47254089 9366.53890996
0.19000001 323704.72792515 9274.14089325
0.19100001 318830.63106501 12855.25165195
0.19200001 314023.01759624 11818.25682566
0.19300001 309285.36735711 10800.24553845
0.19400001 304613.18004516 8909.93593735
0.19500001 300008.58473885 9702.27808894
0.19600001 295469.30022972 11350.45370471
0.19700001 290997.69794311 12099.68485228
0.19800001 286590.08363977 10265.65728112
0.19900001 282247.77351331 10160.92032668
0.20000001 277967.82654708 9218.80340313
0.20100001 273753.25435539 9953.66879880
0.20200001 269600.34280276 9851.19699161
0.20300001 265510.32831124 9749.53971640
0.20400001 261482.37815798 10452.75856092
0.20500001 257514.80325355 11140.09091531
0.20600001 253607.62108772 12599.22721118
0.20700001 249760.41589373 8571.77787865
0.20800001 245972.12437624 8482.34911008
0.20900001 242244.64328894 9919.91861161
0.21000001 238572.08766501 11326.21039731
0.21100001 234958.34161132 8218.84317810
0.21200001 231400.13124492 11089.85181418
0.21300001 227897.65235583 8047.06648511
0.21400001 224450.92673939 9410.10554843
0.21500001 221059.66916655 10743.50042942
0.21600001 217720.57612824 9921.52712324
0.21700001 214435.59064990 9816.86180409
0.21800001 211202.85892789 7631.81566820
0.21900001 208021.17266197 8237.63882690
0.22000001 204890.14868581 8150.53050010
0.22100001 201810.97600492 10080.45872809
0.22200001 198781.10090582 7314.15095368
0.22300001 195799.69901565 8552.53125741
0.22400001 192865.91544056 8461.99244009
0.22500001 189981.96948166 7728.46688397
0.22600001 187142.80623364 6372.21285359
0.22700001 184351.04950517 6935.28681035
0.22800001 181603.90411803 9980.95104233
0.22900001 178901.49890165 9258.15300599
0.23000001 176243.50274985 8549.57272272
0.23100001 173629.96209463 7250.78755998
0.23200001 171057.53427062 7174.15332660
0.23300001 168528.33250009 7098.41370062
0.23400001 166039.49651799 8194.04954070
0.23500001 163591.22292334 7528.46843500
0.23600001 161183.40219211 7449.09128463
0.23700001 158814.98914861 6803.63445692
0.23800001 156484.90896544 6170.98267693
0.23900001 154193.18776085 7771.33703073
0.24000001 151938.18647407 7140.33541109
0.24100001 149721.02072415 5978.36064030
0.24200001 147540.03524472 5377.83453905
0.24300001 145393.70673034 6917.83289346
0.24400001 143282.38053773 6845.31605400
0.24500001 141204.82942078 5731.50429731
0.24600001 139160.99906929 7733.87288913
0.24700001 137150.88288041 6122.41570141
0.24800001 135172.76875588 5048.70315187
0.24900001 133225.26055771 5995.13700871
0.25000001 131310.15687902 5932.59316845
0.25100001 129425.06670900 5870.72130366
0.25200001 127571.64476511 6777.88180703
0.25300001 125746.07798734 5270.01837778
0.25400001 123950.50330560 6163.43906847
0.25500001 122181.67972684 6568.48741288
0.25600001 120442.15431591 4643.04526855
0.25700001 118728.94210901 5973.25336012
0.25800001 117042.55100060 5001.81365367
0.25900001 115383.52584340 4949.95349289
0.26000001 113749.18158268 6234.59293754
0.26100001 112139.73317627 5288.51006683
0.26200001 110556.35649156 6106.02785795
0.26300001 108995.81617268 5179.48142961
0.26400001 107459.93250939 4698.68577131
0.26500001 105947.38211046 4650.03082086
0.26600001 104457.30664002 5020.21839467
0.26700001 102990.00250905 5796.27761549
0.26800001 101544.95943627 4097.33930714
0.26900001 100120.66486508 4865.86454270
0.27000001 98718.18663066  4815.47337172
0.27100001 97336.14915365  4765.57808808
0.27200001 95975.19381849  5502.25812200
0.27300001 94633.78962966  4667.33872541
0.27400001 93310.76503808  4233.97616397
0.27500001 92008.89815146  4951.91913286
0.27600001 90723.71932563  4523.48485965
0.27700001 89459.01533764  4849.57345097
0.27800001 88211.20835127  5906.62279075
0.27900001 86981.63878766  4018.55190218
0.28000001 85769.14066099  4338.20333995
0.28100001 84574.00550936  4292.97672284
0.28200001 83396.08530380  4602.21318531
0.28300001 82234.58714016  3853.51293578
0.28400001 81088.60781912  4506.49959284
0.28500001 79959.24258585  5145.37750394
0.28600001 78845.26458611  3733.71768120
0.28700001 77747.36151881  3694.55479425
0.28800001 76663.01515500  4652.67860998
0.28900001 75595.40452968  4274.92032850
0.29000001 74541.41285832  4229.85267286
0.29100001 73502.42273920  4185.22814888
0.29200001 72477.26361861  6052.21418496
0.29300001 71466.30695203  3151.66428577
0.29400001 70468.29045264  4053.68860018
0.29500001 69485.19861958  4627.71444713
0.29600001 68514.07607701  3052.30223372
0.29700001 67556.44763411  3321.75068741
0.29800001 66612.23536471  3585.07067704
0.29900001 65681.03294299  3842.34060906
0.30000001 64761.17862411  4678.34776528
0.30100001 63855.04724620  3471.16053263
0.30200001 62960.07849616  3433.84284374
0.30300001 62077.94647577  3396.90539197
0.30400001 61207.64754732  2800.25000786
0.30500001 60349.62672613  4432.07679659
0.30600001 59501.92227012  3014.07001529
0.30700001 58666.78637659  2710.40565892
0.30800001 57842.70855732  3217.21160227
0.30900001 57030.09356498  2917.08942396
0.31000001 56228.75494899  2885.37869681
0.31100001 55437.84919759  3372.83890487
0.31200001 54658.67826307  3079.47007914
0.31300001 53889.66952951  2538.20355501
0.31400001 53132.69363626  3012.62387181
0.31500001 52384.93411322  2483.04599453
0.31600002 51649.09921526  3192.68921916
0.31700002 50922.95987645  2914.83036134
0.31800002 50206.94308583  3123.12304253
0.31900002 49501.92635203  2613.70183514
0.32000002 48807.35726595  3055.09667272
0.32100002 48122.37022380  2556.74165105
0.32200002 47448.47900840  3678.20626690
0.32300002 46783.06593906  3183.11995722
0.32400002 46129.06825251  2923.42983893
0.32500002 45484.22723414  2224.17881707
0.32600002 44849.50574824  2859.82886946
0.32700002 44224.81579003  2175.86103990
0.32800002 43610.71403168  2582.62660725
0.32900002 43004.38946057  2554.46085492
0.33000002 42409.14303690  2316.17545664
0.33100002 41822.40457745  2499.30701590
0.33200002 41246.72677736  2472.32892011
0.33300002 40679.80038378  2241.86390531
0.33400002 40122.96542159  3024.26866187
0.33500002 39575.48089403  2393.52519782
0.33600002 39036.70005757  2367.96633763
0.33700002 38507.45180403  3123.72463827
0.33800002 37988.37470238  1931.70894510
0.33900002 37477.75068061  3058.18460037
0.34000002 36976.55322131  2269.62094421
0.34100002 36484.78679301  2246.00358135
0.34200002 36002.84747303  2037.58124923
0.34300002 35529.30395108  2566.63703898
0.34400002 35065.61907439  3084.89798417
0.34500002 34610.59456918  1796.28994321
0.34600002 34165.44464458  1778.31147797
0.34700002 33728.03665766  2112.72431630
0.34800002 33300.57994630  2091.94253130
0.34900002 32881.58566041  1898.91166182
0.35000002 32471.93150154  1709.64727453
0.35100002 32071.85020153  2032.07252501
0.35200002 31679.01691477  2180.62523261
0.35300002 31296.42540765  1828.02429464
0.35400002 30921.84346074  2140.56471495
0.35500002 30556.48624962  2447.57466452
0.35600002 30199.39648553  2102.33108592
0.35700002 29850.96224395  1763.29642327
0.35800002 29511.55087188  2065.95621664
0.35900002 29181.09521173  2048.51298089
0.36000002 28858.83829568  2031.51801805
0.36100002 28544.64192758  1704.97154309
0.36200002 28240.34077629  1998.99261654
0.36300002 27942.90317697  1678.25084430
0.36400002 27654.55186505  1968.31282223
0.36500002 27373.68119820  1953.65971966
0.36600002 27102.02936252  1641.16346579
0.36700002 26838.01521951  1629.60436132
0.36800002 26582.93760068  1618.50223248
0.36900002 26335.62222196  1607.78981281
0.37000002 26095.76920356  1742.67554996
0.37100002 25863.89422025  1443.20536585
0.37200002 25640.58442779  1721.50892003
0.37300002 25424.82951984  1568.96630399
0.37400002 25216.68507408  1418.43860261
0.37500002 25016.46024077  1693.11410930
0.37600002 24824.02792111  1544.17872998
0.37700002 24639.03051953  1397.03309664
0.37800002 24461.43981881  1529.69621153
0.37900002 24292.00745974  1800.03783804
0.38000002 24129.25897621  1792.68338056
0.38100002 23973.05097423  1648.38706308
0.38200002 23825.31288959  1779.39357745
0.38300002 23683.91128193  1637.03202536
0.38400002 23549.86207931  1632.00551941
0.38500002 23422.21504827  1627.37557865
0.38600002 23302.39958992  1487.97479631
0.38700002 23188.45370178  1889.39529713
0.38800002 23081.23299267  1481.46900982
0.38900002 22980.62097569  1747.67630800
0.39000002 22887.00495930  1879.25206624
0.39100002 22799.03311608  1340.58321074
0.39200002 22718.09892651  1473.15519468
0.39300002 22642.61824235  1739.63244198
0.39400002 22574.51974184  1872.55650130
0.39500002 22511.19736831  1604.59822444
0.39600002 22453.88291037  1470.84166973
0.39700002 22401.92559890  1738.61352810
0.39800002 22356.81987996  1605.66687985
0.39900002 22316.12038140  2008.45092948
0.40000002 22281.38910352  1742.29330350
0.40100002 22251.55915871  1744.29980510
0.40200002 22227.58011716  1746.75446627
0.40300002 22208.41651186  1749.57913570
0.40400002 22194.32097093  2426.94911316
0.40500002 22184.61567939  1351.04315889
0.40600002 22180.66380596  2166.60734322
0.40700002 22180.73337466  1493.20704153
0.40800002 22185.27097638  1633.27972667
0.40900002 22194.01325008  1501.42506751
0.41000002 22207.68530262  1506.01425015
0.41100002 22225.29008131  1922.93218895
0.41200002 22245.96990847  1791.57927147
0.41300002 22272.20563973  1798.03524649
0.41400002 22301.34328207  1527.08455360
0.41500002 22334.22778926  1672.38705610
0.41600002 22369.81918629  1679.07870768
0.41700002 22410.17037855  1686.14129918
0.41800002 22454.35409764  1411.25622191
0.41900002 22499.78817844  2267.97875585
0.42000002 22549.01445867  2420.74956192
0.42100002 22601.92517472  1859.91251076
0.42200002 22657.22175937  2012.64110425
0.42300002 22714.88368353  1733.60000487
0.42400002 22775.14474364  1887.49021007
0.42500002 22838.48767586  1897.19326113
0.42600002 22902.78336498  2200.38501606
0.42700002 22970.62857954  1917.12875209
0.42800002 23039.74047748  1779.12884398
0.42900002 23111.74127740  1639.77812134
0.43000002 23185.42226497  1498.93762046
0.43100002 23259.37486896  2110.09058810
0.43200002 23336.25484797  2273.53473630
0.43300002 23413.89236317  2133.94225110
0.43400002 23493.54154551  1686.24902434
0.43500002 23573.72046295  1850.06566960
0.43600002 23655.87821242  2170.90004643
0.43700002 23738.30767551  1715.56757701
0.43800002 23821.14892243  2352.93409632
0.43900002 23905.93476462  2208.90847693
0.44000002 23990.64055035  2856.56570570
0.44100002 24076.28365558  2394.38652302
0.44200002 24162.25371237  1926.69820233
0.44300002 24248.68838516  2422.44408448
0.44400002 24335.12597556  2923.86552453
0.44500002 24421.23449592  2287.29293128
0.44600002 24507.36502805  1971.86268361
0.44700002 24594.37585853  1818.01634962
0.44800002 24680.09381942  2493.30659627
0.44900002 24766.19373221  1671.71815615
0.45000002 24852.22987038  2353.75480257
0.45100002 24936.73450741  2536.06601959
0.45200002 25021.21751386  1870.21099171
0.45300002 25104.54891914  2222.50582114
0.45400002 25187.48885358  2406.66467402
0.45500002 25269.89997578  2246.99961234
0.45600002 25350.69492790  2606.68532950
0.45700002 25430.94720286  1921.81677120
0.45800002 25509.63507804  1756.33845836
0.45900002 25587.07989097  1942.05945577
0.46000002 25663.82678554  2129.58444759
0.46100002 25738.32149019  2497.13206933
0.46200002 25811.96255143  2151.16906099
0.46300002 25884.05844089  1981.68360816
0.46400002 25953.98162716  2353.37739558
0.46500002 26023.37115783  2000.93710316
0.46600002 26089.90503824  2375.87731491
0.46700002 26154.80057212  2570.49392206
0.46800002 26218.50319390  2213.36614453
0.46900002 26279.45851736  1852.70191329
0.47000002 26338.72391630  2419.08021275
0.47100002 26396.08698357  2055.72735172
0.47200002 26451.51997404  1876.73543111
0.47300002 26504.63930321  2072.92793816
0.47400002 26554.88727565  2838.05371210
0.47500002 26603.48269520  2089.43762992
0.47600002 26650.44660438  2288.20745391
0.47700002 26693.79413983  2679.52318276
