# SAXS profile: number of points = 501, q_min = 0, q_max = 0.5, delta_q = 0.001
#    q    intensity    error
0.00000000 1700912.83420644 408.21908021
0.00100000 1700829.88880721 612.29877451
0.00200000 1700580.98408690 1224.41834731
0.00300000 1700166.36480863 1428.13979731
0.00400000 1699585.86734597 1402.15839384
0.00500000 1698840.04365146 1528.95609980
0.00600000 1697928.75462289 2139.39031792
0.00700000 1696852.61616883 2850.71251364
0.00800000 1695611.40689391 2517.98304555
0.00900000 1694206.43192437 3303.70268348
0.01000000 1692636.96328571 3072.13622102
0.01100000 1690904.43930916 4565.44218491
0.01200000 1689008.67084185 4281.63716831
0.01300000 1686950.82072133 4251.11625571
0.01400000 1684731.02814427 5306.90297391
0.01500000 1682350.55369705 5248.93396126
0.01600000 1679808.95168687 5568.56692378
0.01700000 1677108.43332122 5433.83156772
0.01800000 1674248.94600261 8111.73650839
0.01900000 1671231.29306953 7019.17174762
0.02000000 1668056.45333456 6830.69148540
0.02100000 1664726.56086125 7691.03705988
0.02200000 1661240.23673704 5731.27907713
0.02300000 1657600.55161491 7757.57093467
0.02400000 1653807.21055890 7442.13278686
0.02500000 1649862.81515786 7721.35832758
0.02600000 1645767.21699809 8664.96479382
0.02700000 1641522.58931655 7583.83470999
0.02800000 1637128.82710334 8545.81286939
0.02900000 1632588.60404764 9550.64377219
0.03000000 1627903.08045736 11354.62450811
0.03100000 1623072.80437067 10907.04974724
0.03200000 1618099.17220343 10412.46865271
0.03300000 1612985.82795182 19742.94744429
0.03400000 1607731.11407423 10128.70648601
0.03500000 1602338.13938475 10383.15162269
0.03600000 1596808.58296949 15065.88967657
0.03700000 1591143.80195571 12697.32812683
0.03800000 1585345.50719772 11129.12597558
0.03900000 1579415.86481259 13267.09387883
0.04000000 1573354.53915457 12578.97012344
0.04100000 1567165.73254449 14809.71685922
0.04200000 1560850.33382207 14094.47916830
0.04300000 1554409.10909742 11285.01065587
0.04400000 1547845.75057991 12537.55116197
0.04500000 1541161.51785964 11697.41646407
0.04600000 1534356.59222290 12980.65737364
0.04700000 1527435.01378283 17596.05217713
0.04800000 1520397.40178037 11174.92142303
0.04900000 1513247.68709291 12484.29399963
0.05000000 1505985.28272506 14977.02433412
0.05100000 1498614.87071220 16364.87515052
0.05200000 1491134.60434082 16596.32891972
0.05300000 1483550.77990977 18025.14281620
0.05400000 1475863.18434813 13393.45902255
0.05500000 1468074.47629938 18497.73926428
0.05600000 1460185.95872079 14981.50863557
0.05700000 1452202.65270872 15160.99640197
0.05800000 1444123.04612911 15336.58746599
0.05900000 1435950.68057701 19385.33509320
0.06000000 1427688.69830266 14369.68741975
0.06100000 1419338.53830121 17159.80372996
0.06200000 1410902.73397492 17332.94089708
0.06300000 1402384.01560472 16155.46461512
0.06400000 1393781.62206041 14948.30859568
0.06500000 1385101.75026784 17826.26035982
0.06600000 1376344.91491049 20748.40056306
0.06700000 1367513.18913752 18133.22573658
0.06800000 1358609.35033948 18280.08966449
0.06900000 1349636.09677472 17005.41561554
0.07000000 1340594.67889530 17132.80079858
0.07100000 1331487.57562275 15818.07313928
0.07200000 1322317.54627983 14479.37781008
0.07300000 1313087.65436287 16032.80101100
0.07400000 1303799.70877535 16134.52215223
0.07500000 1294455.40102357 14756.79226336
0.07600000 1285055.93456243 16326.63641402
0.07700000 1275607.12981940 16417.06453055
0.07800000 1266108.53287880 16503.72550004
0.07900000 1256562.71371120 16586.62859896
0.08000000 1246973.61832458 15150.73017338
0.08100000 1237342.43899521 19785.10652782
0.08200000 1227670.75281810 21398.30222574
0.08300000 1217962.01190908 16880.95427732
0.08400000 1208218.31418688 20026.21949765
0.08500000 1198441.29896972 18551.87217897
0.08600000 1188633.86832109 21716.34179384
0.08700000 1178799.31893100 18672.18208867
0.08800000 1168937.03713217 17165.84119646
0.08900000 1159052.56057076 18776.65236318
0.09000000 1149145.73527984 17254.42402576
0.09100000 1139219.62197396 22009.72413058
0.09200000 1129276.13421790 31506.80562508
0.09300000 1119319.92518511 20517.13519279
0.09400000 1109348.06487141 15808.21066736
0.09500000 1099366.39702984 15830.87686132
0.09600000 1089376.09041786 19020.50743281
0.09700000 1079381.61415540 19040.29256884
0.09800000 1069382.69031564 23820.50054677
0.09900000 1059381.88576663 19068.87484047
0.10000000 1049380.58102436 17487.92820518
0.10100000 1039380.64110331 23853.78683521
0.10200000 1029385.63038653 17494.40961129
0.10300000 1019396.31361245 17492.84156447
0.10400000 1009416.12617478 15898.30473519
0.10500000 999447.57801441 20658.58240953
0.10600001 989487.72391570 17469.40658773
0.10700001 979544.78482711 26976.66464360
0.10800001 969616.51504475 17438.55384377
0.10900001 959707.23297266 26919.78915188
0.11000001 949816.89455582 17395.89724261
0.11100001 939948.32829063 18949.35919035
0.11200001 930102.88839623 18918.29364060
0.11300001 920282.51607305 18884.19811890
0.11400001 910489.44426412 18847.13238367
0.11500001 900725.58808249 21941.67635888
0.11600001 890991.45826727 25019.04132633
0.11700001 881290.33669357 21838.37557174
0.11800001 871621.13463371 20225.96938178
0.11900001 861987.04485462 26376.80481494
0.12000001 852389.00571853 21659.20565556
0.12100001 842831.99504773 16966.20885956
0.12200001 833312.93444820 16912.08680138
0.12300001 823836.86787874 26049.72298964
0.12400001 814401.72976087 15270.03315250
0.12500001 805010.63857509 21300.58250039
0.12600001 795666.69942488 18188.94160598
0.12700001 786369.03817995 16608.11486904
0.12800001 777118.98330756 15037.25303570
0.12900001 767919.30725370 28451.41167472
0.13000001 758770.45457088 25346.72822966
0.13100001 749672.41659093 20780.92036746
0.13200001 740628.67700307 17730.65136328
0.13300001 731639.08129450 14705.94622730
0.13400001 722704.19845728 19025.18892134
0.13500001 713826.91840651 20386.89775090
0.13600001 705007.10647003 17385.47606529
0.13700001 696245.98993761 17294.75120555
0.13800001 687542.90535280 14335.27025260
0.13900001 678902.18913734 15682.64130864
0.14000001 670321.91607067 17012.77103221
0.14100001 661805.18124640 18325.38633299
0.14200001 653351.03186536 16817.25635341
0.14300001 644962.04287934 20896.77117494
0.14400001 636634.75784039 19385.52929065
0.14500001 628376.14357770 15137.58201286
0.14600001 620182.90716244 15042.53712285
0.14700001 612058.20055557 13587.69269335
0.14800001 603999.01951806 18899.13021236
0.14900001 596008.83988879 13410.19953020
0.15000001 588087.06137838 13320.17256870
0.15100001 580235.42747288 14552.30520767
0.15200001 572454.60081706 14451.61707956
0.15300001 564744.20415038 15654.71007778
0.15400001 557102.73418209 19428.95877147
0.15500001 549534.75881043 20574.58234084
0.15600001 542036.42584490 12764.95843109
0.15700001 534613.44455000 15204.40708060
0.15800001 527259.72487502 13832.65953498
0.15900001 519980.90795772 17471.35933204
0.16000001 512773.16548165 18575.20879637
0.16100001 505640.93343444 17201.90536744
0.16200001 498581.68413767 15847.41957841
0.16300001 491595.86816680 14511.91071336
0.16400001 484684.78643091 14395.13883659
0.16500001 477846.71305805 14278.06046026
0.16600001 471083.89488114 11800.65212392
0.16700001 464393.95253369 12873.00097203
0.16800001 457778.71804490 17407.03657555
0.16900001 451239.34900138 16109.24552000
0.17000001 444772.63514321 13690.10235615
0.17100001 438381.05904988 15834.32460060
0.17200001 432063.21124508 16818.06129191
0.17300001 425819.96652315 13336.68198132
0.17400001 419651.30298196 12117.43194586
0.17500001 413555.65039341 10917.86968601
0.17600001 407532.76901118 14065.99418675
0.17700001 401586.54947463 11794.59751514
0.17800001 395711.71621890 12749.83209877
0.17900001 389909.75963278 13685.83320954
0.18000001 384182.66629607 12516.67185915
0.18100001 378528.37861952 14467.35531422
0.18200001 372944.34917593 12284.78744216
0.18300001 367433.66008360 13183.52034658
0.18400001 361994.48727139 15068.02124450
0.18500001 356627.42554309 11939.88677125
0.18600001 351331.83389383 10840.34424693
0.18700001 346105.92499318 10736.20630052
0.18800001 340949.36862448 14498.87258577
0.18900001 335866.39948172 11486.63140499
0.19000001 330848.87445010 12322.46691112
0.19100001 325903.18396185 13140.41699823
0.19200001 321024.37607668 14869.84980249
0.19300001 316215.80850037 11962.44460083
0.19400001 311473.21527186 10932.71037266
0.19500001 306798.57882973 12627.83010136
0.19600001 302189.32365515 8929.69493599
0.19700001 297648.37453812 10608.18856986
0.19800001 293171.72398829 13126.76456193
0.19900001 288760.58351839 8662.81791496
0.20000001 284412.35008445 11147.54258841
0.20100001 280129.89716688 11034.31717091
0.20200001 275909.35534188 10081.72832069
0.20300001 271752.19102557 9147.17918226
0.20400001 267657.21544899 9876.55171689
0.20500001 263623.29847364 11404.34443102
0.20600001 259650.09113032 10480.77642388
0.20700001 255737.21471903 13564.30250987
0.20800001 251883.72825150 10265.52183014
0.20900001 248091.26721778 10159.33787281
0.21000001 244354.33290796 8507.19650235
0.21100001 240676.65222179 7653.51790246
0.21200001 237054.66917615 8331.28674205
0.21300001 233489.12249930 10493.00166118
0.21400001 229979.66421281 11125.26678226
0.21500001 226526.05669235 8073.38904221
0.21600001 223125.15939274 13072.90370689
0.21700001 219778.59153303 9342.78836779
0.21800001 216484.87221272 8533.83406611
0.21900001 213242.38814955 7740.69905582
0.22000001 210051.28343439 10444.80056263
0.22100001 206912.33534308 6890.18109272
0.22200001 203823.18831843 6817.88597163
0.22300001 200782.91242032 8095.56741159
0.22400001 197790.54133607 7342.97419432
0.22500001 194848.76581042 7265.91082066
0.22600001 191952.04586170 8496.75771186
0.22700001 189103.31071629 7114.06688556
0.22800001 186299.42223118 8319.20109315
0.22900001 183540.90947765 7598.59401172
0.23000001 180827.17515081 6892.22810682
0.23100001 178158.45497786 10539.85469495
0.23200001 175531.22371745 7361.77987088
0.23300001 172947.74862361 7284.55951655
0.23400001 170404.85683656 7208.12578510
0.23500001 167903.25088091 6538.15289853
0.23600001 165442.60180372 7057.78172676
0.23700001 163021.51205421 6401.85508116
0.23800001 160639.47690906 6910.71062350
0.23900001 158296.16417333 7978.12705170
0.24000001 155990.06578071 6202.94525917
0.24100001 153722.33751967 5580.12111591
0.24200001 151491.04303213 7178.40341363
0.24300001 149295.12824444 5464.20195222
0.24400001 147134.48925474 7570.06983025
0.24500001 145008.09585080 6420.95878801
0.24600001 142915.89635575 10060.56499988
0.24700001 140858.06128196 11003.83226789
0.24800001 138832.62977620 5703.93886419
0.24900001 136838.01854967 6670.85371988
0.25000001 134876.52530550 9140.58255238
0.25100001 132945.43842278 6532.93915316
0.25200001 131046.60333518 7459.82824778
0.25300001 129175.85248542 5413.76023379
0.25400001 127335.71385123 5357.65041377
0.25500001 125522.66787118 4820.07067430
0.25600001 123739.47264481 4770.15689615
0.25700001 121983.14018307 6609.04684781
0.25800001 120253.90573469 6073.42379649
0.25900001 118552.59879720 5548.26188622
0.26000001 116876.34223553 4575.70901502
0.26100001 115225.76898426 7698.23399009
0.26200001 113601.29494380 6274.19981662
0.26300001 112000.32811333 6209.29848441
0.26400001 110424.34737447 6584.05202375
0.26500001 108872.28948437 4778.40501158
0.26600001 107343.04994815 5588.81616001
0.26700001 105837.15556733 4680.11924065
0.26800001 104353.88623523 6316.01926327
0.26900001 102891.79600678 6667.38869675
0.27000001 101451.91299762 6598.43273362
0.27100001 100033.03899705 4081.34818422
0.27200001 98635.52080046  4039.12476792
0.27300001 97258.25212639  4796.77722188
0.27400001 95899.49923418  5142.61088981
0.27500001 94562.52374595  4306.37753519
0.27600001 93242.70758750  4649.08162034
0.27700001 91943.74371864  3834.05429452
0.27800001 90662.03000803  4932.46797603
0.27900001 89399.04496636  4881.18808618
0.28000001 88153.42940421  4458.80067029
0.28100001 86925.70213724  4412.34884932
0.28200001 85715.64852125  4002.49239714
0.28300001 84522.40631567  5040.91655125
0.28400001 83345.01061092  4988.19912116
0.28500001 82184.79939458  5288.59209136
0.28600001 81040.27341349  4535.41911626
0.28700001 79912.21946055  5523.53287056
0.28800001 78798.07923849  4440.66596568
0.28900001 77701.21464351  4056.00359638
0.29000001 76618.26375182  4013.26484529
0.29100001 75550.70179571  3640.03298482
0.29200001 74497.36969616  3274.15955313
0.29300001 73458.71362330  3563.48236655
0.29400001 72433.33883342  4487.24555314
0.29500001 71423.08924523  3488.30384386
0.29600001 70425.44285691  4706.18044169
0.29700001 69441.55688040  4035.24906134
0.29800001 68471.48732292  4606.41952771
0.29900001 67514.75820723  5164.87924735
0.30000001 66569.76506373  3907.31254539
0.30100001 65638.83726865  3865.47130974
0.30200001 64719.42664668  3529.79769641
0.30300001 63813.31800848  3200.87618284
0.30400001 62919.21062379  4317.83103347
0.30500001 62037.82926826  2847.53649822
0.30600001 61167.09229124  3943.44262671
0.30700001 60309.22238088  3064.91482650
0.30800001 59462.78169730  2756.10006215
0.30900001 58628.24846484  3816.69915576
0.31000001 57805.34107189  3775.26700414
0.31100001 56992.96573459  3200.72510719
0.31200001 56192.83971028  3693.55552903
0.31300001 55403.04199003  2870.43174141
0.31400001 54625.64903552  3355.38065087
0.31500001 53857.75551869  3063.42927895
0.31600002 53102.18433069  2525.00898448
0.31700002 52356.59675988  3746.11467554
0.31800002 51621.41444703  2717.09327807
0.31900002 50897.53913688  2443.08199425
0.32000002 50184.44451190  3624.57167649
0.32100002 49481.13979548  3345.91483140
0.32200002 48789.28184865  3072.99306274
0.32300002 48106.26894256  3039.35421571
0.32400002 47434.88205572  2774.94073166
0.32500002 46772.80599339  2744.62838565
0.32600002 46121.20560637  2714.69429054
0.32700002 45479.97163956  3132.66059487
0.32800002 44849.51679380  2877.32088616
0.32900002 44227.15609435  3283.86649551
0.33000002 43615.99221557  3248.30117407
0.33100002 43013.70923313  2356.29110337
0.33200002 42422.76600325  3178.52589331
0.33300002 41840.82106946  2725.09280530
0.33400002 41269.05292648  2073.77000776
0.33500002 40706.99420397  2051.63260504
0.33600002 40153.94654541  2435.73851279
0.33700002 39610.53142714  2008.25403846
0.33800002 39077.58710987  3179.35263782
0.33900002 38553.34313705  2162.84265242
0.34000002 38038.69253606  2140.24713690
0.34100002 37533.81380371  2118.03321325
0.34200002 37038.79245073  1905.64596184
0.34300002 36552.38854723  2451.93433987
0.34400002 36076.11807625  2240.32703864
0.34500002 35608.75405887  2772.14163477
0.34600002 35151.49515264  3293.34373683
0.34700002 34701.98150121  2173.73222419
0.34800002 34262.75635863  2152.38645639
0.34900002 33832.19546150  2309.04744961
0.35000002 33411.15783671  2110.91705210
0.35100002 32999.79981309  2439.34531772
0.35200002 32595.91272472  1898.54902657
0.35300002 32202.43927204  2564.92440950
0.35400002 31817.08945376  3049.66816859
0.35500002 31441.09514380  1678.95456020
0.35600002 31073.72802660  2662.39714342
0.35700002 30715.00429020  2474.09371276
0.35800002 30365.58595351  1962.22425726
0.35900002 30025.23001226  2432.04374619
0.36000002 29693.23662609  2251.04437525
0.36100002 29369.39091660  1754.23380254
0.36200002 29055.73620456  2531.33585804
0.36300002 28748.95719262  1883.63176448
0.36400002 28451.41660415  2180.80118601
0.36500002 28161.52287385  1855.28121481
0.36600002 27880.97017977  1995.30172543
0.36700002 27608.11975513  1828.76193921
0.36800002 27344.43494642  1816.21745517
0.36900002 27088.58805463  1804.10004990
0.37000002 26840.24191988  1493.65953359
0.37100002 26600.05214954  1781.13957631
0.37200002 26368.69412356  1622.86135671
0.37300002 26144.81792608  1760.06922616
0.37400002 25928.68719693  1896.03534109
0.37500002 25720.60091507  2030.89874446
0.37600002 25520.42016660  1876.13377742
0.37700002 25327.80887825  2441.34761343
0.37800002 25142.56668433  2001.09697720
0.37900002 24965.72625015  1707.65575641
0.38000002 24795.56683781  1842.18672548
0.38100002 24632.09907348  1552.56127815
0.38200002 24477.14821068  1687.45467758
0.38300002 24328.71459712  1681.60083262
0.38400002 24187.62150680  1536.51872901
0.38500002 24053.02401541  1949.73821906
0.38600002 23926.36498190  1527.81810830
0.38700002 23805.60459367  1385.48625299
0.38800002 23691.57746255  2488.32649878
0.38900002 23584.31307508  1655.61885631
0.39000002 23484.16044980  1928.28450589
0.39100002 23389.60303722  1925.43221324
0.39200002 23302.30379379  1373.67087372
0.39300002 23220.42354134  1784.02522520
0.39400002 23146.02287116  2331.38326415
0.39500002 23076.23846569  1781.94721874
0.39600002 23012.77425578  1781.53400342
0.39700002 22954.60440413  1507.42894264
0.39800002 22903.40474528  1781.99949063
0.39900002 22856.66236092  1508.53978729
0.40000002 22815.87981084  1646.85028277
0.40100002 22780.01493425  1373.63496562
0.40200002 22750.08867839  1787.81580350
0.40300002 22725.02910633  1790.27787782
0.40400002 22705.01051255  1517.26239939
0.40500002 22689.55786190  1934.51179496
0.40600002 22679.74554430  1523.05838419
0.40700002 22674.12978692  1942.71953219
0.40800002 22672.87712613  1390.98107759
0.40900002 22675.90598806  1534.02511278
0.41000002 22683.97678657  1538.31395867
0.41100002 22695.96053002  1542.87146994
0.41200002 22711.02005554  1406.94775911
0.41300002 22731.68526281  1693.96526605
0.41400002 22755.27219826  1416.51576146
0.41500002 22782.52627678  1848.11861914
0.41600002 22812.55129698  1712.31018149
0.41700002 22847.46540202  1575.78976344
0.41800002 22886.20428654  1582.23780832
0.41900002 22926.13990423  2022.08563537
0.42000002 22969.90923647  1740.65980442
0.42100002 23017.49673516  1748.40913485
0.42200002 23067.26134940  1609.97958217
0.42300002 23119.62423963  1764.48980558
0.42400002 23174.47731092  1772.84759829
0.42500002 23232.44064203  1633.00833011
0.42600002 23291.40879920  1640.99628471
0.42700002 23353.80174845  2398.90262928
0.42800002 23417.58821904  1657.61406063
0.42900002 23484.29747851  1969.15843689
0.43000002 23552.69207589  2284.02242229
0.43100002 23621.31206448  2449.05775090
0.43200002 23692.86947915  2154.39272383
0.43300002 23765.26131328  1701.83044329
0.43400002 23839.53194474  1866.63543973
0.43500002 23914.52833083  1720.41124965
0.43600002 23991.34660063  1729.89612862
0.43700002 24068.50150927  1897.56074891
0.43800002 24146.09808093  2067.02682417
0.43900002 24225.61404203  1758.77966280
0.44000002 24305.03099901  1929.33345213
0.44100002 24385.38531313  2101.77645974
0.44200002 24466.10376727  1950.92720686
0.44300002 24547.24795877  1634.84679153
0.44400002 24628.43109309  1972.73742405
0.44500002 24709.31384278  1983.66380931
0.44600002 24790.11619725  1994.61284376
0.44700002 24871.99659776  1838.53807564
0.44800002 24952.38044686  1848.59719301
0.44900002 25033.25532083  2027.69377708
0.45000002 25114.06763136  2038.76010693
0.45100002 25193.38513351  1878.92275230
0.45200002 25272.62209286  2404.18465363
0.45300002 25350.70810087  2244.29829453
0.45400002 25428.45408049  2082.59048789
0.45500002 25505.61931318  2093.50133244
0.45600002 25581.21151597  1928.95134578
0.45700002 25656.20021721  2291.35535000
0.45800002 25729.68571637  1948.63784008
0.45900002 25801.89428849  2492.46310640
0.46000002 25873.43475962  1968.06290827
0.46100002 25942.66886042  2157.39244468
0.46200002 26011.12401412  2167.76717808
0.46300002 26078.03181065  2359.54043006
0.46400002 26142.77087668  2552.84169710
0.46500002 26207.01628250  2564.61873496
0.46600002 26268.33219701  2024.10643338
0.46700002 26328.01791110  2033.04963945
0.46800002 26386.59446311  2041.92670931
0.46900002 26442.34845979  2609.85991668
0.47000002 26496.45862793  2807.96233618
0.47100002 26548.67662853  2067.61103383
0.47200002 26598.96503746  2264.63599063
0.47300002 26647.02101058  2084.06361202
0.47400002 26692.16059903  3042.90645251
0.47500002 26735.60225343  2481.59871879
0.47600002 26777.41069725  2107.51620882
0.47700002 26815.75932204  2114.95903797
