# SAXS profile: number of points = 501, q_min = 0, q_max = 0.5, delta_q = 0.001
#    q    intensity    error
0.00000000 1664650.74656090 274.66737318
0.00100000 1664568.78154665 699.11890485
0.00200000 1664322.81524646 748.94529058
0.00300000 1663913.09030914 1098.18267872
0.00400000 1663339.47015014 1497.00558002
0.00500000 1662602.45538765 1496.34226908
0.00600000 1661701.94619113 2268.22324890
0.00700000 1660638.53615566 2789.87285669
0.00800000 1659412.03445431 3136.28887753
0.00900000 1658023.65143832 3233.14625851
0.01000000 1656472.80524177 2733.18024667
0.01100000 1654760.77802310 4169.99734218
0.01200000 1652887.49163157 4190.06997499
0.01300000 1650854.06159029 3466.79368224
0.01400000 1648660.57831771 4080.43511223
0.01500000 1646308.41001577 5136.48246797
0.01600000 1643797.01947683 5030.01910446
0.01700000 1641128.62505297 5317.25698370
0.01800000 1638303.19347431 4669.16431150
0.01900000 1635321.42594198 7358.94674879
0.02000000 1632184.48425201 6169.65762956
0.02100000 1628894.33632595 5912.88670894
0.02200000 1625449.61909920 6168.58158473
0.02300000 1621853.56235360 6422.54039926
0.02400000 1618105.63460932 6067.89640647
0.02500000 1614208.45344674 7554.49590715
0.02600000 1610161.97521127 6521.15629787
0.02700000 1605968.49498403 8094.08158544
0.02800000 1601627.58908377 9057.20443163
0.02900000 1597142.02759048 9343.28129039
0.03000000 1592513.10298683 8145.70489620
0.03100000 1587741.12077466 8383.27350343
0.03200000 1582827.56854651 8618.49650769
0.03300000 1577776.25893897 11265.32300816
0.03400000 1572585.43739633 14860.93306908
0.03500000 1567258.20048280 9309.51414076
0.03600000 1561795.89421235 9534.76437480
0.03700000 1556200.18806086 12418.47807505
0.03800000 1550472.84396151 9070.26655694
0.03900000 1544615.71098712 17608.61992071
0.04000000 1538628.76829685 13247.59430892
0.04100000 1532516.15063619 10620.33741634
0.04200000 1526278.46059571 9844.49652756
0.04300000 1519916.68851022 11034.59567079
0.04400000 1513434.57593408 12258.82063439
0.04500000 1506833.17816471 14556.00917741
0.04600000 1500112.74932243 13748.53398667
0.04700000 1493277.30895367 13977.07626185
0.04800000 1486327.68370250 15294.31257691
0.04900000 1479267.36878281 12203.95636052
0.05000000 1472095.92858581 12387.68781590
0.05100000 1464818.00705027 12568.13908597
0.05200000 1457432.08762704 13903.90276390
0.05300000 1449944.03061898 17616.82079328
0.05400000 1442353.81054189 14279.30339026
0.05500000 1434664.04656723 13256.29640868
0.05600000 1426875.78015254 15859.72503648
0.05700000 1418994.29387264 12345.25093295
0.05800000 1411018.41650600 13736.26492607
0.05900000 1402950.71526125 15151.86843250
0.06000000 1394795.05264181 16591.08792629
0.06100000 1386552.69080958 18052.91687798
0.06200000 1378226.11310593 19536.35606647
0.06300000 1369818.23798802 15780.30683943
0.06400000 1361327.93319754 19909.42195411
0.06500000 1352761.26549266 18749.27201678
0.06600000 1344119.35274312 16210.08015253
0.06700000 1335403.50842413 13621.11642338
0.06800000 1326617.14085405 20595.73207583
0.06900000 1317762.71774532 15220.16010255
0.07000000 1308841.33354700 19514.82519704
0.07100000 1299855.70082410 14038.44222643
0.07200000 1290808.36742191 19788.09319959
0.07300000 1281702.11378370 15649.58354257
0.07400000 1272539.28244427 15747.67435825
0.07500000 1263321.24211539 15842.04911868
0.07600000 1254049.42082513 15932.69863852
0.07700000 1244729.10353551 16019.66431364
0.07800000 1235360.34678968 19030.72703476
0.07900000 1225945.39103550 20595.88353542
0.08000000 1216488.52842373 16258.36994508
0.08100000 1206990.19804607 16330.57814576
0.08200000 1197452.57941183 20871.59943855
0.08300000 1187879.36151673 16464.00872331
0.08400000 1178271.75250189 16525.26210451
0.08500000 1168632.40891496 16582.89466099
0.08600000 1158963.13384714 22686.70441023
0.08700000 1149267.52559087 18204.39846020
0.08800000 1139545.56042768 21298.10752463
0.08900000 1129802.52397759 21353.26870613
0.09000000 1120037.69296592 18346.21827260
0.09100000 1110254.59577150 19917.96838391
0.09200000 1100454.75641234 15351.34457326
0.09300000 1090643.43648481 24604.91708334
0.09400000 1080817.24721038 16941.81114625
0.09500000 1070981.92836512 16964.35454267
0.09600000 1061138.71307031 21615.39660133
0.09700000 1051292.11062846 18544.79370333
0.09800000 1041441.72897167 24744.65664380
0.09900000 1031590.56414423 18568.63102774
0.10000000 1021739.27617787 21671.09106686
0.10100000 1011890.35395963 23222.88471559
0.10200000 1002047.05539002 20126.11605417
0.10300000 992209.97876301 17026.32403650
0.10400000 982382.60368586 20114.28475675
0.10500000 972567.39430657 15463.82229704
0.10600001 962761.73820541 21633.25727540
0.10700001 952973.07561846 16981.98100665
0.10800001 943200.17644616 15421.32361065
0.10900001 933446.72812445 21562.62043453
0.11000001 923712.37249699 23069.71758899
0.11100001 914000.29369516 16890.72622259
0.11200001 904312.09945780 19926.51804964
0.11300001 894649.21465537 21417.90320722
0.11400001 885014.36766795 16793.14841720
0.11500001 875408.64124543 18278.53328990
0.11600001 865833.43828562 21273.52858048
0.11700001 856291.51025235 19703.26857883
0.11800001 846781.98193865 21161.08272530
0.11900001 837307.97879275 19593.00762661
0.12000001 827869.99107628 21036.17746416
0.12100001 818473.18396203 19471.47796372
0.12200001 809115.32157144 20899.44974079
0.12300001 799799.68930089 20826.78489064
0.12400001 790526.01385892 26680.25422484
0.12500001 781296.30189341 22149.75120239
0.12600001 772113.95625293 17650.52587170
0.12700001 762977.98585186 21973.76702808
0.12800001 753889.88066767 17505.32385412
0.12900001 744852.12763735 20334.46404291
0.13000001 735865.40817428 20243.65833306
0.13100001 726930.10849152 17271.86019191
0.13200001 718048.18850613 18622.58064678
0.13300001 709220.94226736 18531.94409510
0.13400001 700448.72984424 22694.53991690
0.13500001 691733.66244867 15522.50411721
0.13600001 683076.13152377 15440.93668115
0.13700001 674477.59128294 16754.02415748
0.13800001 665936.93019828 13884.78564938
0.13900001 657458.26991270 17948.61161504
0.14000001 649040.10381128 17845.35849589
0.14100001 640685.35617409 16375.91847615
0.14200001 632393.26397805 17634.28699775
0.14300001 624166.03461267 17526.58307861
0.14400001 616000.51146090 14737.81293188
0.14500001 607903.26847207 17307.00686981
0.14600001 599871.57479605 13227.16884824
0.14700001 591907.75501729 13140.35278130
0.14800001 584008.98021251 16968.38172062
0.14900001 576179.67980611 14260.44774802
0.15000001 568418.51554429 16737.08397991
0.15100001 560726.60960944 14063.02403257
0.15200001 553105.37732899 13963.14590955
0.15300001 545554.36954338 17643.22914360
0.15400001 538072.20561451 16263.23318218
0.15500001 530662.83993024 12417.51104039
0.15600001 523323.10520487 17253.96359290
0.15700001 516058.02866088 14676.69102781
0.15800001 508862.05884045 12136.36067617
0.15900001 501740.69197232 15654.31032843
0.16000001 494689.52149916 11946.75250812
0.16100001 487713.77541566 14221.73436245
0.16200001 480810.73617793 17633.73458174
0.16300001 473980.36072909 12825.90916681
0.16400001 467224.09017154 13876.55613320
0.16500001 460540.50852276 12614.20512397
0.16600001 453931.36289594 12508.07929514
0.16700001 447395.19955370 14656.66742939
0.16800001 440933.00151742 14530.94775111
0.16900001 434545.66517982 13297.09798237
0.17000001 428230.65417485 13180.94015790
0.17100001 421990.21852784 15242.28741299
0.17200001 415823.29710580 11869.67657641
0.17300001 409729.63678927 11763.33842774
0.17400001 403710.60027863 14836.36526090
0.17500001 397763.63744839 14701.34473440
0.17600001 391888.80909913 11445.11321028
0.17700001 386089.97686092 10308.60286907
0.17800001 380361.89857489 12255.26095092
0.17900001 374706.42045166 15175.61074509
0.18000001 369124.24405028 12026.06843921
0.18100001 363614.73937282 10919.35113916
0.18200001 358174.91753121 19663.80390134
0.18300001 352807.18451841 11684.97450324
0.18400001 347510.89850818 10607.77067808
0.18500001 342285.51397375 12414.69617832
0.18600001 337130.82018469 12293.47593882
0.18700001 332045.60841065 10300.05525952
0.18800001 327028.55243131 12979.76385924
0.18900001 322084.24924768 12851.16215217
0.19000001 317204.49189159 11814.28185871
0.19100001 312396.03349216 10796.40742762
0.19200001 307653.81474776 13359.86753669
0.19300001 302980.60970482 9698.40977493
0.19400001 298372.53919475 8727.39718385
0.19500001 293831.63675493 13821.84084610
0.19600001 289355.68818782 11115.59928702
0.19700001 284946.84866199 10155.50616624
0.19800001 280601.46750647 11726.33588127
0.19900001 276320.73865348 8289.62255137
0.20000001 272102.07752696 9844.65363019
0.20100001 267948.27661467 8118.83316514
0.20200001 263855.62762700 9641.28508917
0.20300001 259825.28464088 7950.65408580
0.20400001 255856.71498841 10227.87266509
0.20500001 251947.82736976 9342.22588045
0.20600001 248098.73306944 10784.85243631
0.20700001 244309.35383646 9909.18786001
0.20800001 240578.21755034 12067.40396275
0.20900001 236907.42424341 8208.84263808
0.21000001 233291.11493233 8122.03055032
0.21100001 229733.00151684 11688.81566975
0.21200001 226229.69222213 7950.84290902
0.21300001 222781.98144394 10011.82271940
0.21400001 219389.33243232 13443.08198033
0.21500001 216051.72579588 11200.12199477
0.21600001 212765.62202706 10388.28198661
0.21700001 209533.10374890 8222.07937984
0.21800001 206352.32968618 9490.14409097
0.21900001 203222.29106835 6706.33592234
0.22000001 200142.18465956 7298.18510869
0.22100001 197113.62160215 7220.27230069
0.22200001 194133.59068841 9740.65337337
0.22300001 191201.52645108 7066.80875179
0.22400001 188316.79493648 6991.26134261
0.22500001 185481.15532921 8174.15490189
0.22600001 182689.91471427 9330.88783527
0.22700001 179945.50640642 7384.96393215
0.22800001 177245.32900023 7306.05280689
0.22900001 174589.08688942 6625.65616079
0.23000001 171976.87060126 6554.89873296
0.23100001 169408.79178230 7664.05410269
0.23200001 166881.10218963 8165.49271631
0.23300001 164396.20998667 5770.30724344
0.23400001 161951.35456572 7421.42117397
0.23500001 159546.27529463 7342.31993632
0.23600001 157181.27990314 6146.57424133
0.23700001 154855.21224149 6081.16447235
0.23800001 152566.91145901 6563.42884141
0.23900001 150316.55335064 6493.67541190
0.24000001 148102.34973765 5889.29021588
0.24100001 145925.53278076 5826.80679955
0.24200001 143784.39699596 6289.12982209
0.24300001 141677.38656174 7259.54963082
0.24400001 139604.99888930 6156.58074225
0.24500001 137565.91534099 5076.18251621
0.24600001 135560.20812930 8036.00951805
0.24700001 133587.45072478 6460.28942266
0.24800001 131646.31141282 5408.68896026
0.24900001 129735.39966866 5838.09326128
0.25000001 127856.55381337 6739.31927033
0.25100001 126006.86939052 5239.36587713
0.25200001 124188.64624431 7069.43902191
0.25300001 122397.97439652 5596.03565416
0.25400001 120636.77895647 8305.84262411
0.25500001 118901.81734585 5022.41300231
0.25600001 117195.60065830 6325.04686678
0.25700001 115515.32498551 4917.48761730
0.25800001 113861.58541986 5750.57964371
0.25900001 112234.58041879 4377.14884344
0.26000001 110631.98279783 7796.23619665
0.26100001 109053.84573189 7714.46941209
0.26200001 107501.40326020 4240.93055928
0.26300001 105971.16066366 7553.62468952
0.26400001 104465.54832289 5813.50803925
0.26500001 102982.69454161 4519.91067731
0.26600001 101521.77167024 5285.73129213
0.26700001 100083.36735614 5230.35702553
0.26800001 98666.78060524  4379.32526440
0.26900001 97270.66257601  5121.30062697
0.27000001 95895.97104272  3898.17140736
0.27100001 94541.21201658  5400.19428594
0.27200001 93207.23625900  7633.67301086
0.27300001 91892.44428019  4154.45760251
0.27400001 90595.78120050  5231.90661193
0.27500001 89319.81406241  5546.76071578
0.27600001 88060.26204104  5122.46568535
0.27700001 86820.69321404  4706.55000188
0.27800001 85597.83557812  6089.85830042
0.27900001 84392.76640163  5316.74453493
0.28000001 83204.54674421  4559.19335463
0.28100001 82033.35937354  4511.01464545
0.28200001 80879.01182713  4806.63990038
0.28300001 79740.74873231  3736.65166245
0.28400001 78617.71147462  3696.99805708
0.28500001 77510.98174266  4655.30978381
0.28600001 76419.40336723  4276.81211188
0.28700001 75343.59207230  3905.81199790
0.28800001 74281.05718591  3864.10077771
0.28900001 73234.75812900  3504.28334234
0.29000001 72202.12287457  3466.78509392
0.29100001 71184.03367760  4053.21906946
0.29200001 70179.55149109  3701.26972084
0.29300001 69188.96123975  4576.85000266
0.29400001 68211.14531097  3018.34332289
0.29500001 67247.85212835  4180.12668617
0.29600001 66296.37066365  3248.85379816
0.29700001 65358.29361747  2921.51586300
0.29800001 64433.21151283  3178.81264047
0.29900001 63520.80868220  2858.43652602
0.30000001 62619.93613480  3392.74830039
0.30100001 61732.12820363  4194.69831001
0.30200001 60855.43043602  3042.46738868
0.30300001 59991.35453031  3009.16648570
0.30400001 59138.88950466  4328.96691668
0.30500001 58298.46276389  3478.66943781
0.30600001 57468.25495132  2911.05459238
0.30700001 56650.43067357  3140.70002523
0.30800001 55843.32061116  3882.50704930
0.30900001 55047.58308284  3583.59782836
0.31000001 54262.89819149  3037.63718458
0.31100001 53488.51322496  3254.24129868
0.31200001 52725.75442493  2475.47428745
0.31300001 51972.86221818  3182.29850429
0.31400001 51231.97309645  3388.99518079
0.31500001 50500.16950658  2872.44977754
0.31600002 49780.02315818  2840.44825589
0.31700002 49069.42552729  3042.79522102
0.31800002 48368.90373394  2314.45215325
0.31900002 47679.19631754  3432.90229741
0.32000002 46999.62228460  3394.54788024
0.32100002 46329.77732311  2461.50118573
0.32200002 45670.84294581  2655.30293460
0.32300002 45020.11268699  2187.97758019
0.32400002 44380.63545785  2379.91168912
0.32500002 43750.55740980  2567.28283037
0.32600002 43130.35867977  2961.76187079
0.32700002 42519.86643035  2719.57078566
0.32800002 41920.06979221  3310.00886753
0.32900002 41327.82489216  2864.01840065
0.33000002 40746.59790641  2832.29615460
0.33100002 40173.82829142  2000.65674365
0.33200002 39612.12856687  2176.48850717
0.33300002 39059.03003492  2543.91474664
0.33400002 38515.99494531  2903.14325648
0.33500002 37981.93278388  2871.43425444
0.33600002 37456.81264900  2272.13036289
0.33700002 36941.13844770  2247.49896959
0.33800002 36435.40989482  2593.83695325
0.33900002 35938.21736542  1832.84917244
0.34000002 35450.35922235  1994.61455611
0.34100002 34971.79206130  2511.67422479
0.34200002 34503.11220628  3017.81485204
0.34300002 34042.83516386  2107.93245318
0.34400002 33592.24916100  2433.75856698
0.34500002 33150.36446171  1892.55439675
0.34600002 32718.11539739  1873.27578580
0.34700002 32293.71114237  1854.30498162
0.34800002 31879.23108584  2002.65339166
0.34900002 31473.23625865  1652.34498184
0.35000002 31076.51812879  1636.17875697
0.35100002 30689.29269286  2430.59209639
0.35200002 30309.27093791  2086.33876383
0.35300002 29939.53514773  1748.76833081
0.35400002 29577.89009336  2205.03181090
0.35500002 29225.37292432  2184.88898331
0.35600002 28880.89664252  2165.20092384
0.35700002 28545.25559062  2299.32044673
0.35800002 28218.57546725  1975.44146915
0.35900002 27900.94950040  1807.98161326
0.36000002 27591.48335841  1643.48678409
0.36100002 27289.92338071  1926.39578269
0.36200002 26998.35802138  1911.07886306
0.36300002 26713.66549162  2771.27578937
0.36400002 26438.12590686  1736.98495436
0.36500002 26169.91410680  2586.11103453
0.36600002 25911.03577852  1711.68310461
0.36700002 25659.67865467  1841.33862748
0.36800002 25417.30645183  1547.53277662
0.36900002 25182.76350769  1537.40778497
0.37000002 24955.65073072  1527.66023185
0.37100002 24736.53206150  1380.29855442
0.37200002 24526.07875412  1783.90442268
0.37300002 24323.05915397  2046.78552476
0.37400002 24127.59246975  1492.89485479
0.37500002 23940.21033825  1890.31909785
0.37600002 23760.64232011  2149.86301897
0.37700002 23588.38716890  1471.20777742
0.37800002 23423.59655865  2263.77359665
0.37900002 23267.10338177  1724.09244226
0.38000002 23117.11278637  1717.48597583
0.38100002 22973.75484093  1448.03583622
0.38200002 22838.89814370  1312.09476051
0.38300002 22710.27740164  1569.73444837
0.38400002 22589.24912568  1565.43503857
0.38500002 22474.50353727  2472.42025126
0.38600002 22367.63314170  1298.44116539
0.38700002 22266.63436488  1425.50999957
0.38800002 22172.37433843  1423.13391433
0.38900002 22084.71744822  2067.12965108
0.39000002 22004.12165397  1548.65015537
0.39100002 21929.15184960  2063.09470375
0.39200002 21861.09754018  1675.32528936
0.39300002 21798.72993234  1288.30500004
0.39400002 21743.57030181  1803.62924199
0.39500002 21693.30523582  1932.87358809
0.39600002 21649.09111940  1675.96446841
0.39700002 21610.16460696  1677.16495461
0.39800002 21578.11542349  1937.17540392
0.39900002 21550.52008338  1680.94064614
0.40000002 21528.92094083  1683.45405273
0.40100002 21512.15783433  1686.33813253
0.40200002 21501.27662716  2079.60357391
0.40300002 21495.17375644  1432.86835049
0.40400002 21494.12473190  1697.49858113
0.40500002 21497.62684817  1309.20553708
0.40600002 21506.81093824  1969.48630498
0.40700002 21519.98467492  1712.13006186
0.40800002 21537.64331851  1585.60137624
0.40900002 21559.40772285  1723.67472911
0.41000002 21586.16986649  1863.10240945
0.41100002 21616.82857627  1469.51207624
0.41200002 21650.71362130  1609.51412687
0.41300002 21689.93428064  1346.94498265
0.41400002 21732.14637435  2164.52188145
0.41500002 21778.09984336  1630.74419354
0.41600002 21826.71701831  1911.36569986
0.41700002 21880.25246307  1509.08108388
0.41800002 21937.30320533  2068.13935768
0.41900002 21995.74674216  1801.45174354
0.42000002 22057.89660110  1392.95623636
0.42100002 22123.78035343  2100.65304410
0.42200002 22192.09692506  2112.13292493
0.42300002 22262.64925160  1415.90455949
0.42400002 22335.89402706  1851.08730521
0.42500002 22411.99453362  2148.18977784
0.42600002 22489.16404456  2016.60343543
0.42700002 22569.75093730  1448.97807884
0.42800002 22651.66735701  2040.68880889
0.42900002 22736.51540453  1466.50531309
0.43000002 22822.81237661  1623.04437907
0.43100002 22909.45625257  1632.98611907
0.43200002 22998.93665780  1792.53720805
0.43300002 23089.20151725  2104.34992600
0.43400002 23181.33259293  1663.84022570
0.43500002 23274.01265205  2130.96869941
0.43600002 23368.61155585  1531.81256008
0.43700002 23463.39816956  1849.85439935
0.43800002 23558.65399101  1861.60492659
0.43900002 23655.70622973  2029.65969070
0.44000002 23752.72885993  1571.24308854
0.44100002 23850.50159182  1897.54599657
0.44200002 23948.59081633  1909.66072219
0.44300002 24047.16018217  2242.15732164
0.44400002 24145.54160951  2417.57246822
0.44500002 24243.66857962  1784.09165532
0.44600002 24341.61974167  1958.52681723
0.44700002 24440.43649686  1806.63715147
0.44800002 24537.87804585  1652.62616471
0.44900002 24635.56815025  2494.35139343
0.45000002 24733.21226712  1840.52207808
0.45100002 24829.28476056  2188.45326251
0.45200002 24925.17137617  1693.66547528
0.45300002 25019.99226551  2044.63386484
0.45400002 25114.12580507  1885.44308417
0.45500002 25207.61890483  1896.62133629
0.45600002 25299.59307127  2254.57334340
0.45700002 25390.86978700  2093.22340445
0.45800002 25480.42157386  2105.19253021
0.45900002 25568.79465073  1940.67160597
0.46000002 25656.21804301  2483.77858646
0.46100002 25741.38624519  2140.65378161
0.46200002 25825.64093976  1972.94993310
0.46300002 25908.13792204  1983.52713332
0.46400002 25988.42869617  2175.23158497
0.46500002 26068.07534552  2004.37440832
0.46600002 26144.74070103  2564.01484207
0.46700002 26219.69277251  2024.68477186
0.46800002 26293.34147931  2589.63132504
0.46900002 26364.23814060  2416.28254011
0.47000002 26433.14287470  2054.25179587
0.47100002 26500.13946351  3189.55693700
0.47200002 26565.06643983  2638.70817454
0.47300002 26627.55387121  2271.86300397
0.47400002 26687.12722750  2091.60369559
0.47500002 26744.84070176  2482.45623160
0.47600002 26800.87190826  2492.88321870
0.47700002 26853.19440481  2502.98636911
