# SAXS profile: number of points = 501, q_min = 0, q_max = 0.5, delta_q = 0.001
#    q    intensity    error
0.00000000 1682732.95097188 252.40994265
0.00100000 1682650.34183062 504.79511454
0.00200000 1682402.44989405 1211.32980228
0.00300000 1681989.50955072 1211.03249002
0.00400000 1681411.38175275 1261.05858423
0.00500000 1680668.58662376 1815.12214540
0.00600000 1679761.00800877 1940.12404324
0.00700000 1678689.25476547 2014.42718944
0.00800000 1677453.12337652 3170.38653704
0.00900000 1676053.84301513 3519.71322079
0.01000000 1674490.81209628 3039.20095519
0.01100000 1672765.33931583 3010.97774186
0.01200000 1670877.33042617 4887.31640578
0.01300000 1668827.90283859 4906.35425074
0.01400000 1666617.19255665 4124.87773444
0.01500000 1664246.54002089 4393.61106130
0.01600000 1661715.36090928 4661.11179572
0.01700000 1659025.97185495 8510.80361740
0.01800000 1656178.25973646 8496.19485476
0.01900000 1653173.00176363 4959.51922908
0.02000000 1650011.36335663 5717.28963266
0.02100000 1646695.29263776 7064.32312570
0.02200000 1643223.42674678 6236.03318782
0.02300000 1639598.96211385 6492.81218551
0.02400000 1635821.43302499 9201.49598033
0.02500000 1631893.51115238 7000.82348258
0.02600000 1627815.04818405 7251.91637135
0.02700000 1623588.33286129 7500.97844137
0.02800000 1619213.04448379 7747.93477317
0.02900000 1614692.03755993 10172.56030369
0.03000000 1610026.29167576 9732.60938054
0.03100000 1605216.49282219 10787.05532811
0.03200000 1600263.96093865 9505.56836578
0.03300000 1595172.56694008 11389.53265301
0.03400000 1589940.45452719 9181.90654855
0.03500000 1584570.75814494 11123.68723585
0.03600000 1579064.91729333 11392.95390478
0.03700000 1573424.64652051 8968.52089994
0.03800000 1567651.63087717 11004.91495806
0.03900000 1561747.70138539 9370.48664226
0.04000000 1555712.95950017 13394.68920199
0.04100000 1549551.39909933 11714.60912036
0.04200000 1543263.68789813 12940.26662336
0.04300000 1536850.99966732 15214.82560295
0.04400000 1530316.75523720 14461.49400861
0.04500000 1523662.44465184 13667.25276357
0.04600000 1516887.82846570 13902.27759416
0.04700000 1509997.51323049 13046.37912107
0.04800000 1502991.79138775 14361.08723490
0.04900000 1495874.56362063 14584.77767419
0.05000000 1488645.09175565 13665.76257868
0.05100000 1481308.49193360 15020.46880792
0.05200000 1473862.55201400 12888.92861800
0.05300000 1466313.94999024 16628.00096805
0.05400000 1458661.99728487 12033.96203879
0.05500000 1450909.82684536 17062.70035966
0.05600000 1443058.10632547 17273.40633876
0.05700000 1435112.39361477 13734.02624798
0.05800000 1427071.28962827 17681.41410408
0.05900000 1418937.66541850 16601.57146079
0.06000000 1410715.33865179 15489.65514205
0.06100000 1402405.59099303 13042.37260572
0.06200000 1394010.54788006 14490.74032256
0.06300000 1385533.44379973 18621.57035533
0.06400000 1376973.26430314 16110.58794579
0.06500000 1368336.00059213 18965.13785535
0.06600000 1359622.61903292 21862.73273697
0.06700000 1350834.78172103 16534.21850205
0.06800000 1341975.63348695 15278.39330242
0.06900000 1333047.80396543 15396.70285666
0.07000000 1324052.32624068 16921.38952176
0.07100000 1314991.80287556 18462.48577711
0.07200000 1305869.00614827 17159.11954464
0.07300000 1296686.69196977 15832.54525079
0.07400000 1287447.15550466 15932.15929602
0.07500000 1278151.98778161 17485.12001242
0.07600000 1268802.05593051 20516.53020622
0.07700000 1259403.40259402 22102.53075188
0.07800000 1249955.86510634 19255.57100498
0.07900000 1240461.36486998 16374.09078429
0.08000000 1230924.43310179 16451.30582015
0.08100000 1221345.76341564 22533.83039227
0.08200000 1211727.27917920 16594.60586706
0.08300000 1202072.37971456 18175.33523429
0.08400000 1192382.94365899 15202.88324526
0.08500000 1182661.22662687 19833.22970161
0.08600000 1172909.07812608 24490.34270113
0.08700000 1163130.49631236 27635.98189010
0.08800000 1153325.14591958 16936.58056323
0.08900000 1143497.93005763 18524.66733703
0.09000000 1133649.08258851 20116.60391552
0.09100000 1123781.41784939 17059.00272441
0.09200000 1113896.71648454 20200.51790260
0.09300000 1104000.03323178 21792.96168009
0.09400000 1094088.36036739 18708.91184155
0.09500000 1084167.11159182 17173.20785480
0.09600000 1074238.08400435 18756.19782840
0.09700000 1064305.23529317 17209.81646377
0.09800000 1054368.29816224 18788.84395666
0.09900000 1044430.56850265 18799.75111706
0.10000000 1034492.19652526 15672.55751439
0.10100000 1024556.42458678 18810.85684012
0.10200000 1014625.73201673 23513.95244550
0.10300000 1004701.14268056 17240.67241941
0.10400000 994786.41083172 21935.04139078
0.10500000 984883.59400374 15659.64988144
0.10600001 974990.12070085 18778.31060828
0.10700001 965113.86536960 20325.29896114
0.10800001 955252.99631672 20303.90339225
0.10900001 945411.55148674 17159.22046709
0.11000001 935589.28039360 24924.09960285
0.11100001 925789.27962557 23329.89094478
0.11200001 916013.14466130 20184.35059283
0.11300001 906262.43402790 18596.50602179
0.11400001 896539.43504096 15465.30598263
0.11500001 886846.04009849 20060.45837163
0.11600001 877183.03590001 20012.93190650
0.11700001 867553.20490309 16891.26169496
0.11800001 857955.89188508 16845.96473058
0.11900001 848394.13669749 22906.64276977
0.12000001 838868.69566513 19793.10780657
0.12100001 829384.50490358 19731.05830115
0.12200001 819939.42752095 16640.67146550
0.12300001 810536.84353945 18091.18320016
0.12400001 801176.04788230 15022.05160559
0.12500001 791859.63608525 14966.14782722
0.12600001 782590.60612613 16399.18692416
0.12700001 773368.17163882 17818.40351428
0.12800001 764194.07243555 17744.58719824
0.12900001 755070.35456384 19141.03439035
0.13000001 745997.99788864 17590.63361935
0.13100001 736976.81341822 20428.99823093
0.13200001 728009.94432050 20333.31870339
0.13300001 719097.88084814 18790.02851238
0.13400001 710240.93684827 15820.61761417
0.13500001 701441.71233230 15740.35276687
0.13600001 692699.91681522 18505.47915027
0.13700001 684017.70712921 19822.83408732
0.13800001 675393.43654628 18306.53996085
0.13900001 666831.91139711 21005.20619958
0.14000001 658331.04883568 15316.07257348
0.14100001 649894.14659666 15227.02057291
0.14200001 641519.98101697 16512.72509020
0.14300001 633211.17143242 20516.04292210
0.14400001 624964.51635487 17670.87253347
0.14500001 616786.44269187 13507.62373214
0.14600001 608674.21101040 20131.90047888
0.14700001 600630.51540535 17334.19749237
0.14800001 592652.32477977 17219.51410887
0.14900001 584743.83299279 15788.08423570
0.15000001 576903.97840930 14373.56330025
0.15100001 569133.91417290 15571.50462651
0.15200001 561435.25588443 15461.92767666
0.15300001 553806.84546790 15351.52648079
0.15400001 546247.90383410 12700.26436348
0.15500001 538762.12842796 12607.03440018
0.15600001 531346.68521781 18769.82254116
0.15700001 524006.35694065 16144.63661932
0.15800001 516735.49719336 13556.55640872
0.15900001 509539.83871454 12228.95670636
0.16000001 502414.90151969 14559.98453331
0.16100001 495365.83521626 15648.60747316
0.16200001 488389.97301655 11941.13540395
0.16300001 481487.41802055 13029.05014671
0.16400001 474659.55767034 12922.60706765
0.16500001 467905.03053361 15146.08655344
0.16600001 461225.41940944 15019.80649220
0.16700001 454619.09947886 16038.96258689
0.16800001 448087.31025760 12494.91523650
0.16900001 441631.28996961 14640.07795377
0.17000001 435247.99919146 11164.11170643
0.17100001 428939.84492233 13279.97822589
0.17200001 422705.58340016 13163.05248868
0.17300001 416545.66099106 13046.21071834
0.17400001 410460.47824068 10774.58806266
0.17500001 404448.18109570 11745.17573372
0.17600001 398508.67213868 10580.40574498
0.17700001 392645.59479940 14677.09302681
0.17800001 386853.88409085 11425.73000628
0.17900001 381135.28909217 10290.65329155
0.18000001 375490.77506235 12233.49002938
0.18100001 369919.47085228 13128.44264069
0.18200001 364418.31596807 10003.28324586
0.18300001 358990.15253554 10898.94154584
0.18400001 353633.62989394 9813.33369315
0.18500001 348349.03885622 12634.62023620
0.18600001 343135.50460775 11549.94163076
0.18700001 337992.00067172 14297.06230388
0.18800001 332917.38570651 15101.13332912
0.18900001 327916.05847642 9345.60810813
0.19000001 322979.99517650 12954.72821862
0.19100001 318115.72693172 10994.08004223
0.19200001 313318.15751961 12698.78552430
0.19300001 308590.52559492 9877.98319105
0.19400001 303928.62406215 11556.88647607
0.19500001 299334.49703343 10560.52155438
0.19600001 294805.61280611 8711.50627009
0.19700001 290344.70885480 13797.18121680
0.19800001 285947.76000934 11096.20335156
0.19900001 281616.05228022 9293.33016445
0.20000001 277347.13728121 10034.41990107
0.20100001 273143.59774215 8276.25140274
0.20200001 269001.73519283 11467.54451327
0.20300001 264922.93231124 8917.30632307
0.20400001 260906.16028858 10429.72425050
0.20500001 256949.92643778 8733.72841244
0.20600001 253054.02223601 12571.72441893
0.20700001 249218.45741404 8553.17786275
0.20800001 245441.56524540 8464.05277759
0.20900001 241725.69100176 8375.79558915
0.21000001 238064.84599088 11302.12909770
0.21100001 234462.74067985 8947.09860730
0.21200001 230916.12077296 8853.32448897
0.21300001 227425.59067089 10220.50652793
0.21400001 223990.60484688 9390.80655217
0.21500001 220611.22064354 9292.14505282
0.21600001 217284.02164924 9194.37381078
0.21700001 214010.81308605 8397.78470254
0.21800001 210790.05079398 9001.78954477
0.21900001 207620.29063897 9592.05788105
0.22000001 204501.24108157 10168.82469359
0.22100001 201434.00693265 6707.75274802
0.22200001 198416.01641619 10619.22570072
0.22300001 195446.48018626 8537.10265822
0.22400001 192524.68972084 9096.79201946
0.22500001 189652.56559494 7715.06673323
0.22600001 186825.40835919 6997.54600099
0.22700001 184045.45926742 6923.79050506
0.22800001 181310.24728164 7473.60874638
0.22900001 178619.52572375 6778.61132178
0.23000001 175973.18367842 9146.20665423
0.23100001 173371.63044976 6636.66632748
0.23200001 170810.82178965 8357.77390544
0.23300001 168293.27260678 6497.80356266
0.23400001 165815.99172089 9352.02237537
0.23500001 163379.32998356 6940.35426595
0.23600001 160982.97570136 7439.82857392
0.23700001 158626.02575754 5662.94938739
0.23800001 156307.25524268 9526.14612134
0.23900001 154026.74978664 7208.45223097
0.24000001 151783.05606037 8230.43660418
0.24100001 149576.99957501 5429.64534140
0.24200001 147407.01162851 5910.28441081
0.24300001 145271.70515184 5848.63912607
0.24400001 143171.21193943 7892.31343150
0.24500001 141104.40559888 5206.75281290
0.24600001 139071.32540695 6698.37070509
0.24700001 137071.82071764 5608.97916910
0.24800001 135104.10783261 5046.13866626
0.24900001 133167.04911737 5493.14103596
0.25000001 131262.29603769 6424.63338350
0.25100001 129387.13326595 4890.83386883
0.25200001 127543.90601014 4840.29146208
0.25300001 125728.27449750 6706.34647898
0.25400001 123942.58356746 6163.04525947
0.25500001 122183.38248315 5161.02632027
0.25600001 120453.35163102 5572.17231009
0.25700001 118749.62654630 5514.73291773
0.25800001 117072.57771106 5457.92383113
0.25900001 115422.63113849 6302.07595834
0.26000001 113797.33537653 5346.19906895
0.26100001 112196.85114236 6614.00468779
0.26200001 110622.11653692 5236.85124465
0.26300001 109070.24126316 5183.01811007
0.26400001 107542.80363623 5129.79197618
0.26500001 106038.61137516 5923.31711170
0.26600001 104556.64953709 6281.24101817
0.26700001 103097.36665403 4558.96576917
0.26800001 101660.28223169 4512.19184037
0.26900001 100243.65895961 5277.82889398
0.27000001 98848.74596577  7634.58325595
0.27100001 97474.08120734  5965.41405219
0.27200001 96120.27230018  4723.35040436
0.27300001 94786.10257958  5064.42170050
0.27400001 93469.89497954  5783.45002556
0.27500001 92174.90613915  4579.24955371
0.27600001 90896.37057910  5287.44212682
0.27700001 89638.01941484  4859.27726245
0.27800001 88396.45244726  4069.33088100
0.27900001 87172.98687226  5125.77187068
0.28000001 85966.46369685  3985.83527795
0.28100001 84777.11933213  5020.50124446
0.28200001 83604.81983377  4258.82972390
0.28300001 82448.70111244  3863.54631699
0.28400001 81307.97637357  6604.24069353
0.28500001 80183.74641650  4471.84774931
0.28600001 79074.76268058  4085.00243343
0.28700001 77981.55747244  5390.08550762
0.28800001 76901.81781443  5667.27973208
0.28900001 75838.57321332  3628.87590003
0.29000001 74788.89019849  3590.98873286
0.29100001 73753.94995620  4845.63474149
0.29200001 72732.67804715  3835.92162178
0.29300001 71725.44503257  5060.94764106
0.29400001 70731.13291033  4381.79389121
0.29500001 69751.30582576  4026.04556284
0.29600001 68783.42686262  3983.59235532
0.29700001 67829.03388961  4851.13273343
0.29800001 66887.67403794  4499.86848392
0.29900001 65959.14450637  3561.79397196
0.30000001 65041.99638019  3817.64015826
0.30100001 64138.25730385  4067.64847077
0.30200001 63245.49977098  3161.95891074
0.30300001 62365.64496620  3697.03560862
0.30400001 61497.20468598  4782.94532089
0.30500001 60640.96783219  3618.44672185
0.30600001 59794.85123771  3304.26363583
0.30700001 58961.20927178  4086.01199598
0.30800001 58138.41146591  2964.18704893
0.30900001 57327.02266827  5064.84269253
0.31000001 56526.72247184  3164.36607379
0.31100001 55736.70935280  3651.86936969
0.31200001 54958.35961403  3096.35412725
0.31300001 54189.80719567  3318.04205169
0.31400001 53433.32387243  2524.72467251
0.31500001 52685.88384117  3496.23541724
0.31600002 51950.25488561  2964.28168412
0.31700002 51224.10235088  3176.40673717
0.31800002 50507.98869531  2658.48811085
0.31900002 49802.80542171  2629.58825077
0.32000002 49107.80987670  2364.54115752
0.32100002 48422.33879988  2572.67898225
0.32200002 47747.88414378  2544.72360594
0.32300002 47081.79729445  2745.81054823
0.32400002 46426.81284789  2715.96868021
0.32500002 45781.10148745  3134.17435624
0.32600002 45145.32814724  2657.25414057
0.32700002 44519.36454954  3066.49397538
0.32800002 43903.94037130  2383.32551591
0.32900002 43296.24476009  2571.79706053
0.33000002 42699.40746219  2756.03338516
0.33100002 42111.03093460  2097.12943985
0.33200002 41533.77936399  3319.37980396
0.33300002 40965.08607187  2052.35090939
0.33400002 40406.27126927  2436.49827292
0.33500002 39856.63821017  2209.65212701
0.33600002 39315.85580423  3179.86656803
0.33700002 38784.42094409  1966.37023499
0.33800002 38263.09790074  2334.81434447
0.33900002 37750.20043056  2310.31237576
0.34000002 37246.57939081  2476.71141388
0.34100002 36752.29834444  2073.93229380
0.34200002 36267.78239212  2612.36848942
0.34300002 35791.65237286  1846.84934991
0.34400002 35325.26682840  2010.89090944
0.34500002 34867.59038468  2714.44204000
0.34600002 34419.53394216  2149.84419185
0.34700002 33979.23252357  1773.71602174
0.34800002 33548.91030907  2810.05686058
0.34900002 33126.99257320  1913.08391171
0.35000002 32714.35824857  2755.85766938
0.35100002 32311.17977454  2217.83948477
0.35200002 31915.23096878  1689.91155984
0.35300002 31529.47050300  2176.47945191
0.35400002 31151.76204625  1658.83140753
0.35500002 30783.21358549  1972.58841999
0.35600002 30422.90357920  1954.97587660
0.35700002 30071.17202374  1776.30421558
0.35800002 29728.46440245  2401.31682585
0.35900002 29394.76792323  2539.70806886
0.36000002 29069.28761139  1731.51219859
0.36100002 28751.68608262  1561.21662824
0.36200002 28444.04382579  2013.41173758
0.36300002 28143.35086225  1690.28973285
0.36400002 27851.69840570  1677.36861594
0.36500002 27567.45810917  1967.48957845
0.36600002 27292.47512669  1502.45082689
0.36700002 27025.04891346  1640.96104775
0.36800002 26766.66105018  1629.68823524
0.36900002 26515.99635725  1913.12922780
0.37000002 26272.83485296  1608.29166171
0.37100002 26037.64867127  1452.90086468
0.37200002 25811.17297293  2455.02983361
0.37300002 25592.12350986  1435.71819691
0.37400002 25380.74201956  1570.43348685
0.37500002 25177.31751014  1420.00077484
0.37600002 24981.72184401  1695.25972464
0.37700002 24793.48089601  1546.36947674
0.37800002 24612.69031163  1539.15466155
0.37900002 24440.28319338  1393.09620802
0.38000002 24274.44139663  1664.74126984
0.38100002 24115.24032007  2625.42633802
0.38200002 23964.46300408  1514.43431129
0.38300002 23820.14218312  1646.44830570
0.38400002 23683.27991975  2051.56422024
0.38500002 23552.78941445  2181.93051472
0.38600002 23430.20051294  1496.13552463
0.38700002 23313.52594089  2985.06400289
0.38800002 23203.55289498  1624.71285068
0.38900002 23100.30867043  1351.36812124
0.39000002 23004.22572657  1484.11769306
0.39100002 22913.71853371  1751.52472770
0.39200002 22830.29079509  1480.43027675
0.39300002 22752.46050258  1344.67047941
0.39400002 22682.00589407  1478.29980418
0.39500002 22616.34758426  1477.75222117
0.39600002 22556.91903190  1880.57042879
0.39700002 22502.82928913  1746.44466387
0.39800002 22455.63823102  1343.97001180
0.39900002 22413.00359853  1479.25830759
0.40000002 22376.37263922  1345.93887802
0.40100002 22344.75378311  1482.12758866
0.40200002 22318.97045412  1888.85455903
0.40300002 22298.09154430  1756.64373509
0.40400002 22282.33192234  1624.38207410
0.40500002 22271.18352808  1627.57816935
0.40600002 22265.78084928  1767.12378083
0.40700002 22264.56153536  1498.85035358
0.40800002 22267.72962723  1912.57538830
0.40900002 22275.18783904  1917.89376381
0.41000002 22287.81479805  1648.85261689
0.41100002 22304.28579397  1516.24542012
0.41200002 22324.17068608  1382.98243953
0.41300002 22349.45292831  1387.90109261
0.41400002 22377.79512527  1671.62137506
0.41500002 22409.89112290  1957.72818126
0.41600002 22444.80670335  1684.70727098
0.41700002 22484.70750065  1550.77034980
0.41800002 22528.35252323  1557.49772549
0.41900002 22573.40462845  1990.97438257
0.42000002 22622.29917984  1571.45808699
0.42100002 22675.02172534  2152.99341484
0.42200002 22730.21479660  2307.57151550
0.42300002 22787.87487740  2029.03247523
0.42400002 22848.18446654  1893.54337739
0.42500002 22911.58872392  2049.67082437
0.42600002 22976.10908178  1471.61985642
0.42700002 23044.19788202  1627.38133154
0.42800002 23113.69415668  1933.57617630
0.42900002 23186.24546480  1645.06419368
0.43000002 23260.44020268  1654.16628340
0.43100002 23335.01568171  1965.74181418
0.43200002 23412.56161489  1672.71054384
0.43300002 23491.01997471  1682.19202010
0.43400002 23571.42044470  2460.85641104
0.43500002 23652.60924296  2010.94493313
0.43600002 23735.72917567  2333.81568179
0.43700002 23819.22457853  1721.41544187
0.43800002 23903.32685952  2518.45463727
0.43900002 23989.29116227  1741.62262092
0.44000002 24075.33544429  2388.87527267
0.44100002 24162.31584107  2082.55010103
0.44200002 24249.73448261  1611.39493273
0.44300002 24337.68095989  1782.97859162
0.44400002 24425.69200685  2119.53952434
0.44500002 24513.49293315  2623.92440792
0.44600002 24601.24735237  1814.46508446
0.44700002 24690.14043083  2322.84852182
0.44800002 24777.63131992  2169.40561303
0.44900002 24865.66685038  1678.43259194
0.45000002 24953.65182575  2194.54901382
0.45100002 25040.23794353  2376.81949824
0.45200002 25126.78649913  2731.78435765
0.45300002 25212.29584080  2403.74039938
0.45400002 25297.38549861  1899.20130632
0.45500002 25381.98461106  1909.74061264
0.45600002 25465.11362564  2793.01379483
0.45700002 25547.68011664  1755.12570720
0.45800002 25628.76301685  2117.44850081
0.45900002 25708.66999825  2483.45763953
0.46000002 25787.78621843  1961.54805167
0.46100002 25864.81778829  2688.64793652
0.46200002 25941.05230714  2342.08801855
0.46300002 26015.69559403  2353.90024891
0.46400002 26088.28366505  2365.55523344
0.46500002 26160.30128513  2925.76823440
0.46600002 26229.52815852  2939.80565534
0.46700002 26297.06273900  2030.65928095
0.46800002 26363.54682690  2596.54585005
0.46900002 26427.31812564  2235.75121940
0.47000002 26489.31577354  1871.47024810
0.47100002 26549.49414422  1879.70427450
0.47200002 26607.73491298  2265.38265786
0.47300002 26663.71783274  2654.10659887
0.47400002 26716.88458532  2093.93592862
0.47500002 26768.30739156  2484.63440985
0.47600002 26818.11204193  2302.60320906
0.47700002 26864.43331826  2696.65194430
