# SAXS profile: number of points = 501, q_min = 0, q_max = 0.5, delta_q = 0.001
#    q    intensity    error
0.00000000 1700912.83420644 280.65061764
0.00100000 1700829.77560148 561.27383928
0.00200000 1700580.54094756 765.26126766
0.00300000 1700165.36219536 1224.11910439
0.00400000 1699584.08721576 1657.09454800
0.00500000 1698837.27029387 1528.95360378
0.00600000 1697924.76693791 1961.10318565
0.00700000 1696847.18956038 2647.08172573
0.00800000 1695604.33379766 2975.78573145
0.00900000 1694197.45552923 2541.29629193
0.01000000 1692625.91305847 3630.68274028
0.01100000 1690891.05274620 3652.32483295
0.01200000 1688992.75245619 4281.59681520
0.01300000 1686932.17922965 3542.55773263
0.01400000 1684709.39607395 4927.77520197
0.01500000 1682325.80764264 4037.58211813
0.01600000 1679780.78554728 4711.78531409
0.01700000 1677076.70104695 6792.16094393
0.01800000 1674213.42537441 7634.41356324
0.01900000 1671191.73979528 6016.29053473
0.02000000 1668012.69075448 7881.36032033
0.02100000 1664678.43866961 6042.78300634
0.02200000 1661187.52420544 6877.31666266
0.02300000 1657543.08695107 10144.16415389
0.02400000 1653744.75853925 6821.69744003
0.02500000 1649795.20214694 9651.30237334
0.02600000 1645694.21014654 8664.58041272
0.02700000 1641444.03853577 8962.28486089
0.02800000 1637044.50822775 9969.60151231
0.02900000 1632498.45424093 11019.36507207
0.03000000 1627806.79173746 10597.02270131
0.03100000 1622970.14586706 9348.30847034
0.03200000 1617990.09859146 8809.95649260
0.03300000 1612870.22669141 9870.76624240
0.03400000 1607608.72357966 8439.94618822
0.03500000 1602208.97469799 11247.50752177
0.03600000 1596672.12329781 11519.98990198
0.03700000 1591000.20352061 9068.70157947
0.03800000 1585194.57109387 10200.72753707
0.03900000 1579257.27779863 10423.09851616
0.04000000 1573188.30255920 13545.15191270
0.04100000 1566991.72935071 9872.04835264
0.04200000 1560668.29931388 17112.72869589
0.04300000 1554219.02860044 15386.76909737
0.04400000 1547647.42935141 13580.60682327
0.04500000 1540954.91154514 13822.36619881
0.04600000 1534141.36168109 12978.83652317
0.04700000 1527211.35711298 13195.10673913
0.04800000 1520165.07492479 17877.14211291
0.04900000 1513006.68805745 15886.57096408
0.05000000 1505735.25955109 14974.53785354
0.05100000 1498355.89800463 17530.76482331
0.05200000 1490866.42546553 17778.58295218
0.05300000 1483273.64372576 16820.32390398
0.05400000 1475576.70673988 19477.61343728
0.05500000 1467778.81420472 13562.27687592
0.05600000 1459880.77714117 14978.37747242
0.05700000 1451887.85820076 13894.56745156
0.05800000 1443798.86780771 12777.62057672
0.05900000 1435616.69943352 12920.55089837
0.06000000 1427345.10402474 13060.20831198
0.06100000 1418985.51858884 14516.22253353
0.06200000 1410539.85180840 17328.48288946
0.06300000 1402011.33774730 14805.24041884
0.06400000 1393399.22860289 17661.33604850
0.06500000 1384709.42242475 15079.48631559
0.06600000 1375942.65971380 16593.86925255
0.06700000 1367101.00932679 26494.41880066
0.06800000 1358187.26986163 14057.23890107
0.06900000 1349204.14766620 14166.64421376
0.07000000 1340152.75419313 27117.99225099
0.07100000 1331035.83985828 18687.74406690
0.07200000 1321855.88651190 18816.61942600
0.07300000 1312615.91320052 21855.05597882
0.07400000 1303318.08641667 20527.26082306
0.07500000 1293964.02982464 16226.30969457
0.07600000 1284554.49552950 17803.92614270
0.07700000 1275095.87231408 17902.34688670
0.07800000 1265587.60109656 20996.09928683
0.07900000 1256032.03106917 15072.38507978
0.08000000 1246433.20571869 19687.41340788
0.08100000 1236792.26582655 21297.56381678
0.08200000 1227111.03114754 19860.79297109
0.08300000 1217392.58607665 21474.80622625
0.08400000 1207639.45643042 21556.36530911
0.08500000 1197853.09034346 18542.76670901
0.08600000 1188036.23008431 21705.42294274
0.08700000 1178192.16608520 17107.35105488
0.08800000 1168320.95707034 17156.79406033
0.08900000 1158427.30845418 17202.64633855
0.09000000 1148511.54699261 18812.62002347
0.09100000 1138576.51306134 17283.59228027
0.09200000 1128624.09939170 26765.32177469
0.09300000 1118659.11343648 26814.26020913
0.09400000 1108678.72599873 22118.14162317
0.09500000 1098688.29042517 15821.11212576
0.09600000 1088689.75409481 15840.43666670
0.09700000 1078687.11306156 15856.70130747
0.09800000 1068679.76197114 22217.85329601
0.09900000 1058671.19274026 19056.08236539
0.10000000 1048661.71769801 15887.22577026
0.10100000 1038654.27655161 19069.69341437
0.10200000 1028651.56961178 15892.66749803
0.10300000 1018654.79508319 17480.11710591
0.10400000 1008667.38931928 22241.11698083
0.10500000 998691.56679022 17467.11632498
0.10600001 988724.67765305 17455.93500533
0.10700001 978774.81273237 20612.99852614
0.10800001 968839.79178194 17424.58447523
0.10900001 958924.01033491 25315.59506434
0.11000001 949027.23576895 18961.56506318
0.11100001 939152.50122864 18933.31531602
0.11200001 929301.03367065 17326.81858849
0.11300001 919474.85343075 20439.92695409
0.11400001 909676.12526401 18830.29667958
0.11500001 899906.78121038 25053.40596861
0.11600001 890167.31093852 20309.16815545
0.11700001 880461.09848840 21817.82704805
0.11800001 870787.02366286 15543.54910446
0.11900001 861148.17698654 17050.73470745
0.12000001 851545.61819333 21637.77517754
0.12100001 841984.12283704 21571.63424328
0.12200001 832461.26915275 16894.80225339
0.12300001 822981.05930423 22961.17263639
0.12400001 813542.24123776 22880.87661290
0.12500001 804147.69460113 25837.26664500
0.12600001 794800.33584820 15140.94711140
0.12700001 785499.43598010 24130.54381049
0.12800001 776246.71124043 19526.48694152
0.12900001 767044.23163428 19444.57218839
0.13000001 757892.89289042 22338.89407089
0.13100001 748792.63138334 22239.14220039
0.13200001 739746.75795958 16233.74336869
0.13300001 730755.54046729 19094.64317259
0.13400001 721819.15898601 17540.20639030
0.13500001 712940.50066966 15998.38558932
0.13600001 704119.21291846 18810.54566005
0.13700001 695357.38539780 14393.89855645
0.13800001 686653.35883665 15748.39552755
0.13900001 678012.22667761 18509.73466118
0.14000001 669431.62199698 16990.17536755
0.14100001 660914.93462160 15485.23764851
0.14200001 652460.86113564 18193.87197089
0.14300001 644072.35566238 13911.96353850
0.14400001 635745.73802181 16592.96454506
0.14500001 627487.92953614 17864.58219660
0.14600001 619295.71178974 20483.20663373
0.14700001 611172.20286467 14924.82589806
0.14800001 603114.29484401 20219.40768857
0.14900001 595125.97432249 17407.43557023
0.15000001 587206.23575280 17290.28842755
0.15100001 579356.65728080 14530.26565021
0.15200001 571578.19244745 15741.26416279
0.15300001 563870.40090084 15630.48825056
0.15400001 556231.71507301 15518.86558289
0.15500001 548666.52324621 16690.43642482
0.15600001 541171.63107461 15293.51101594
0.15700001 533752.09525559 16444.90283097
0.15800001 526401.84422177 15065.62149271
0.15900001 519127.19919976 13704.95870576
0.16000001 511923.32192884 16071.83345059
0.16100001 504795.31746068 12266.52679333
0.16200001 497740.72408196 15820.68966178
0.16300001 490759.54549564 18109.02808368
0.16400001 483853.16549999 19160.58625836
0.16500001 477020.26882998 15441.14683102
0.16600001 470262.67863341 15314.10485272
0.16700001 463578.09839109 11682.16863103
0.16800001 456968.49208790 13900.98218567
0.16900001 450434.91578785 21823.57270039
0.17000001 443974.30709440 17081.91227206
0.17100001 437588.72134777 13547.74745267
0.17200001 431277.25746437 19025.79711149
0.17300001 425040.60757063 16640.34057222
0.17400001 418878.65151850 17592.90419462
0.17500001 412789.84856277 18526.00927844
0.17600001 406774.10706231 12959.82366309
0.17700001 400834.95598186 10702.29383019
0.17800001 394967.52353909 11665.36635871
0.17900001 389173.22649279 13659.98089511
0.18000001 383453.63707355 13533.99675979
0.18100001 377807.25576579 11345.55242657
0.18200001 372231.18722271 11239.52122912
0.18300001 366728.63956722 15182.56639530
0.18400001 361297.65477285 13033.81351166
0.18500001 355939.16294341 18868.33591901
0.18600001 350651.90411429 12786.52228761
0.18700001 345434.81190470 10715.38837153
0.18800001 340287.05901320 11576.56629458
0.18900001 335212.90688853 12419.63878702
0.19000001 330204.34134592 12298.46127452
0.19100001 325267.86124648 13114.80078513
0.19200001 320398.24223761 9275.52955106
0.19300001 315599.19961853 11020.72457144
0.19400001 310865.92440162 12729.96020579
0.19500001 306200.96628289 12603.23236777
0.19600001 301601.25321589 13368.47618054
0.19700001 297070.12532117 12352.17639459
0.19800001 292603.23968919 8734.20711749
0.19900001 288201.93951516 12104.48203169
0.20000001 283863.76788308 10270.19160739
0.20100001 279591.36776765 12707.42826562
0.20200001 275380.95591642 13416.56080636
0.20300001 271234.02679703 12449.64241841
0.20400001 267149.28168561 9036.32488012
0.20500001 263125.58945792 10569.75542812
0.20600001 259162.78066129 12070.50707985
0.20700001 255260.44409298 8760.53885537
0.20800001 251417.20211568 11822.89448836
0.20900001 247635.37483469 11700.77201405
0.21000001 243908.94733793 13895.49338671
0.21100001 240241.80068940 11459.53443462
0.21200001 236630.45072459 12096.54921290
0.21300001 233075.50961281 11222.58631841
0.21400001 229576.55840655 8144.22879450
0.21500001 226133.61748758 10257.42137418
0.21600001 222743.33032447 8700.35489381
0.21700001 219407.44852653 7892.08629663
0.21800001 216124.38935646 8519.62383124
0.21900001 212892.55911776 7728.00026137
0.22000001 209712.05260812 9732.73682173
0.22100001 206583.69745257 10318.85617567
0.22200001 203505.21511859 9530.14967463
0.22300001 200475.52975032 9430.36936537
0.22400001 197493.79017531 7998.49888032
0.22500001 194562.37277721 7914.79769885
0.22600001 191676.28249628 10442.52436421
0.22700001 188837.95710052 9041.56181354
0.22800001 186044.57150961 6390.63133357
0.22900001 183296.33042934 7588.46843864
0.23000001 180592.88034797 8760.56103998
0.23100001 177934.51306502 8049.75775176
0.23200001 175317.52513650 8578.28691063
0.23300001 172744.20884253 6063.32201713
0.23400001 170211.33172463 7199.93967248
0.23500001 167719.85568546 7718.46812370
0.23600001 165269.09060028 8812.97467309
0.23700001 162858.00438590 6395.43413472
0.23800001 160485.66311251 7479.43468313
0.23900001 158152.08616118 7970.86551954
0.24000001 155855.61393824 6197.59878140
0.24100001 153597.42169086 5575.58667111
0.24200001 151375.65644157 6621.17152595
0.24300001 149189.10830894 7098.41810911
0.24400001 147037.70439022 6484.36307034
0.24500001 144920.48796521 7486.59276243
0.24600001 142837.41724916 5821.33921537
0.24700001 140788.50310548 5761.06581961
0.24800001 138771.84674595 5701.44159327
0.24900001 136786.03276623 6155.37176568
0.25000001 134833.18690746 7614.70459084
0.25100001 132910.45581347 5526.41701417
0.25200001 131020.06238507 5469.43276302
0.25300001 129157.62111128 4920.90559715
0.25400001 127325.68643229 5357.22851010
0.25500001 125520.60331859 5783.98967457
0.25600001 123745.33891109 4770.38304072
0.25700001 121996.71538111 8026.16428467
0.25800001 120275.11362333 6541.76373949
0.25900001 118581.22382403 6012.06833234
0.26000001 116912.32518913 5492.54129727
0.26100001 115268.88137709 5436.08070296
0.26200001 113651.40215618 4931.90282993
0.26300001 112057.45741295 6212.46573293
0.26400001 110488.21887750 4391.90690820
0.26500001 108942.77239412 6954.90691874
0.26600001 107419.95392824 4732.38629424
0.26700001 105920.37806836 5109.59927981
0.26800001 104443.38108089 4635.71968864
0.26900001 102987.23849852 7507.77004182
0.27000001 101553.22096945 4540.95249054
0.27100001 100140.03113603 5719.99884918
0.27200001 98748.00560347  6065.59653124
0.27300001 97376.21481192  4802.59514180
0.27400001 96022.66451153  4357.02860841
0.27500001 94690.85575623  4704.24193660
0.27600001 93375.93058610  5431.67813925
0.27700001 92081.71515246  3839.80770358
0.27800001 90804.53993124  4560.20421117
0.27900001 89546.03472070  4889.21372715
0.28000001 88304.76401303  4466.45517517
0.28100001 87081.16385392  4051.88674589
0.28200001 85874.98170213  4374.47177495
0.28300001 84685.59414019  3968.36712923
0.28400001 83511.86467423  3570.13238380
0.28500001 82355.10227107  4239.64086558
0.28600001 81213.92943215  3845.88581029
0.28700001 80089.02540591  3459.84606130
0.28800001 78977.88095711  3766.06043170
0.28900001 77883.86224071  4743.12743497
0.29000001 76803.62909300  4693.46999603
0.29100001 75738.58611944  4312.55529777
0.29200001 74687.54813608  3939.02147515
0.29300001 73651.10859853  3572.81544724
0.29400001 72627.85419687  4499.29578048
0.29500001 71619.46929314  3815.88550457
0.29600001 70623.53240563  3146.27851761
0.29700001 69641.36121148  4046.85969157
0.29800001 68672.60097869  5235.94270948
0.29900001 67717.20386707  3047.27431827
0.30000001 66773.39807772  3316.30097252
0.30100001 65843.50682655  3280.98210049
0.30200001 64924.88984441  4426.25457468
0.30300001 64019.58838249  3503.15204213
0.30400001 63126.07281606  3465.62156167
0.30500001 62245.07803411  4571.27874724
0.30600001 61374.58832810  3108.92991894
0.30700001 60516.89808487  3634.64507105
0.30800001 59670.50134637  3318.87344201
0.30900001 58835.84852912  3283.04050336
0.31000001 58012.64701417  3247.54813361
0.31100001 57199.97180403  2944.65468789
0.31200001 56399.34498863  4236.71899614
0.31300001 55608.87573114  2881.09598804
0.31400001 54830.82337322  3627.05913787
0.31500001 54061.95448854  2818.79044049
0.31600002 53305.48299090  2788.14341985
0.31700002 52558.74056982  3509.87286144
0.31800002 51822.37359389  3471.58097143
0.31900002 51097.24794204  2943.20162082
0.32000002 50382.74245567  2668.52208052
0.32100002 49677.81793489  2879.32646384
0.32200002 48984.39716139  3559.94123227
0.32300002 48299.66240680  3051.57281536
0.32400002 47626.34782086  2786.14147945
0.32500002 46962.46369629  2755.75750019
0.32600002 46308.88999325  3407.17674259
0.32700002 45665.45763184  3145.43687063
0.32800002 45032.80214198  2889.07955823
0.32900002 44408.23976359  2637.84956687
0.33000002 43794.68597035  2391.84688753
0.33100002 43189.94608495  2796.11724195
0.33200002 42596.57861456  2766.00896332
0.33300002 42012.07355848  2946.72697893
0.33400002 41437.62765853  2915.13724383
0.33500002 40872.73194841  2471.98294530
0.33600002 40316.99320540  2853.23374427
0.33700002 39770.76574788  2419.65350269
0.33800002 39234.95832849  2394.11727058
0.33900002 38707.76321407  2763.73442437
0.34000002 38190.13501131  2148.76804817
0.34100002 37682.19110402  2319.71579422
0.34200002 37184.10270161  2295.74660952
0.34300002 36694.56526163  3597.53534863
0.34400002 36215.16996694  1874.13513455
0.34500002 35744.65170400  1855.14751130
0.34600002 35284.09120812  2020.19073780
0.34700002 34831.39922204  2000.01903805
0.34800002 34388.88425479  2520.36144640
0.34900002 33955.02266397  1782.63877429
0.35000002 33530.69875138  1941.93051016
0.35100002 33116.01453850  2273.08334558
0.35200002 32708.77702573  1905.12280810
0.35300002 32311.93192341  2402.06913296
0.35400002 31923.16581596  3059.83558838
0.35500002 31543.91469971  1684.44512475
0.35600002 31173.17182185  2503.98514519
0.35700002 30811.04888726  2316.37476506
0.35800002 30458.29022840  1804.19690714
0.35900002 30114.59437915  1788.80699085
0.36000002 29779.31946045  1773.80524768
0.36100002 29452.14220877  1759.17653746
0.36200002 29135.14073530  1586.40848818
0.36300002 28825.12940794  2360.77821033
0.36400002 28524.36203756  1561.70889553
0.36500002 28231.22168956  2169.85180184
0.36600002 27947.45872028  2153.91074560
0.36700002 27671.44374282  2138.44927374
0.36800002 27404.60696691  1516.84506747
0.36900002 27145.61337280  2259.87242033
0.37000002 26894.28342558  1945.66702659
0.37100002 26651.08741783  1635.84382320
0.37200002 26416.69914028  1625.81582560
0.37300002 26189.94680871  2056.95851980
0.37400002 25970.99382613  2045.21586069
0.37500002 25760.00961903  1888.72399474
0.37600002 25557.11688894  1878.83153709
0.37700002 25361.72968992  1581.81115569
0.37800002 25173.76572668  1860.46724416
0.37900002 24994.42660636  2421.96005289
0.38000002 24821.74561113  1418.56282888
0.38100002 24655.78902183  2542.99820018
0.38200002 24498.39843296  1407.43305665
0.38300002 24347.66457981  1682.91065548
0.38400002 24204.33931973  1397.80066193
0.38500002 24067.55038791  1532.86235682
0.38600002 23938.77274827  1945.50415342
0.38700002 23815.97038173  2079.13431282
0.38800002 23699.95998635  2212.62836915
0.38900002 23590.84232357  1518.07077544
0.39000002 23488.91069517  1790.91208080
0.39100002 23392.61230208  1788.13136909
0.39200002 23303.68626092  2198.00379226
0.39300002 23220.21761552  1372.31492609
0.39400002 23144.37021302  1645.56480011
0.39500002 23073.24226126  1918.77091735
0.39600002 23008.46014422  1507.16925315
0.39700002 22949.14057037  1781.08288405
0.39800002 22896.80595436  1644.44868155
0.39900002 22849.01132277  1919.31704205
0.40000002 22807.34582386  1646.23429956
0.40100002 22770.75583907  1510.38430637
0.40200002 22740.03000127  1924.48883019
0.40300002 22714.32989035  1514.13730223
0.40400002 22693.82514290  1516.51493703
0.40500002 22677.88764597  1519.19176538
0.40600002 22667.80645409  1522.25661455
0.40700002 22661.91304095  1802.98188696
0.40800002 22660.51417870  1529.24487181
0.40900002 22663.54699710  1533.18902700
0.41000002 22671.64346271  1677.24826284
0.41100002 22683.73993873  1682.22623356
0.41200002 22699.18630247  1406.21465807
0.41300002 22720.15730722  1410.92183563
0.41400002 22744.16508801  1840.57164696
0.41500002 22771.99237470  1563.06963066
0.41600002 22802.60082487  2282.08439869
0.41700002 22838.28337537  2147.94065323
0.41800002 22877.84582046  2013.02174913
0.41900002 22918.75843535  1443.88184984
0.42000002 22963.53089912  1740.17645399
0.42100002 23012.21306982  1602.34047198
0.42200002 23063.30427896  1756.04007101
0.42300002 23116.98306986  1470.24019291
0.42400002 23173.19495067  1772.74949773
0.42500002 23232.71234194  1781.48446680
0.42600002 23293.29655429  1790.32285800
0.42700002 23357.38541881  2099.36190092
0.42800002 23422.96812724  2260.90210562
0.42900002 23491.59321363  1515.20783408
0.43000002 23562.00505929  2437.25391883
0.43100002 23632.67408573  2297.09602999
0.43200002 23706.36336193  2309.59255998
0.43300002 23780.99504329  2786.65713123
0.43400002 23857.61329038  1868.05120916
0.43500002 23934.95747347  1565.34629294
0.43600002 24014.29552830  2046.37829042
0.43700002 24094.03843438  3007.65896029
0.43800002 24174.32720418  2069.44337838
0.43900002 24256.53507163  1600.93139060
0.44000002 24338.76603861  1610.00944975
0.44100002 24422.01081486  1781.09733313
0.44200002 24505.65758500  1954.08122843
0.44300002 24589.85327666  3275.36861167
0.44400002 24674.15264248  1976.39972033
0.44500002 24758.18587077  1821.95498457
0.44600002 24842.23551052  2498.50795488
0.44700002 24927.37181514  1675.11946536
0.44800002 25011.11519402  2358.29816341
0.44900002 25095.39368273  2032.72698464
0.45000002 25179.64043543  1873.74303180
0.45100002 25262.53656218  1884.08006610
0.45200002 25345.39582241  1894.44170053
0.45300002 25427.08960917  1904.74337289
0.45400002 25508.52232434  2089.14807737
0.45500002 25589.39811129  2625.47237065
0.45600002 25668.77291325  1935.55391326
0.45700002 25747.61396191  2122.63339562
0.45800002 25824.97672402  1778.04973172
0.45900002 25901.06846782  1965.89118988
0.46000002 25976.52409146  2335.15974388
0.46100002 26049.70026036  2166.29317632
0.46200002 26122.17339572  1814.18502832
0.46300002 26193.11244361  2005.34478373
0.46400002 26261.92414373  2014.94622543
0.46500002 26330.23357535  2024.53175556
0.46600002 26395.69659851  3143.33167841
0.46700002 26459.39550368  2043.19461763
0.46800002 26522.16573000  2425.58478180
0.46900002 26582.07570610  2061.44006871
0.47000002 26640.29953708  2070.35097665
0.47100002 26696.70630332  2079.13958545
0.47200002 26751.15376146  1897.99444934
0.47300002 26803.41160411  2286.86718645
0.47400002 26852.72422069  2295.90802969
0.47500002 26900.34751087  2688.95886464
0.47600002 26946.35482728  2506.41531306
0.47700002 26988.85048135  2515.63087260
