# SAXS profile: number of points = 501, q_min = 0, q_max = 0.5, delta_q = 0.001
#    q    intensity    error
0.00000000 1700912.83420644 306.16431016
0.00100000 1700829.70611372 816.39827832
0.00200000 1700580.26678989 1071.36560200
0.00300000 1700164.74247116 1530.14832273
0.00400000 1699582.99286069 1402.15602239
0.00500000 1698835.55475464 2599.21850165
0.00600000 1697922.29669583 2139.38218094
0.00700000 1696843.83002610 2647.07648485
0.00800000 1695599.94932134 2517.96603105
0.00900000 1694191.90960244 2541.28797304
0.01000000 1692619.07844741 3072.10376003
0.01100000 1690882.78806423 3347.94806613
0.01200000 1688982.91977740 4281.57188936
0.01300000 1686920.63612758 4605.29353974
0.01400000 1684696.02814495 6064.90597018
0.01500000 1682310.50032675 4037.54538057
0.01600000 1679763.40370794 5568.41593222
0.01700000 1677057.08047920 6339.27604858
0.01800000 1674191.43926042 5248.59039826
0.01900000 1671167.25952670 6517.55260624
0.02000000 1667985.66367893 8406.64812522
0.02100000 1664648.67195197 5493.34086650
0.02200000 1661154.88291741 6877.18152772
0.02300000 1657507.46051715 6563.72984242
0.02400000 1653706.05164862 8681.95716703
0.02500000 1649753.27602902 7720.84568443
0.02600000 1645648.90321751 10663.80538059
0.02700000 1641395.35602927 10340.79121660
0.02800000 1636992.21738380 9969.28306105
0.02900000 1632442.49522037 8080.59072235
0.03000000 1627747.00966916 10596.63352002
0.03100000 1622906.48399579 10126.93692611
0.03200000 1617922.32987643 10411.33067228
0.03300000 1612798.47367648 9870.32711393
0.03400000 1607532.72252841 8439.54718268
0.03500000 1602128.63762168 9516.64454693
0.03600000 1596587.39060435 10633.27251283
0.03700000 1590910.82127213 9975.01131070
0.03800000 1585100.59645153 12981.97448574
0.03900000 1579158.54425990 16107.41789739
0.04000000 1573084.75892763 11609.36605885
0.04100000 1566883.34702613 13819.91176155
0.04200000 1560554.85746201 11072.13722736
0.04300000 1554100.52221114 10257.06392271
0.04400000 1547523.75135957 12534.94296816
0.04500000 1540825.97012266 13821.20959420
0.04600000 1534007.05921788 10814.75027023
0.04700000 1527071.62902921 14293.39111247
0.04800000 1520019.95611366 12289.36191698
0.04900000 1512855.95170510 13615.70419912
0.05000000 1505578.84233007 12669.44654817
0.05100000 1498193.80572846 12854.50345196
0.05200000 1490698.62576004 14221.26555248
0.05300000 1483099.96004296 15617.04330729
0.05400000 1475397.11512709 13389.22944417
0.05500000 1467593.23333039 13560.56210856
0.05600000 1459689.23530643 13728.37789868
0.05700000 1451690.34793761 16418.61860157
0.05800000 1443595.18751915 14053.39980669
0.05900000 1435406.94812055 14210.52945011
0.06000000 1427129.10050466 18281.52463156
0.06100000 1418763.21130539 18472.29787443
0.06200000 1410311.36580540 15992.93163580
0.06300000 1401776.49401428 16148.46596607
0.06400000 1393158.02497755 19016.60793029
0.06500000 1384461.83783164 17818.02468638
0.06600000 1375688.60832130 19355.93962472
0.06700000 1366840.61836403 19518.48494368
0.06800000 1357920.33714913 16865.37137684
0.06900000 1348930.90032790 15580.15262823
0.07000000 1339872.99703635 17123.57770400
0.07100000 1330749.53439185 15809.30520905
0.07200000 1321563.05995479 14471.11618443
0.07300000 1312316.53529343 16023.38564672
0.07400000 1303012.21321347 19056.55451132
0.07500000 1293651.68169856 14747.62986262
0.07600000 1284235.62049484 22249.38316814
0.07700000 1274770.45809342 16406.29656493
0.07800000 1265255.78981310 20990.59453738
0.07900000 1255693.51266034 25616.14885976
0.08000000 1246088.45126341 18167.97047170
0.08100000 1236440.99548119 16729.04745376
0.08200000 1226753.24941872 16800.38653915
0.08300000 1217028.49833449 16868.01577857
0.08400000 1207268.73563119 15392.67710181
0.08500000 1197476.12229463 16992.18697306
0.08600000 1187652.81174431 23248.30488144
0.08700000 1177802.59567306 17101.69449223
0.08800000 1167925.06550232 17150.98039238
0.08900000 1158025.14456235 21886.67626024
0.09000000 1148103.31330797 17238.77205912
0.09100000 1138162.12888100 15706.63811647
0.09200000 1128203.53686244 17312.28408660
0.09300000 1118232.58084447 22073.91218317
0.09400000 1108246.17165463 17371.75955712
0.09500000 1098249.90099320 15814.79931764
0.09600000 1088245.32448408 19000.76425868
0.09700000 1078236.86582873 22190.11574197
0.09800000 1068223.72359538 17449.43534536
0.09900000 1058209.57640398 20635.08771019
0.10000000 1048194.43422910 19056.17571044
0.10100000 1038181.60568685 15884.17931407
0.10200000 1028173.41953980 23827.92011861
0.10300000 1018171.13361429 17471.81747471
0.10400000 1008178.59653537 22230.33909943
0.10500000 998197.49414124 23807.01135537
0.10600001 988225.45188525 23791.52887361
0.10700001 978270.62755777 22187.17887709
0.10800001 968330.68101973 22165.09033167
0.10900001 958409.92827073 25302.02329720
0.11000001 948508.41588620 20530.46562822
0.11100001 938629.01987457 20499.65875905
0.11200001 928773.07800926 23614.05662007
0.11300001 918942.44835391 21999.48324935
0.11400001 909139.24067788 18819.18316812
0.11500001 899365.72319278 15648.96432043
0.11600001 889622.15202335 15612.86950324
0.11700001 879911.95111319 20246.77494864
0.11800001 870233.83336013 15533.67465709
0.11900001 860591.24799227 15490.64319350
0.12000001 850984.91707432 16989.91466970
0.12100001 841419.83126183 18477.58036495
0.12200001 831893.65239515 16883.28247075
0.12300001 822410.16682726 22945.24473553
0.12400001 812968.03167054 16767.46644325
0.12500001 803570.35948202 18224.97661182
0.12600001 794220.16693715 16642.88438244
0.12700001 784916.43752353 21098.55483493
0.12800001 775660.98408550 16509.94482436
0.12900001 766455.92316429 16440.48032675
0.13000001 757302.23102085 25297.68221965
0.13100001 748199.60223577 19258.65866936
0.13200001 739151.65361165 16220.68380316
0.13300001 730158.40614869 17611.42158656
0.13400001 721220.08175602 16065.17807852
0.13500001 712339.71219426 18891.25005808
0.13600001 703516.81824050 27468.81546338
0.13700001 694753.59210074 18695.82004500
0.13800001 686048.09175617 18595.33440393
0.13900001 677406.10167740 14225.52880608
0.14000001 668824.26423519 18389.32401240
0.14100001 660306.72718463 23909.70771901
0.14200001 651851.88279066 16778.66825440
0.14300001 643462.99499205 15288.68148214
0.14400001 635135.84727980 16577.04639594
0.14500001 626877.80907027 26084.38686587
0.14600001 618685.40094634 16370.41648130
0.14700001 610561.89689876 14909.92222567
0.14800001 602504.24404402 14812.56753866
0.14900001 594516.14173681 14714.27520222
0.15000001 586596.87168516 13286.41977056
0.15100001 578748.03615911 18473.63818588
0.15200001 570970.35846546 13103.77034511
0.15300001 563263.38365137 14312.52325398
0.15400001 555625.90087302 18085.62392690
0.15500001 548061.93713150 16672.04491434
0.15600001 540568.35808524 12730.38543372
0.15700001 533150.34501111 12635.66377313
0.15800001 525801.90311810 13794.41357938
0.15900001 518528.94085821 21155.98178559
0.16000001 511327.03017905 13583.40319788
0.16100001 504201.29789513 20828.55659924
0.16200001 497148.95774423 14586.35110878
0.16300001 490170.14957189 13264.00487358
0.16400001 483266.40670462 15549.09736979
0.16500001 476436.39298870 16608.57344370
0.16600001 469681.67129094 15295.18434772
0.16700001 463000.24924171 12834.36751495
0.16800001 456393.69018200 15040.45477010
0.16900001 449863.44821808 11471.51847122
0.17000001 443406.27917200 11373.37159781
0.17100001 437024.53352024 13530.28019670
0.17200001 430716.67162189 14530.22760332
0.17300001 424483.96088043 14402.74147284
0.17400001 418326.03925038 13177.27085870
0.17500001 412241.54274953 11971.49496683
0.17600001 406230.07490909 11863.94989804
0.17700001 400295.56424658 16031.83810527
0.17800001 394432.53889173 13767.66842029
0.17900001 388643.10641760 13641.37367959
0.18000001 382928.30387367 11436.15433537
0.18100001 377287.06584809 12359.92486102
0.18200001 371716.12765850 12244.32982347
0.18300001 366218.87120959 11118.40545515
0.18400001 360793.36719612 11013.21805393
0.18500001 355440.41467472 12891.82444929
0.18600001 350158.91732924 10804.15390462
0.18700001 344947.67130276 14591.28718547
0.18800001 339805.69242111 10596.84101881
0.18900001 334737.61937938 13356.03164428
0.19000001 329735.26105824 9446.91567567
0.19100001 324805.04477583 11225.26287785
0.19200001 319941.85215926 9262.31705767
0.19300001 315149.27672926 11005.01326340
0.19400001 310422.63424373 9079.86248069
0.19500001 305764.46760880 12585.26608150
0.19600001 301171.70110103 13349.43628215
0.19700001 296647.50197801 11453.56059264
0.19800001 292187.62303788 9593.98105585
0.19900001 287793.43705537 10360.56422363
0.20000001 283462.59407952 10255.67713849
0.20100001 279197.51451789 9305.65359869
0.20200001 274994.52605277 10885.65882829
0.20300001 270855.14180381 9945.80127712
0.20400001 266778.04226007 9844.11022469
0.20500001 262762.17035515 10555.15688208
0.20600001 258806.98745766 9643.14880848
0.20700001 254912.65467201 12725.24032274
0.20800001 251077.40645835 8658.40477100
0.20900001 247303.63121907 11685.09712747
0.21000001 243585.39861710 9251.37387681
0.21100001 239926.36746723 8392.62473075
0.21200001 236323.21456884 11325.79059363
0.21300001 232776.72143460 11208.19966695
0.21400001 229286.16800642 8873.37512135
0.21500001 225851.66322048 8049.35365773
0.21600001 222469.99013609 8689.67822555
0.21700001 219142.60934234 7882.56003073
0.21800001 215868.18494225 7091.27021063
0.21900001 212645.13320005 9824.20561835
0.22000001 209473.34965568 10416.06280413
0.22100001 206353.83531341 8245.89964902
0.22200001 203284.09732180 8839.80939002
0.22300001 200263.22753911 8747.49819254
0.22400001 197290.41015045 7990.26198892
0.22500001 194368.02586898 7247.98402739
0.22600001 191490.91222965 9128.37221765
0.22700001 188661.55602269 8387.89317743
0.22800001 185877.17755893 7661.85762131
0.22900001 183137.99692542 7581.91343127
0.23000001 180443.66826507 7502.84808128
0.23100001 177794.49567847 9899.59798756
0.23200001 175186.52327187 8571.87698909
0.23300001 172622.32379790 6059.04385187
0.23400001 170098.68501794 7195.17471656
0.23500001 167616.30572872 8307.06450481
0.23600001 165174.65382124 6459.15514318
0.23700001 162772.70652026 6392.08448738
0.23800001 160409.63754233 6325.75435568
0.23900001 158085.12692691 6829.27780626
0.24000001 155797.89927536 7884.93205529
0.24100001 153548.79251581 7245.96786156
0.24200001 151336.09905414 7171.06139289
0.24300001 149158.68793466 7096.97070764
0.24400001 147016.33822481 7023.70589094
0.24500001 144908.20003898 7485.95796813
0.24600001 142834.17103042 6350.40754442
0.24700001 140794.33989250 6285.05963012
0.24800001 138786.55271680 6738.78138595
0.24900001 136809.82102323 5643.40538418
0.25000001 134865.86821210 6093.24021408
0.25100001 132952.00798579 5528.14475358
0.25200001 131070.52961277 5471.53951754
0.25300001 129216.82915555 5907.79370849
0.25400001 127393.60489138 5847.36674116
0.25500001 125597.23410292 5787.52082128
0.25600001 123830.64635263 8115.24179267
0.25700001 122090.68633590 8032.34663408
0.25800001 120377.66255375 6547.34137608
0.25900001 118692.24106466 4628.99762054
0.26000001 117031.79247815 5956.33336000
0.26100001 115396.74292976 6349.12909641
0.26200001 113787.56404060 6733.37942070
0.26300001 112201.79497139 7109.10606577
0.26400001 110640.83675351 4837.77081596
0.26500001 109103.45296124 6965.16476663
0.26600001 107588.67554254 4308.92665938
0.26700001 106097.04406298 5118.12164779
0.26800001 104627.88534709 5066.08244824
0.26900001 103179.51893965 6268.15607220
0.27000001 101753.28202304 4549.89822097
0.27100001 100347.64802791 6960.11319659
0.27200001 98963.16363271  6078.81261381
0.27300001 97598.91203986  4011.31547467
0.27400001 96252.62208543  6352.67335828
0.27500001 94928.07789036  4716.02713278
0.27600001 93620.37353004  3889.92670427
0.27700001 92333.21275367  3850.29515405
0.27800001 91063.00724482  5335.38184698
0.27900001 89811.33907538  3772.07641969
0.28000001 88576.80871437  5600.26899602
0.28100001 87359.86527282  5912.51596150
0.28200001 86160.30720531  5120.50729956
0.28300001 84977.27996110  3620.03229768
0.28400001 83809.92541326  4657.73682530
0.28500001 82659.33030198  3900.69398158
0.28600001 81524.28003246  6317.31675873
0.28700001 80405.35682251  4168.21389497
0.28800001 79300.06981251  5500.25310254
0.28900001 78211.81590051  3742.43556798
0.29000001 77137.17293624  3367.03775804
0.29100001 76077.72816102  3665.42511630
0.29200001 75032.08258219  3297.66018558
0.29300001 74000.88220639  3589.78296576
0.29400001 72982.78572145  5167.18147367
0.29500001 71979.42784983  5113.41879651
0.29600001 70988.39028966  3478.78623082
0.29700001 70010.96205533  4068.33719762
0.29800001 69046.90383835  4025.77991887
0.29900001 68095.94575749  3983.61301539
0.30000001 67156.51026567  5154.59818946
0.30100001 66230.87258111  4800.41387193
0.30200001 65316.39143431  3562.35615747
0.30300001 64415.17254804  4699.73121160
0.30400001 63525.39318153  3196.91556321
0.30500001 62648.12773121  3450.65903880
0.30600001 61781.27164056  3983.03877123
0.30700001 60926.95550109  4222.23821612
0.30800001 60083.84450369  3341.86358951
0.30900001 59252.40966470  3857.33205179
0.31000001 58432.29488656  2998.45335406
0.31100001 57622.35237786  3236.07146275
0.31200001 56824.63940522  3201.50033567
0.31300001 56036.70712275  2639.32903044
0.31400001 55261.10385824  3394.41346521
0.31500001 54494.73153797  3616.27055608
0.31600002 53740.36299173  2555.35438125
0.31700002 52995.69433183  2780.68421325
0.31800002 52261.23847260  3500.98053105
0.31900002 51537.83695608  2721.19792013
0.32000002 50824.97022696  2936.66691876
0.32100002 50121.64721219  2662.96324247
0.32200002 49429.56892382  2873.83527331
0.32300002 48746.04641758  3079.77535849
0.32400002 48073.83409567  3046.67938008
0.32500002 47410.79995743  2550.22705047
0.32600002 46758.07422773  2981.52874431
0.32700002 46115.35786719  3403.31357175
0.32800002 45483.23328347  2244.59766883
0.32900002 44859.01517578  3552.83417016
0.33000002 44245.76953278  3075.52358586
0.33100002 43641.18238515  2825.33028141
0.33200002 43047.80708234  2580.28567870
0.33300002 42463.10699657  2552.88211353
0.33400002 41888.48185889  3367.83410094
0.33500002 41323.14014247  2915.76090653
0.33600002 40766.86755079  3091.14787842
0.33700002 40219.92324461  2243.06522558
0.33800002 39683.30190008  2623.26479634
0.33900002 39155.18991543  2196.60625828
0.34000002 38636.52504210  2371.51001939
0.34100002 38127.38565154  3520.68295780
0.34200002 37627.98599654  2129.55596833
0.34300002 37137.00654108  2299.52355393
0.34400002 36656.00632883  2086.64325909
0.34500002 36183.87951660  2629.12081019
0.34600002 35721.47965509  1859.30310411
0.34700002 35266.76573551  2577.29536201
0.34800002 34822.32445404  2369.83340296
0.34900002 34386.26920538  2166.33506254
0.35000002 33959.65363224  2145.57101810
0.35100002 33542.49805970  1948.14837958
0.35200002 33132.77827588  2456.13296992
0.35300002 32733.25104113  1911.94928387
0.35400002 32341.82113448  1894.42226268
0.35500002 31959.64664165  3071.96138070
0.35600002 31585.96989773  1691.42876814
0.35700002 31220.85046114  1844.21572409
0.35800002 30864.78443227  1994.48246448
0.35900002 30517.79639022  2142.34940807
0.36000002 30179.22870512  1797.62584297
0.36100002 29848.55604423  1944.93200397
0.36200002 29527.88522934  1768.57276958
0.36300002 29214.31570572  1754.61188440
0.36400002 28909.69224856  1741.08629814
0.36500002 28612.73789494  1727.92332332
0.36600002 28325.00741005  2338.93759768
0.36700002 28044.89867545  1857.69417626
0.36800002 27773.92927323  1844.74446971
0.36900002 27510.73475679  2137.58419186
0.37000002 27255.02852821  2123.43937322
0.37100002 27007.46169901  1507.01643419
0.37200002 26768.66244270  1947.01875500
0.37300002 26537.26447306  2381.98497194
0.37400002 26313.72550338  1776.17655562
0.37500002 26098.04712728  1471.92992771
0.37600002 25890.35226890  1464.09949016
0.37700002 25690.05072505  2039.27632316
0.37800002 25497.21952147  1884.37209800
0.37900002 25312.86656717  2452.81688656
0.38000002 25135.06608324  1867.40982312
0.38100002 24964.07225850  1716.52968981
0.38200002 24801.51469699  1424.84708684
0.38300002 24645.42228331  2413.27986431
0.38400002 24496.84577975  1414.69291080
0.38500002 24354.70712388  1833.17889206
0.38600002 24220.47263861  1968.39790459
0.38700002 24092.29066944  1542.38852173
0.38800002 23970.75530608  1818.30172989
0.38900002 23856.04890024  1395.57892678
0.39000002 23748.57342311  2228.56623560
0.39100002 23646.63163367  1529.46420653
0.39200002 23551.96782355  1527.22742587
0.39300002 23462.83174886  1525.31876426
0.39400002 23381.18772315  1523.86898205
0.39500002 23304.19898413  1522.69643376
0.39600002 23233.67788684  1660.27870045
0.39700002 23168.45601575  1936.41964554
0.39800002 23110.25645150  1383.14891415
0.39900002 23056.58980545  1660.07454464
0.40000002 23008.99173117  1522.39001002
0.40100002 22966.40342265  1384.87419200
0.40200002 22929.72563807  1801.93257464
0.40300002 22898.01508940  2220.19164826
0.40400002 22871.43456029  1389.43971537
0.40500002 22849.57327620  1669.84689414
0.40600002 22833.38620377  1393.97829379
0.40700002 22821.55001262  1815.68260503
0.40800002 22814.05656781  1399.64243675
0.40900002 22810.98968706  1683.45111867
0.41000002 22813.10408292  1687.71352002
0.41100002 22819.10852411  1551.24307097
0.41200002 22828.51078438  1838.49420313
0.41300002 22843.43181796  1702.29261973
0.41400002 22861.41566562  1707.74783114
0.41500002 22883.10711545  1427.90595166
0.41600002 22907.78555177  2292.61128665
0.41700002 22937.39724305  2301.07980046
0.41800002 22970.99974378  2021.21836323
0.41900002 23005.85019848  1739.24235742
0.42000002 23044.68445472  2182.90783841
0.42100002 23087.47346955  2046.01199582
0.42200002 23132.52163036  2201.63785049
0.42300002 23180.35473576  1916.55182037
0.42400002 23230.72556910  2369.53412033
0.42500002 23284.27234628  1934.22459546
0.42600002 23339.09440296  1644.35597408
0.42700002 23397.32906694  1652.31945701
0.42800002 23457.20502734  1660.41833654
0.42900002 23520.07922013  1668.74969975
0.43000002 23584.75232337  1982.18060295
0.43100002 23649.72472028  1992.25290484
0.43200002 23717.83462441  2156.66280460
0.43300002 23786.81996534  1703.37425844
0.43400002 23857.84471240  1712.39688538
0.43500002 23929.78182174  2347.51170796
0.43600002 24003.65000759  1730.78326582
0.43700002 24077.89066686  1581.91749178
0.43800002 24152.89032426  1908.56148387
0.43900002 24229.76849687  1918.99775589
0.44000002 24306.70019712  1607.88829424
0.44100002 24384.73070168  2263.39081099
0.44200002 24463.23213978  2113.25640854
0.44300002 24542.24562549  1961.41636334
0.44400002 24621.52487513  1643.48686330
0.44500002 24700.57998635  2478.70331910
0.44600002 24779.61522148  2159.91526314
0.44700002 24859.95536821  2171.76580389
0.44800002 24938.80405138  1847.59138571
0.44900002 25018.42705687  2195.36707828
0.45000002 25097.96064603  1697.87711817
0.45100002 25176.19797436  2219.03019463
0.45200002 25254.49053016  2402.45979799
0.45300002 25331.69576468  2587.63284500
0.45400002 25408.66700045  2080.96992596
0.45500002 25485.17418722  1917.50459672
0.45600002 25560.30399673  2453.02249082
0.45700002 25634.87548984  2465.56244147
0.45800002 25708.11137856  2655.00532845
0.45900002 25780.13466029  1956.71231345
0.46000002 25851.50776979  2323.92140111
0.46100002 25920.83685136  2514.83971051
0.46200002 25989.41886943  2887.94436164
0.46300002 26056.63469070  2357.60441855
0.46400002 26121.69221938  1821.98811866
0.46500002 26186.36830126  2013.46995411
0.46600002 26248.28105518  2022.56139257
0.46700002 26308.52108675  2216.22992139
0.46800002 26367.93459741  2225.98114422
0.46900002 26424.51277967  2608.09953497
0.47000002 26479.52494324  2244.93423109
0.47100002 26532.77463653  2254.22463996
0.47200002 26584.15594197  2263.37514418
0.47300002 26633.35880961  1893.63190112
0.47400002 26679.87741429  1900.94135587
0.47500002 26724.64228261  2289.76745930
0.47600002 26767.86419510  1915.24077394
0.47700002 26807.81636163  2690.96873393
