# SAXS profile: number of points = 501, q_min = 0, q_max = 0.5, delta_q = 0.001
#    q    intensity    error
0.00000000 1700912.83420644 357.19169518
0.00100000 1700829.69023159 714.34848686
0.00200000 1700580.19913698 841.78722523
0.00300000 1700164.58480376 1632.15805955
0.00400000 1699582.71360718 1912.03062546
0.00500000 1698835.12251950 1681.84683786
0.00600000 1697921.67321789 1961.09961241
0.00700000 1696842.97933895 3257.93865573
0.00800000 1695598.82415962 2289.05850926
0.00900000 1694190.50472330 2541.28586572
0.01000000 1692617.33292030 3351.38246389
0.01100000 1690880.69922050 3956.66100845
0.01200000 1688980.44028905 4281.56560385
0.01300000 1686917.70119880 3542.52732876
0.01400000 1684692.66089845 4548.67038607
0.01500000 1682306.60481050 6056.30404700
0.01600000 1679758.97364401 4711.72413170
0.01700000 1677052.09196025 5886.45310684
0.01800000 1674185.84743613 5248.57286789
0.01900000 1671161.05339406 6016.18006368
0.02000000 1667978.78419280 5779.54674867
0.02100000 1664641.08418561 6042.64740956
0.02200000 1661146.53694164 7450.24255667
0.02300000 1657498.35201236 5966.99433885
0.02400000 1653696.14378157 6821.49690414
0.02500000 1649742.55691784 7720.79551899
0.02600000 1645637.35613205 7331.31475689
0.02700000 1641382.86437045 10340.71251915
0.02800000 1636978.85180431 9969.20166467
0.02900000 1632428.11287368 10284.29758330
0.03000000 1627731.66554162 8325.84785195
0.03100000 1622890.17668300 10905.82248912
0.03200000 1617904.98103523 10411.21903248
0.03300000 1612779.98981843 10692.73182544
0.03400000 1607513.13800296 10127.33323670
0.03500000 1602107.88845351 12111.93619601
0.03600000 1596565.50787801 10633.12677386
0.03700000 1590887.75058590 9974.86665749
0.03800000 1585076.30660893 9272.69682280
0.03900000 1579132.99626594 10422.27825801
0.04000000 1573057.96323594 12576.59899886
0.04100000 1566855.11481626 15793.90028966
0.04200000 1560525.35119147 16104.62237144
0.04300000 1554069.63110379 17436.66207036
0.04400000 1547491.50050389 10445.56811351
0.04500000 1540792.31238864 10631.46744947
0.04600000 1533971.99330396 16221.75458329
0.04700000 1527035.09403326 10994.65318838
0.04800000 1519981.85047687 14523.42725705
0.04900000 1512816.30839681 12480.73512522
0.05000000 1505537.74924265 13820.83718163
0.05100000 1498151.16129847 17528.36940373
0.05200000 1490654.34683762 13035.77287058
0.05300000 1483054.03569114 14415.28589893
0.05400000 1475349.67080000 12171.63535171
0.05500000 1467544.09905522 12327.37100713
0.05600000 1459638.36050733 14975.89027764
0.05700000 1451637.81654706 20206.79934956
0.05800000 1443540.97098544 16607.93964665
0.05900000 1435350.95950393 16793.60701056
0.06000000 1427071.48604436 13057.70470735
0.06100000 1418703.69469462 17152.12847040
0.06200000 1410250.01002029 15992.23586116
0.06300000 1401713.36552022 16147.73872579
0.06400000 1393093.06000111 17657.45536130
0.06500000 1384395.06325144 23299.37000441
0.06600000 1375619.94700571 13824.98111426
0.06700000 1366770.07004912 22305.68858708
0.06800000 1357847.90350270 18269.84439682
0.06900000 1348856.49360059 15579.29323049
0.07000000 1339796.68550902 22830.13659017
0.07100000 1330671.27081108 15808.37543766
0.07200000 1321482.86827228 17364.28570256
0.07300000 1312234.45582240 16022.38345633
0.07400000 1302928.13963152 19055.32493512
0.07500000 1293565.57064641 20645.30747521
0.07600000 1284147.51487308 14831.90449211
0.07700000 1274680.38501246 17896.51344472
0.07800000 1265163.66590490 16491.40915846
0.07900000 1255599.41431333 22600.79051770
0.08000000 1245992.17745286 15138.80566623
0.08100000 1236342.81623121 24331.22776501
0.08200000 1226653.08215561 21380.56422526
0.08300000 1216926.18340965 21466.57888282
0.08400000 1207164.39618649 21547.88548336
0.08500000 1197369.79028996 18535.28522383
0.08600000 1187544.37785367 21696.43680207
0.08700000 1177692.05029168 15545.53579383
0.08800000 1167812.41471305 18708.35576232
0.08900000 1157910.37658430 18758.14898173
0.09000000 1147986.48261328 17237.01784616
0.09100000 1138043.21299086 21986.99590796
0.09200000 1128082.58132720 25178.80439829
0.09300000 1118109.53225438 23648.01771845
0.09400000 1108120.98775891 20527.94226300
0.09500000 1098122.72669129 18975.56160913
0.09600000 1088116.14125517 20581.71777934
0.09700000 1078105.46000450 22187.41140998
0.09800000 1068090.44008674 15861.14378104
0.09900000 1058074.09913764 23806.66835005
0.10000000 1048056.98953020 19053.67696570
0.10100000 1038041.99351750 23823.06487167
0.10200000 1028031.77048112 19059.70992122
0.10300000 1018027.47634535 20645.59819147
0.10400000 1008032.76333857 23814.77515424
0.10500000 998049.80169746 20629.69037170
0.10600001 988075.73761622 17444.47796844
0.10700001 978118.93630511 22183.73851931
0.10800001 968177.02983354 18995.63421930
0.10900001 958254.32730590 20554.55628813
0.11000001 948350.76157886 17369.04501587
0.11100001 938469.47082155 17342.91663717
0.11200001 928611.55845741 15739.96665685
0.11300001 918779.02512121 20424.45869004
0.11400001 908973.92846332 23519.70150640
0.11500001 899198.44078983 18775.26432778
0.11600001 889453.08847802 24975.84390061
0.11700001 879740.91861758 15571.41499287
0.11800001 870061.03647321 17083.64925576
0.11900001 860416.67080831 17036.25088444
0.12000001 850808.49884356 18530.60997770
0.12100001 841241.76606172 23092.08756622
0.12200001 831713.60774947 15345.11678591
0.12300001 822228.44797105 19881.48480864
0.12400001 812784.65913809 18287.65569228
0.12500001 803385.36865689 19739.17943802
0.12600001 794033.45389138 16638.97181038
0.12700001 784728.03595304 16573.45690038
0.12800001 775471.06330698 16505.90236040
0.12900001 766264.38946221 17930.58755852
0.13000001 757109.15557337 16364.91516908
0.13100001 748004.98282701 26658.89884459
0.13200001 738955.57319923 19164.81369436
0.13300001 729960.78286421 16139.43366999
0.13400001 721021.01845431 29201.35262412
0.13500001 712139.22888901 23244.22552686
0.13600001 703315.08312934 17343.75076774
0.13700001 694550.35566170 15814.91234414
0.13800001 685843.70927752 14299.84201276
0.13900001 677200.24433017 18487.56754205
0.14000001 668617.32151244 15555.38271859
0.14100001 660098.55543577 16872.11987268
0.14200001 651642.68103335 19568.83063440
0.14300001 643252.40393472 19451.95361249
0.14400001 634924.15491180 15190.56112280
0.14500001 626665.03308983 13723.96487206
0.14600001 618471.65252989 16364.76069794
0.14700001 610347.19951782 18969.59185593
0.14800001 602288.66607718 14807.26755409
0.14900001 594299.61225657 14708.91609733
0.15000001 586379.49190757 14609.64573020
0.15100001 578529.66004632 22423.81068146
0.15200001 570751.29775202 20957.98864240
0.15300001 563043.56061055 16908.19892302
0.15400001 555405.34582682 15495.80987983
0.15500001 547840.79154716 17947.26517807
0.15600001 540346.60110926 20360.26089070
0.15700001 532927.90239718 13893.43107122
0.15800001 525578.92950641 13788.56386640
0.15900001 518305.50878122 16171.13263726
0.16000001 511103.16809339 13577.45630129
0.16100001 503976.96359946 12246.64079356
0.16200001 496924.18910282 15794.73609624
0.16300001 489945.20917180 13257.91798607
0.16400001 483041.23808928 14346.32544854
0.16500001 476210.97638114 14229.18464605
0.16600001 469455.95743964 17639.80843362
0.16700001 462774.47313841 13994.30072844
0.16800001 456167.92912124 12720.24330415
0.16900001 449637.59438663 14905.48695772
0.17000001 443180.41964498 15914.60962093
0.17100001 436798.77409890 13523.29068469
0.17200001 430491.12307173 14522.61872262
0.17300001 424258.55916758 15502.40848408
0.17400001 418100.91901827 13170.17957105
0.17500001 412016.58067881 13052.68589235
0.17600001 406005.48216399 15091.22448478
0.17700001 400071.26955616 14954.66476233
0.17800001 394208.82381488 11642.95816129
0.17900001 388419.71797776 13633.53274498
0.18000001 382705.52516249 11429.50104885
0.18100001 377064.83545540 14411.41869185
0.18200001 371494.59365350 17335.79603175
0.18300001 365997.87041686 11111.69587076
0.18400001 360573.21592569 16009.45154340
0.18500001 355220.96842454 12883.86513342
0.18600001 349940.33487436 10797.40954266
0.18700001 344729.91274544 12637.79919832
0.18800001 339588.96167568 10590.08227020
0.18900001 334521.86843806 10487.26107103
0.19000001 329520.52889659 12272.99267864
0.19100001 324591.42200561 10283.05673501
0.19200001 319729.32233160 10181.78075075
0.19300001 314937.94000577 9164.69448722
0.19400001 310212.60394647 14517.95055072
0.19500001 305555.69487909 13475.00678093
0.19600001 300964.25767343 10672.19308143
0.19700001 296441.47352921 9684.74339788
0.19800001 291983.08349354 13945.11272668
0.19900001 287590.42536010 10353.25580226
0.20000001 283261.07289875 9394.35392668
0.20100001 278997.61287931 10989.71649072
0.20200001 274796.28341970 9204.30194817
0.20300001 270658.57961717 9110.36822051
0.20400001 266583.30794615 12296.15566020
0.20500001 262569.21252324 9736.06686056
0.20600001 258615.85351761 14454.04073631
0.20700001 254723.36625741 9536.84328348
0.20800001 250890.14594466 9438.48773660
0.20900001 247118.38683056 7784.22955313
0.21000001 243402.13193575 10014.78119192
0.21100001 239745.29332664 10673.46096347
0.21200001 236144.27956416 8299.29109763
0.21300001 232599.91310408 11199.68634543
0.21400001 229111.68354500 12561.04864420
0.21500001 225679.44107035 9505.61850729
0.21600001 222299.95951981 7959.45042692
0.21700001 218975.03661622 10740.72605384
0.21800001 215703.09065593 7794.43154938
0.21900001 212482.46666180 9115.49825079
0.22000001 209313.21074709 10408.09989652
0.22100001 206196.23343067 6866.33489791
0.22200001 203129.11742445 10871.47087861
0.22300001 200110.83362463 8068.46919327
0.22400001 197140.75519749 8649.55104330
0.22500001 194221.08544659 8559.32364038
0.22600001 191346.64683175 8469.95972254
0.22700001 188520.09847849 7736.86520743
0.22800001 185738.65853434 7018.13554461
0.22900001 183002.30508324 10101.72771832
0.23000001 180310.88019073 7497.32675289
0.23100001 177664.58330816 10510.63724559
0.23200001 175059.71429895 6730.17103452
0.23300001 172498.51644868 6660.16803507
0.23400001 169977.89379170 7190.06524745
0.23500001 167498.61395776 8894.17682182
0.23600001 165060.13157257 6454.67675043
0.23700001 162661.31705462 6387.71022286
0.23800001 160301.36616715 7470.84552358
0.23900001 157980.11656799 5687.28446545
0.24000001 155696.10911718 6191.25607189
0.24100001 153450.25967917 5570.24468983
0.24200001 151240.87889352 6615.27635572
0.24300001 149066.78515847 6547.01351385
0.24400001 146927.87177912 5939.55949763
0.24500001 144823.06245313 8550.35401170
0.24600001 142752.46975748 7933.46888207
0.24700001 140716.02953510 6805.02751024
0.24800001 138711.77627791 5698.97359798
0.24900001 136738.41214048 8204.30511655
0.25000001 134797.98711182 5075.14445486
0.25100001 132887.65914658 6530.09987940
0.25200001 131009.64860705 5468.99803984
0.25300001 129159.51479058 6397.27107024
0.25400001 127339.90187999 7306.12721603
0.25500001 125547.13463755 5303.11121799
0.25600001 123784.09547338 5249.06481690
0.25700001 122047.74200581 6612.54697474
0.25800001 120338.33991019 5610.17367205
0.25900001 118656.57154152 5090.36715998
0.26000001 116999.75202156 6412.75671172
0.26100001 115368.30844083 5440.76968351
0.26200001 113762.87480537 4936.74018577
0.26300001 112180.73380740 5775.06444967
0.26400001 110623.45034062 5276.73883093
0.26500001 109089.74473757 6093.75342939
0.26600001 107578.66781827 6893.64136000
0.26700001 106090.65788968 5544.29804367
0.26800001 104625.18949320 4221.62659582
0.26900001 103180.54821717 5432.45612071
0.27000001 101757.99619294 6204.69411148
0.27100001 100356.11520754 6551.24751077
0.27200001 98975.35594798  4458.34511966
0.27300001 97614.65409619  6820.33620447
0.27400001 96272.14203168  6751.08427946
0.27500001 94951.24277826  5896.47245558
0.27600001 93647.16976743  4280.14409678
0.27700001 92363.64345629  4621.87693729
0.27800001 91097.12834915  6099.86400295
0.27900001 89849.11306383  4151.02922001
0.28000001 88618.17853871  4482.30768263
0.28100001 87404.76853132  4436.66626063
0.28200001 86208.86898509  4757.43666011
0.28300001 85029.43471155  5433.38113523
0.28400001 83865.58801814  4660.83027471
0.28500001 82718.59417451  4613.21621546
0.28600001 81587.07355425  3512.32368276
0.28700001 80471.73921450  4519.29308820
0.28800001 79369.90194355  4816.95957696
0.28900001 78285.12672686  4086.48380857
0.29000001 77213.96415721  3370.38969500
0.29100001 76157.88647386  3335.71558545
0.29200001 75115.65436361  3631.46648211
0.29300001 74087.85839134  4247.45712263
0.29400001 73073.11213132  3233.48536487
0.29500001 72073.12387532  3520.05153670
0.29600001 71085.33514244  3800.22219661
0.29700001 70111.23406128  3447.36954199
0.29800001 69150.37945846  4652.09199829
0.29900001 68202.64364352  4603.67866387
0.30000001 67266.38509382  4251.90840306
0.30100001 66343.92963087  3305.91817001
0.30200001 65432.48974751  4163.46951974
0.30300001 64534.26271066  3825.59127460
0.30400001 63647.60664814  3203.06595621
0.30500001 62773.33528499  4033.81471638
0.30600001 61909.40515425  3136.02106656
0.30700001 61058.06843559  3102.97118480
0.30800001 60217.91078553  2791.10029705
0.30900001 59389.25775398  5523.20123261
0.31000001 58571.84887600  3278.85225531
0.31100001 57764.84496036  4325.43179542
0.31200001 56969.70509905  3209.67333724
0.31300001 56184.50001781  2910.91908374
0.31400001 55411.56924060  2880.01644764
0.31500001 54647.67491485  3367.38988769
0.31600002 53895.91545385  3331.57617152
0.31700002 53153.68598003  4310.23260020
0.31800002 52421.71559328  3762.56881486
0.31900002 51700.76593400  2481.63688234
0.32000002 50990.27763445  3191.73657966
0.32100002 50289.15877942  3400.55307768
0.32200002 49599.32720182  2643.39626839
0.32300002 48917.99676143  2615.15623070
0.32400002 48247.92986223  2587.29536137
0.32500002 47587.09478130  2559.70994949
0.32600002 46936.31051563  2992.89398175
0.32700002 46295.57773827  2733.29103910
0.32800002 45665.39200969  2929.66336311
0.32900002 45043.03473128  2452.59335726
0.33000002 44431.59681318  2426.63177486
0.33100002 43828.81683342  2619.21021800
0.33200002 43237.15459859  2159.69597447
0.33300002 42654.11033624  2564.36523485
0.33400002 42081.00310511  4017.68396172
0.33500002 41517.24762162  2301.71631714
0.33600002 40962.47047736  2277.71827876
0.33700002 40416.99571514  2254.05595778
0.33800002 39881.69945270  2230.78296453
0.33900002 39354.91833978  2207.81102342
0.34000002 38837.48527072  1986.53746568
0.34100002 38329.50281652  2556.19466389
0.34200002 37831.27183234  2335.70283355
0.34300002 37341.40754334  2119.49839254
0.34400002 36861.43695903  2479.85328886
0.34500002 36390.19998451  2266.38176237
0.34600002 35928.69750180  2618.12431095
0.34700002 35474.86858138  2222.14587318
0.34800002 35031.13413386  2200.65595051
0.34900002 34595.76977328  2542.78919877
0.35000002 34169.85658721  2338.75594488
0.35100002 33753.28848859  1960.39108827
0.35200002 33344.11814870  1765.57113960
0.35300002 32945.04251016  1924.32002416
0.35400002 32554.04005887  2600.25407286
0.35500002 32172.18465072  1889.79421589
0.35600002 31798.75412766  2554.23504628
0.35700002 31433.83712214  2194.39627343
0.35800002 31078.03504990  2342.97317339
0.35900002 30731.16608804  2655.17287577
0.36000002 30392.57663557  2304.06134388
0.36100002 30061.88622488  2285.30469906
0.36200002 29741.21380386  1943.29100199
0.36300002 29427.46217203  1767.41346177
0.36400002 29122.66269911  2072.80561579
0.36500002 28825.45240664  1582.51741208
0.36600002 28537.39180369  1728.08184253
0.36700002 28256.97414708  1715.76355148
0.36800002 27985.49206585  1548.99705922
0.36900002 27721.84690779  1692.41883389
0.37000002 27465.63415613  1987.00139715
0.37100002 27217.47845295  1822.48244354
0.37200002 26977.98099809  1509.41810834
0.37300002 26745.90988878  1800.53473901
0.37400002 26521.53009569  1939.38698012
0.37500002 26305.06222554  2225.40836970
0.37600002 26096.48533824  1623.33194736
0.37700002 25895.30011763  1615.08994485
0.37800002 25701.48773493  2045.58150573
0.37900002 25516.14923252  2327.07292025
0.38000002 25337.22274418  1882.42905295
0.38100002 25165.08491789  2162.93915116
0.38200002 25001.31104866  1436.32538779
0.38300002 24844.07635634  1574.12075251
0.38400002 24694.16996530  1853.91489797
0.38500002 24550.70148728  1563.63425180
0.38600002 24415.14753665  1417.29938165
0.38700002 24285.42949082  1696.09447599
0.38800002 24162.47154442  2114.82042212
0.38900002 24046.18536625  1406.70191057
0.39000002 23937.18137531  1403.91575417
0.39100002 23833.56805269  1541.55525468
0.39200002 23737.26127327  1399.31161835
0.39300002 23646.42515677  1816.75493087
0.39400002 23563.08389060  1675.33534399
0.39500002 23484.34601472  1673.96426324
0.39600002 23411.92422971  1951.85221551
0.39700002 23344.86192146  1951.16365184
0.39800002 23284.76693979  1672.31204085
0.39900002 23229.15374874  1951.24900734
0.40000002 23179.55359790  1394.25021497
0.40100002 23134.95757670  1813.54941036
0.40200002 23096.25118306  2094.25267525
0.40300002 23062.43446254  1537.34195411
0.40400002 23033.82371695  1539.23534281
0.40500002 23009.74967224  1401.29382143
0.40600002 22991.39402009  2105.43700715
0.40700002 22977.32135748  1546.83334708
0.40800002 22967.66418986  1549.97289129
0.40900002 22962.31119769  1412.18220557
0.41000002 22962.08281234  1840.29621419
0.41100002 22965.81791559  1703.14513732
0.41200002 22972.81426733  1565.48250242
0.41300002 22985.37348414  1570.13093710
0.41400002 23000.94303635  1718.17052623
0.41500002 23020.33178931  1723.76252606
0.41600002 23042.44951458  2594.34951378
0.41700002 23069.66924087  1446.46832994
0.41800002 23100.71628809  1597.06809625
0.41900002 23133.17113498  1748.86782067
0.42000002 23169.45974869  1755.78174295
0.42100002 23209.69338102  1909.92575883
0.42200002 23252.25999342  1475.35596649
0.42300002 23297.45917734  1629.89032128
0.42400002 23345.26335969  2083.56485358
0.42500002 23396.26396755  1644.52347221
0.42600002 23448.45502316  1952.43570002
0.42700002 23504.18654053  1659.86573215
0.42800002 23561.36809108  1667.79151936
0.42900002 23621.66820291  2437.75627406
0.43000002 23683.69137930  1684.26579225
0.43100002 23746.09109316  2154.24548606
0.43200002 23811.51434658  1701.21372311
0.43300002 23877.91062891  1554.45205560
0.43400002 23946.30083250  1874.99544404
0.43500002 24015.55728400  1727.67927288
0.43600002 24086.76507068  2052.55378277
0.43700002 24158.41009632  2063.36990411
0.43800002 24230.74923802  2074.27338682
0.43900002 24304.96246905  1924.95311877
0.44000002 24379.34268558  1773.96295458
0.44100002 24454.72710513  1783.48333230
0.44200002 24530.56423133  1956.06728450
0.44300002 24606.98616092  1802.70789158
0.44400002 24683.66207925  2141.92487843
0.44500002 24760.13258355  2153.38883284
0.44600002 24836.59806736  2997.52916281
0.44700002 24914.35989972  1841.66957107
0.44800002 24990.66254381  2019.74544251
0.44900002 25067.67132273  1692.06789447
0.45000002 25144.66359978  2381.45120240
0.45100002 25220.45258909  1880.94144324
0.45200002 25296.22353667  1890.76631786
0.45300002 25370.93747868  1727.76092418
0.45400002 25445.43798814  2604.97683749
0.45500002 25519.53018730  2094.64313705
0.45600002 25592.15959808  4034.98803426
0.45700002 25664.37557039  2468.39975935
0.45800002 25735.21626591  1949.05669627
0.45900002 25804.85782009  1958.58880137
0.46000002 25873.88750237  2147.01528670
0.46100002 25940.85676630  1977.47160502
0.46200002 26007.17431801  2889.91734718
0.46300002 26072.09427574  2177.54141711
0.46400002 26134.92253002  2187.49311944
0.46500002 26197.35113133  2929.91188939
0.46600002 26257.10092546  1839.31000700
0.46700002 26315.17509602  2770.98806894
0.46800002 26372.39620181  2040.82797680
0.46900002 26426.92671715  2422.02794842
0.47000002 26479.82162059  2057.87943478
0.47100002 26531.04758774  3193.27703901
0.47200002 26580.39689002  1885.87924873
0.47300002 26627.64956665  2082.54857131
0.47400002 26672.12903399  2470.50606887
0.47500002 26715.03662009  3051.92592813
0.47600002 26756.38545938  2488.74531147
0.47700002 26794.40886601  2305.39104810
