# SAXS profile: number of points = 501, q_min = 0, q_max = 0.5, delta_q = 0.001
#    q    intensity    error
0.00000000 1719190.39626458 335.24212727
0.00100000 1719106.79803781 618.87846199
0.00200000 1718855.94119483 928.18223764
0.00300000 1718438.06260954 1237.27544915
0.00400000 1717853.00317847 1417.22878147
0.00500000 1717101.32875362 2009.00863416
0.00600000 1716182.88143096 2702.98814830
0.00700000 1715098.29377243 2469.74164568
0.00800000 1713847.32225895 3007.80217755
0.00900000 1712431.30506501 3596.10589436
0.01000000 1710849.50210606 3105.19198040
0.01100000 1709103.34605650 3999.30200390
0.01200000 1707192.68091227 3661.92846111
0.01300000 1705118.62953194 5013.04899192
0.01400000 1702881.36568749 4597.77989118
0.01500000 1700482.16849083 4081.15738611
0.01600000 1697920.51746140 5628.60676700
0.01700000 1695198.75164304 5492.44420171
0.01800000 1692316.70403156 5305.41310587
0.01900000 1689275.26545474 5574.60862754
0.02000000 1686075.38706240 6373.36525140
0.02100000 1682719.25502720 8329.46069003
0.02200000 1679205.40130771 5793.25889771
0.02300000 1675536.93720196 6635.12657334
0.02400000 1671713.63800013 6895.81907118
0.02500000 1667738.12048301 7805.01476032
0.02600000 1663610.10773382 7411.38336894
0.02700000 1659331.85704765 8363.03294256
0.02800000 1654903.28740251 7198.82963034
0.02900000 1650327.12829014 8911.76690194
0.03000000 1645604.42058629 9947.67917969
0.03100000 1640735.74118506 9450.63830408
0.03200000 1635722.67711639 9716.19314958
0.03300000 1630568.76670662 9147.49120293
0.03400000 1625272.18769471 11092.48319283
0.03500000 1619836.38957820 9621.82859841
0.03600000 1614262.70765340 8959.15844151
0.03700000 1608552.79626908 11002.50163532
0.03800000 1602708.30263013 10313.42840473
0.03900000 1596731.18794530 12454.50384274
0.04000000 1590621.43739187 14673.48343989
0.04100000 1584383.15045890 11977.93717285
0.04200000 1578017.19618832 12213.85366513
0.04300000 1571524.40148848 13483.67999066
0.04400000 1564908.38148977 11619.44527219
0.04500000 1558170.49064986 12901.65226205
0.04600000 1551310.72916401 14217.76349373
0.04700000 1544333.56259207 13343.04260135
0.04800000 1537239.29525553 19207.80588792
0.04900000 1530031.92671205 14917.81197983
0.05000000 1522710.93019355 12813.61307426
0.05100000 1515280.98979281 14183.03072516
0.05200000 1507740.12676585 19178.45530620
0.05300000 1500094.99187433 12150.77000063
0.05400000 1492345.03629492 16005.40126066
0.05500000 1484493.16990080 19951.58913419
0.05600000 1476540.50286784 13886.86407749
0.05700000 1468492.23113791 15331.05960871
0.05800000 1460346.73771088 15508.88307864
0.05900000 1452107.65704861 13068.96952383
0.06000000 1443778.23968297 14531.62866131
0.06100000 1435359.95828375 18688.38753019
0.06200000 1426854.94364184 14832.15783246
0.06300000 1418266.31415698 17699.96442825
0.06400000 1409593.37961971 15117.88970344
0.06500000 1400842.06309658 19415.67190274
0.06600000 1392012.95350805 15388.70392105
0.06700000 1383108.50559474 15518.47815902
0.06800000 1374131.04947945 17066.70843341
0.06900000 1365083.64304028 21500.06838449
0.07000000 1355967.19789038 24549.78726743
0.07100000 1346784.64713046 14545.27487028
0.07200000 1337538.34576284 19039.85924389
0.07300000 1328231.52915707 17692.04479734
0.07400000 1318866.20312593 17804.69457660
0.07500000 1309443.96063538 16420.42803603
0.07600000 1299965.63817999 16516.06420736
0.07700000 1290437.74871913 21137.37131512
0.07800000 1280859.56719162 22767.27987453
0.07900000 1271233.34954012 19831.24118299
0.08000000 1261563.58779858 16860.79814189
0.08100000 1251851.16400269 21556.87805554
0.08200000 1242097.85395213 18556.94280883
0.08300000 1232306.73830691 20185.18532080
0.08400000 1222480.38852718 17145.28825387
0.08500000 1212620.31633564 18771.36337810
0.08600000 1202729.29584298 17265.17985245
0.08700000 1192810.91168783 18894.12572836
0.08800000 1182864.55172778 17370.36675790
0.08900000 1172895.24628327 25334.53850967
0.09000000 1162903.55403346 19048.36110987
0.09100000 1152892.16507606 17500.90388807
0.09200000 1142863.07553820 19131.52878344
0.09300000 1132820.71820238 15972.77287725
0.09400000 1122762.70183907 19199.24310376
0.09500000 1112694.58091566 19227.36326196
0.09600000 1102617.59723646 17647.39547333
0.09700000 1092536.29170818 25696.45478904
0.09800000 1082450.10202584 16074.38477086
0.09900000 1072361.97955138 22519.60262951
0.10000000 1062273.10112513 19312.12588665
0.10100000 1052185.47787638 19318.12628238
0.10200000 1042102.49375633 28980.87171452
0.10300000 1032025.03093520 20929.46861190
0.10400000 1021956.95092050 19314.98728107
0.10500000 1011900.17498523 16089.21353925
0.10600001 1001851.83220351 17687.69492982
0.10700001 991820.69751470 22494.49447817
0.10800001 981803.84162072 27289.23906213
0.10900001 971806.00667227 22448.71981069
0.11000001 961827.02738172 19217.30491164
0.11100001 951870.17767304 19189.70368521
0.11200001 941936.05654136 17562.39860100
0.11300001 932027.28741322 15937.66736512
0.11400001 922145.63107078 28632.62319290
0.11500001 912293.42540538 20636.07825438
0.11600001 902470.95513667 19006.03921020
0.11700001 892681.56263275 20540.60372354
0.11800001 882924.05906538 22064.27327523
0.11900001 873201.78897143 18861.15953017
0.12000001 863515.77629486 17240.09328582
0.12100001 853870.98076626 18751.00762095
0.12200001 844264.23665699 20249.67867021
0.12300001 834700.76022927 18630.52184608
0.12400001 825178.04960919 17019.29807510
0.12500001 815699.99411511 21583.42286131
0.12600001 806268.99241658 19967.25253812
0.12700001 796884.44400851 21420.25486441
0.12800001 787547.84035538 15239.05142908
0.12900001 778261.86522423 18211.32850458
0.13000001 769026.97884196 15111.38084652
0.13100001 759842.93743533 18053.86904448
0.13200001 750713.91627584 20967.44067000
0.13300001 741639.02505785 16397.63961706
0.13400001 732619.23890985 19286.20237356
0.13500001 723657.44348670 19191.39630611
0.13600001 714753.09933660 17625.81226071
0.13700001 705908.04865285 27763.36486265
0.13800001 697121.05375542 21802.46198431
0.13900001 688397.32873339 15901.97904365
0.14000001 679733.97540128 15814.01168351
0.14100001 671134.88224052 24301.79523207
0.14200001 662598.48830713 15634.01206899
0.14300001 654127.82634287 16954.99405853
0.14400001 645719.14564152 18257.70970423
0.14500001 637379.70095200 19542.06255303
0.14600001 629105.80505784 16646.14038710
0.14700001 620900.96083007 15162.40217878
0.14800001 612762.28422314 17803.80900806
0.14900001 604692.73601823 17687.26336303
0.15000001 596692.22072198 17569.60326814
0.15100001 588762.39867508 14766.16165551
0.15200001 580903.75012875 15998.09003345
0.15300001 573116.12390478 18534.57632171
0.15400001 565397.60652892 17089.14346379
0.15500001 557753.16408801 14356.56712115
0.15600001 550179.18497019 14252.39245929
0.15700001 542680.91170406 15433.84585729
0.15800001 535252.32028574 17872.07581788
0.15900001 527899.24791084 15203.49905745
0.16000001 520617.68423554 12572.91766776
0.16100001 513412.13149023 14971.09846095
0.16200001 506280.16115259 13616.40557698
0.16300001 499222.20974127 14737.04032727
0.16400001 492239.49406084 13401.22085847
0.16500001 485330.50816609 18127.09533581
0.16600001 478497.25831399 17979.53533002
0.16700001 471737.24381737 16642.89074767
0.16800001 465052.59675690 14146.90066131
0.16900001 458444.60293248 22211.64206087
0.17000001 451909.88658146 11591.48913816
0.17100001 445450.62341568 14940.41461487
0.17200001 439065.56803013 18230.00324548
0.17300001 432756.03411711 15812.90623340
0.17400001 426521.49076467 14555.04655972
0.17500001 420360.50524573 12207.26964886
0.17600001 414272.98490717 15398.52757626
0.17700001 408262.70311635 16350.92203207
0.17800001 402324.41642887 11882.65220047
0.17900001 396459.57229074 17127.05433193
0.18000001 390670.34637974 13788.71052678
0.18100001 384954.48415809 10509.25791394
0.18200001 379309.30097924 14576.85712521
0.18300001 373738.24691014 11346.69371220
0.18400001 368239.09571887 16349.81662229
0.18500001 362813.07314522 12146.98226275
0.18600001 357458.83844051 12032.06507034
0.18700001 352174.80611089 10924.46300168
0.18800001 346960.87432270 9836.34125178
0.18900001 341821.11246217 13638.66303163
0.19000001 336747.43673817 12542.15887391
0.19100001 331746.19435081 11465.14901849
0.19200001 326812.30772263 12299.58178231
0.19300001 321949.55455196 11242.47897619
0.19400001 317153.21349147 11132.07831958
0.19500001 312425.51927920 11940.90391112
0.19600001 307763.72459847 12732.18588832
0.19700001 303170.95639091 9904.59561336
0.19800001 298642.93780672 10697.39053778
0.19900001 294181.03787229 10590.51786391
0.20000001 289782.77698185 9610.64625281
0.20100001 285450.88022216 8649.16207951
0.20200001 281181.15323399 10274.35982477
0.20300001 276975.86338877 8475.46182029
0.20400001 272833.13209300 13423.39073344
0.20500001 268751.95345005 9134.87932954
0.20600001 264732.21284295 9041.92915704
0.20700001 260773.29886287 8949.74004002
0.20800001 256874.29629090 12884.81531102
0.20900001 253037.15970059 11158.93927029
0.21000001 249255.85555377 9466.73784145
0.21100001 245534.49067280 8588.79688976
0.21200001 241869.38952046 8500.50009655
0.21300001 238261.23543943 9177.82322301
0.21400001 234709.79801151 9083.26961247
0.21500001 231214.47978558 8240.48444915
0.21600001 227772.65983648 8155.40047102
0.21700001 224385.67216921 8804.89419221
0.21800001 221052.15873677 7987.72013362
0.21900001 217770.11299516 10060.97969608
0.22000001 214540.30193107 9245.61474888
0.22100001 211362.91665911 8446.06254906
0.22200001 208236.08535279 8358.59686129
0.22300001 205158.46045179 8271.98951656
0.22400001 202129.28380613 10232.79547656
0.22500001 199151.23553651 10126.84080590
0.22600001 196218.65038636 8017.49443392
0.22700001 193334.53186536 9918.06195371
0.22800001 190495.79891061 7197.88410223
0.22900001 187702.97527396 8418.47883915
0.23000001 184955.27923060 7690.44087410
0.23100001 182253.31538803 6342.41567545
0.23200001 179593.05772636 8159.81096370
0.23300001 176977.08403956 6833.08553793
0.23400001 174401.89011918 6762.43360920
0.23500001 171868.80126971 7300.98702325
0.23600001 169376.97546559 7827.75729137
0.23700001 166924.98907091 8342.91134837
0.23800001 164512.63562478 7667.11174594
0.23900001 162139.26556968 7588.11798758
0.24000001 159803.75871807 5776.90615091
0.24100001 157506.83357721 6860.99799516
0.24200001 155246.74940603 7922.24199693
0.24300001 153022.68339419 6160.69352487
0.24400001 150833.89512110 5543.14590791
0.24500001 148679.85266109 7680.80155181
0.24600001 146560.38876797 8688.10025716
0.24700001 144475.86874441 5374.50257154
0.24800001 142423.81780225 5851.48283122
0.24900001 140403.08034747 8424.18521938
0.25000001 138415.72019212 5211.35211177
0.25100001 136459.03184482 5158.15164776
0.25200001 134535.23008164 6126.73466777
0.25300001 132639.48673859 6064.27762059
0.25400001 130774.95024171 6002.57050008
0.25500001 128937.60207961 6436.56540034
0.25600001 127130.51103282 5881.05771863
0.25700001 125350.69206192 5821.28641478
0.25800001 123598.04560557 6242.31958866
0.25900001 121873.72887409 6178.99834627
0.26000001 120174.65302035 5645.80546603
0.26100001 118501.67423849 4657.11601793
0.26200001 116854.77808300 5992.89757755
0.26300001 115231.93353188 5475.82174054
0.26400001 113634.25438961 4968.65800829
0.26500001 112060.63781785 4918.34162656
0.26600001 110510.26655909 4425.93638512
0.26700001 108983.16123149 6133.57260435
0.26800001 107479.21320992 4770.46510406
0.26900001 105996.51110436 5151.43068345
0.27000001 104536.25561242 4674.33889091
0.27100001 103097.27321339 5047.64273540
0.27200001 101679.77973277 6662.05948336
0.27300001 100282.87285106 4533.78889615
0.27400001 98904.41152262  4895.76860206
0.27500001 97548.19658195  4442.34508258
0.27600001 96209.27034405  5996.24305797
0.27700001 94891.22268922  4352.66059075
0.27800001 93590.61959861  3916.76761557
0.27900001 92308.84825251  5040.06335312
0.28000001 91044.70199220  4605.04124471
0.28100001 89798.45365662  5317.86467723
0.28200001 88570.23930989  5263.72957132
0.28300001 87358.83458069  5210.08114099
0.28400001 86163.45200211  3683.48774743
0.28500001 84985.40027529  6562.57291987
0.28600001 83823.20645699  4330.30705053
0.28700001 82677.53282707  5000.33742206
0.28800001 81545.78087219  3888.51074495
0.28900001 80431.62879138  3848.65361984
0.29000001 79331.40943844  4155.37942308
0.29100001 78246.55104180  3769.91900764
0.29200001 77176.11596131  3731.07950276
0.29300001 76120.41866990  3692.60168447
0.29400001 75078.18934074  3322.21003559
0.29500001 74051.06774947  3945.44107646
0.29600001 73036.60670901  3579.15908120
0.29700001 72036.07467580  4508.01776661
0.29800001 71049.32446558  4461.18729438
0.29900001 70075.98402459  3468.76137343
0.30000001 69114.46188750  3432.56991214
0.30100001 68167.22838547  5558.35606568
0.30200001 67231.23159245  3055.65962053
0.30300001 66308.88889457  5442.63385813
0.30400001 65398.47504980  2991.98037517
0.30500001 64500.86308276  3256.64873123
0.30600001 63613.78755101  3222.35656095
0.30700001 62739.66577607  4637.71631373
0.30800001 61877.17579936  3441.60868090
0.30900001 61026.52892076  3972.82722083
0.31000001 60187.54049350  2807.74889695
0.31100001 59359.09388691  3889.20801561
0.31200001 58542.85097425  3023.44568171
0.31300001 57736.96887390  3535.23477153
0.31400001 56943.56665491  4304.93384294
0.31500001 56159.55243636  2928.15920267
0.31600002 55388.07438031  2633.70306148
0.31700002 54626.51911520  2866.25359369
0.31800002 53875.27423680  3609.10479201
0.31900002 53135.44222385  3315.65175176
0.32000002 52406.55660611  4037.40131210
0.32100002 51687.15872931  2746.13887332
0.32200002 50979.31202117  3704.92167657
0.32300002 50280.44675519  2687.99281081
0.32400002 49593.07946528  3626.49410762
0.32500002 48915.00174152  3587.91554763
0.32600002 48247.33053273  3313.14434457
0.32700002 47590.10721401  2809.72006296
0.32800002 46943.56550618  3011.66458766
0.32900002 46305.32099380  2750.53619728
0.33000002 45678.05354797  2267.91546605
0.33100002 45059.74403415  3365.96303874
0.33200002 44452.79590205  2442.45898650
0.33300002 43854.80003407  2636.55070290
0.33400002 43266.81089685  2826.40455568
0.33500002 42688.65454454  2151.50829093
0.33600002 42119.58613868  2554.97421617
0.33700002 41559.99469464  2317.80101388
0.33800002 41010.91793027  3128.10791327
0.33900002 40470.58288431  2889.59975478
0.34000002 39939.73784605  3677.25183763
0.34100002 39418.71829053  2628.83444729
0.34200002 38907.46866500  2602.32616490
0.34300002 38404.85254191  2576.19763052
0.34400002 37912.31809341  1961.96255425
0.34500002 37428.77048832  2525.31926445
0.34600002 36955.28250426  2885.28381817
0.34700002 36489.43416832  1904.74855380
0.34800002 36034.03846631  2075.02020336
0.34900002 35587.07639329  2802.48239870
0.35000002 35149.80028048  2590.89190138
0.35100002 34722.07942043  3116.65399639
0.35200002 34301.85081838  2361.16801291
0.35300002 33892.01490308  2159.59929191
0.35400002 33490.24369945  2140.02667375
0.35500002 33097.90320145  1944.17092614
0.35600002 32714.25992777  2978.14279358
0.35700002 32339.09684256  3820.54108194
0.35800002 31973.37641941  1893.94304191
0.35900002 31616.58921849  2390.21425813
0.36000002 31268.27855632  2031.81283683
0.36100002 30928.03799956  2687.02806868
0.36200002 30598.04582633  2332.48914382
0.36300002 30274.93259892  1818.31253802
0.36400002 29960.93641108  1640.36134621
0.36500002 29654.81803079  2116.46446311
0.36600002 29357.80999779  2100.99177201
0.36700002 29068.66891008  1925.50871981
0.36800002 28788.59418079  2071.48339240
0.36900002 28516.41641714  1899.19342334
0.37000002 28251.76186521  1729.43168450
0.37100002 27995.25627333  2186.98952367
0.37200002 27747.63811920  1707.72846894
0.37300002 27507.47545324  1697.48639063
0.37400002 27275.17719885  1841.07454814
0.37500002 27050.82820583  2593.63353124
0.37600002 26834.44846063  1669.23694557
0.37700002 26625.69697601  1811.61250807
0.37800002 26424.18657959  1802.65809386
0.37900002 26231.36402662  2840.85685866
0.38000002 26045.06169056  1488.47534613
0.38100002 25865.57100771  1482.09728895
0.38200002 25694.58583902  2066.61563693
0.38300002 25530.27811996  1470.54408937
0.38400002 25373.23173601  1758.36504261
0.38500002 25222.81330027  2044.56134298
0.38600002 25080.27200526  1747.09183065
0.38700002 24943.75144156  2177.58960401
0.38800002 24813.87510116  1592.67864882
0.38900002 24690.90876703  1877.74370069
0.39000002 24575.20416518  1729.60295109
0.39100002 24465.00830741  1582.39681229
0.39200002 24362.24127850  1579.76961055
0.39300002 24264.83734007  1864.26754116
0.39400002 24175.05873073  2005.32121672
0.39500002 24089.80140808  2575.68168858
0.39600002 24011.14139411  1429.86353776
0.39700002 23937.73754388  1857.80789880
0.39800002 23871.40128348  1714.44412141
0.39900002 23809.56491889  2000.00354794
0.40000002 23753.76763119  2143.18378607
0.40100002 23702.98695995  1715.14821768
0.40200002 23658.16937454  2145.20460968
0.40300002 23618.32359378  1574.39752536
0.40400002 23583.65215602  2005.78971090
0.40500002 23553.62904909  2438.50733099
0.40600002 23529.19812174  2011.04065875
0.40700002 23509.26893520  1438.76732700
0.40800002 23493.56919110  1585.46359198
0.40900002 23482.38465909  1733.00006995
0.41000002 23476.33030224  2026.24216439
0.41100002 23474.23444838  1740.84930918
0.41200002 23475.30212096  1454.29503530
0.41300002 23482.12474937  2041.53602244
0.41400002 23491.85848590  1754.84191205
0.41500002 23505.40734033  1613.41123629
0.41600002 23521.78982055  1471.28802299
0.41700002 23543.22680914  2066.62454723
0.41800002 23568.61501982  1629.41627660
0.41900002 23595.27415050  1486.50234192
0.42000002 23625.84966199  2237.95871528
0.42100002 23660.51902610  1797.25311038
0.42200002 23697.23332469  1804.30743084
0.42300002 23736.79714461  1660.62640693
0.42400002 23778.93813579  2122.27032918
0.42500002 23824.28103749  1674.60879348
0.42600002 23870.80338662  1834.71003524
0.42700002 23920.77221743  2149.99910878
0.42800002 23972.29085791  1696.87868879
0.42900002 24026.95446275  1704.71249991
0.43000002 24083.35457678  1868.38673660
0.43100002 24140.07804810  2346.41569747
0.43200002 24199.80754601  2357.66636189
0.43300002 24260.63397888  2053.17755093
0.43400002 24323.30766077  1904.51508009
0.43500002 24387.01661305  2392.36644311
0.43600002 24452.46682069  2724.86076929
0.43700002 24518.49514506  1771.95172810
0.43800002 24585.16744600  2104.61335895
0.43900002 24653.72918484  1627.14620331
0.44000002 24722.42610099  2289.54398971
0.44100002 24792.16179659  2301.20856701
0.44200002 24862.36233034  2147.73527169
0.44300002 24933.04239458  1826.59477239
0.44400002 25004.06550937  2169.72788740
0.44500002 25074.89357901  2180.76359791
0.44600002 25145.64875952  1854.61741215
0.44700002 25217.79390789  1864.09941401
0.44800002 25288.33693179  1703.16957307
0.44900002 25359.73315812  2225.31669009
0.45000002 25431.09161473  2236.53745805
0.45100002 25501.19238747  1728.98092581
0.45200002 25571.25283201  2258.83672597
0.45300002 25640.22419932  2095.31922087
0.45400002 25709.05991059  1754.64342206
0.45500002 25777.51631536  2468.45507935
0.45600002 25844.45038875  2125.96458974
0.45700002 25910.98420481  2492.11857893
0.45800002 25976.13108096  2146.14805162
0.45900002 26040.04857234  1976.43978031
0.46000002 26103.38782735  2166.05922457
0.46100002 26164.66705557  3082.45957191
0.46200002 26225.24672946  2003.47781885
0.46300002 26284.54214011  2378.22548555
0.46400002 26341.68574444  2388.53246808
0.46500002 26398.46615249  2398.82873297
0.46600002 26452.52448162  2223.59931331
0.46700002 26504.88585166  2418.83599747
0.46800002 26556.46637200  2802.37124673
0.46900002 26605.24564953  2625.93787007
0.47000002 26652.59317132  2447.90753584
0.47100002 26698.15872167  3213.39053604
0.47200002 26741.82501770  2087.06583243
0.47300002 26783.50922504  2856.46139424
0.47400002 26822.37609042  2293.31326443
0.47500002 26859.61697494  2301.33209149
0.47600002 26895.29794581  2309.23039108
0.47700002 26927.76087690  2509.93671030
