# SAXS profile: number of points = 501, q_min = 0, q_max = 0.5, delta_q = 0.001
#    q    intensity    error
0.00000000 1700912.83420644 382.70538770
0.00100000 1700829.76640784 612.29873045
0.00200000 1700580.50565696 994.83962731
0.00300000 1700165.28076660 1020.09920480
0.00400000 1699583.94190979 1402.15680535
0.00500000 1698837.04873073 2140.53476613
0.00600000 1697924.44663420 2674.23111232
0.00700000 1696846.75811417 2443.45943324
0.00800000 1695603.75832097 3433.59775557
0.00900000 1694196.72836805 2795.42472131
0.01000000 1692625.02281807 3072.11454907
0.01100000 1690889.97558977 3347.96229744
0.01200000 1688991.48541540 3952.24024915
0.01300000 1686930.66393341 4959.57637071
0.01400000 1684707.65203722 5306.82933917
0.01500000 1682323.79963486 4441.33502880
0.01600000 1679778.53616794 5140.12255046
0.01700000 1677074.15664471 5886.53055389
0.01800000 1674210.56436879 5725.80038779
0.01900000 1671188.54919511 7520.34881072
0.02000000 1668009.18792711 7881.34376947
0.02100000 1664674.57548568 7690.79688743
0.02200000 1661183.26417784 7450.40727833
0.02300000 1657538.46668464 6563.85262685
0.02400000 1653739.70649170 7441.82901854
0.02500000 1649789.79791207 7077.59855628
0.02600000 1645688.34874400 9331.05336416
0.02700000 1641437.72764286 6894.03877185
0.02800000 1637037.74589196 7833.22597332
0.02900000 1632491.19681844 8080.83179528
0.03000000 1627799.10516196 12110.82589908
0.03100000 1622961.91461489 10127.28281319
0.03200000 1617981.32835397 10411.71032750
0.03300000 1612861.03186556 8225.59164172
0.03400000 1607598.95951487 10127.87391225
0.03500000 1602198.72506048 10382.24821782
0.03600000 1596661.31574355 11519.91192547
0.03700000 1590988.73778924 12696.09071472
0.03800000 1585182.53522287 10200.65008624
0.03900000 1579244.61678688 10423.01495348
0.04000000 1573175.07251910 13545.03800205
0.04100000 1566977.90165772 11846.35348581
0.04200000 1560653.83962934 10066.21773261
0.04300000 1554203.95420561 13335.07054607
0.04400000 1547631.75840822 15669.77228162
0.04500000 1540938.54066971 14885.46699452
0.04600000 1534124.32808614 10815.57701579
0.04700000 1527193.65874914 12095.37433982
0.04800000 1520146.80309871 13407.69542717
0.04900000 1512987.65551235 14751.63032790
0.05000000 1505715.56657965 13822.46954486
0.05100000 1498335.52571331 12855.71940949
0.05200000 1490845.37674197 15407.88768666
0.05300000 1483251.84463144 14417.20860192
0.05400000 1475554.26459838 15825.32022581
0.05500000 1467755.58841481 18493.72127675
0.05600000 1459856.92088779 16226.31043285
0.05700000 1451863.30922657 13894.33251787
0.05800000 1443773.59464953 16610.61598203
0.05900000 1435590.75203540 16796.41258330
0.06000000 1427318.38255113 15671.95657259
0.06100000 1418958.05253538 17155.20365684
0.06200000 1410511.68412635 17328.13684947
0.06300000 1401982.44465884 17496.74172741
0.06400000 1393369.68183906 17660.96154326
0.06500000 1384679.13126088 20562.48606109
0.06600000 1375911.59593698 15210.70340477
0.06700000 1367069.25508769 15338.51775991
0.06800000 1358154.76616419 21085.35373169
0.06900000 1349171.06052959 15582.92647869
0.07000000 1340118.83992138 24262.85273297
0.07100000 1331001.24235239 15812.29549976
0.07200000 1321820.57052122 15921.32951779
0.07300000 1312579.85199165 16026.60074375
0.07400000 1303281.34046341 16128.10734406
0.07500000 1293926.70749673 16225.84167255
0.07600000 1284516.53026327 16319.78328208
0.07700000 1275057.17992928 22377.25455699
0.07800000 1265548.26877890 14996.74768832
0.07900000 1255991.92834621 16579.09423179
0.08000000 1246392.56937921 15143.67042836
0.08100000 1236750.90464276 21296.85157716
0.08200000 1227069.02688610 18332.41212193
0.08300000 1217350.00262078 19940.19397876
0.08400000 1207596.14464990 18476.22188039
0.08500000 1197809.22985163 18542.08774856
0.08600000 1187991.70888723 20154.28028755
0.08700000 1178147.09011106 21772.15924762
0.08800000 1168275.26991877 17156.12314447
0.08900000 1158380.99067395 26584.84498465
0.09000000 1148464.84864634 21947.16428861
0.09100000 1138529.30494526 15711.70514640
0.09200000 1128576.11228418 20466.72875794
0.09300000 1118610.75581469 17349.65363798
0.09400000 1108629.74014565 15797.97453954
0.09500000 1098638.93235501 18984.48164342
0.09600000 1088639.78350453 17423.68055404
0.09700000 1078636.65213777 19027.15143823
0.09800000 1068628.90154290 17456.05392745
0.09900000 1058619.88125895 17467.22886213
0.10000000 1048609.98903811 28595.59574584
0.10100000 1038602.16762064 20657.79808555
0.10200000 1028599.08889808 15891.85667097
0.10300000 1018601.84953569 19068.22752029
0.10400000 1008614.15902882 15885.67375205
0.10500000 998637.97944396 22229.68246831
0.10600001 988670.71612192 19041.79888849
0.10700001 978720.59191244 20611.85663562
0.10800001 968785.32085417 20591.53296383
0.10900001 958869.14606162 22149.87831652
0.11000001 948972.05447432 20540.50108593
0.11100001 939097.17102141 17354.51653741
0.11200001 929245.46047939 17325.78242629
0.11300001 919419.10961470 17294.27426608
0.11400001 909620.11090344 17260.04241707
0.11500001 899850.63722882 18788.88219007
0.11600001 890110.98901659 23432.17288932
0.11700001 880404.71746218 24933.06277275
0.11800001 870730.46129889 17096.79341283
0.11900001 861091.56177868 17049.61372628
0.12000001 851488.92154529 18545.42958484
0.12100001 841927.40193965 20029.45383569
0.12200001 832404.46257293 21501.00828120
0.12300001 822924.28938870 19898.31025492
0.12400001 813485.44173027 19828.70857645
0.12500001 804090.80724362 18236.78036761
0.12600001 794743.61029418 22709.79973432
0.12700001 785442.76772008 16588.55203601
0.12800001 776190.06788281 18023.13422566
0.12900001 766987.68161882 25425.64284403
0.13000001 757836.50816270 20848.08332223
0.13100001 748736.46731036 14824.98275156
0.13200001 739690.70721057 17708.19636539
0.13300001 730699.70705225 17624.47776497
0.13400001 721763.42883041 14615.71012288
0.13500001 712884.96589015 23268.56638373
0.13600001 704063.92949869 20255.92020676
0.13700001 695302.35808744 14392.75949108
0.13800001 686598.51513449 15747.13768718
0.13900001 677957.91738891 14237.11693656
0.14000001 669377.52213328 19820.26936510
0.14100001 660861.09887734 16891.61048396
0.14200001 652407.37148964 25189.44980128
0.14300001 644019.40026271 15301.90167200
0.14400001 635693.07159274 20739.48743899
0.14500001 627435.80812872 15114.92933082
0.14600001 619243.90397173 15019.76159938
0.14700001 611120.77771344 17636.94647686
0.14800001 603063.49000011 16174.16356488
0.14900001 595075.54460799 17405.96050101
0.15000001 587156.29744895 18618.72707059
0.15100001 579307.33258708 15849.84936746
0.15200001 571529.38588273 15739.92002993
0.15300001 563822.17132375 13024.29277218
0.15400001 556184.03152239 14224.40727745
0.15500001 548619.55594767 12837.69821502
0.15600001 541125.11351994 15292.19642979
0.15700001 533706.18110167 12648.83708909
0.15800001 526356.60533441 15064.32675569
0.15900001 519082.54494421 13703.77983335
0.16000001 511879.38612322 18542.83163758
0.16100001 504752.11385750 13492.02464029
0.16200001 497698.24767476 14602.46727610
0.16300001 490717.73856681 13278.82263248
0.16400001 483812.08624783 15566.65460992
0.16500001 476979.92240299 16627.52087998
0.16600001 470223.17252002 16490.72743885
0.16700001 463539.41584676 12849.31321395
0.16800001 456930.54546025 15058.14683663
0.16900001 450397.71338755 16079.19912716
0.17000001 443937.87745015 13664.40851314
0.17100001 437553.22417137 11288.87371670
0.17200001 431242.48966875 13428.89176244
0.17300001 425006.64368616 17748.27827849
0.17400001 418845.60969290 16492.04666051
0.17500001 412757.67684024 14165.84413818
0.17600001 406742.79897878 11878.92400521
0.17700001 400804.59570738 10701.48321082
0.17800001 394937.93914473 12724.90100027
0.17900001 389144.49631613 10506.90189681
0.18000001 383425.80784873 13533.01452725
0.18100001 377780.44366822 11344.74725924
0.18200001 372205.24736521 14303.84833193
0.18300001 366703.64791413 14169.42962476
0.18400001 361273.68190165 12030.41417565
0.18500001 355916.06302851 15888.09380418
0.18600001 350629.83006162 9835.16719788
0.18700001 345413.64084264 9740.66513196
0.18800001 340266.78799369 11575.87667446
0.18900001 335193.58141793 12418.92277830
0.19000001 330185.99611519 9459.82923567
0.19100001 325250.51750990 11240.65841626
0.19200001 320381.91443496 11130.06823338
0.19300001 315583.84996847 9183.49046803
0.19400001 310851.48038644 11820.12810024
0.19500001 306187.56345715 9902.10627013
0.19600001 301588.87612519 16932.70825023
0.19700001 297058.64135615 10587.17047826
0.19800001 292592.79116808 12227.45332077
0.19900001 288192.42110199 8645.77304166
0.20000001 283855.23492530 11125.70645871
0.20100001 279583.74041933 11012.80405561
0.20200001 275374.43111021 8385.15182362
0.20300001 271228.40060415 8299.58945076
0.20400001 267144.63316503 10679.10721553
0.20500001 263122.02050420 13008.75330861
0.20600001 259160.05048961 8851.61194287
0.20700001 255258.76013085 9556.88843104
0.20800001 251416.44419769 9458.28707781
0.20900001 247635.57618234 9360.62522218
0.21000001 243910.06359689 8491.72926555
0.21100001 240243.85433704 8403.73042198
0.21200001 236633.45812101 8316.48327882
0.21300001 233079.38232291 8230.03337890
0.21400001 229581.42598311 8884.80160559
0.21500001 226139.35774479 10257.68175226
0.21600001 222750.08676336 8700.61880033
0.21700001 219414.96817373 9327.33073806
0.21800001 216132.86791368 8519.95805599
0.21900001 212901.94259704 7728.34088168
0.22000001 209722.23339894 11123.66778544
0.22100001 206594.85172118 9631.45244265
0.22200001 203517.10800604 10211.47137705
0.22300001 200488.25892013 8083.68698190
0.22400001 197507.36680457 9332.22352280
0.22500001 194576.78139404 7255.76852129
0.22600001 191691.49913820 7179.80543974
0.22700001 188853.96169253 9042.32811344
0.22800001 186061.33858086 9586.81092374
0.22900001 183313.78886958 8221.62381961
0.23000001 180611.15933603 6258.17696695
0.23100001 177953.54156741 6812.06189336
0.23200001 175337.27029303 7353.64546387
0.23300001 172764.64844844 7883.25128154
0.23400001 170232.52743149 7200.83625092
0.23500001 167741.71570588 6531.86271852
0.23600001 165291.61692876 9401.78761558
0.23700001 162881.15194928 6977.82887954
0.23800001 160509.49399590 8631.39844788
0.23900001 158176.47845647 5694.35349377
0.24000001 155880.60470604 6198.59253933
0.24100001 153623.05624879 6134.16892617
0.24200001 151401.83553752 6070.45688302
0.24300001 149215.84501164 6553.56022291
0.24400001 147064.94247424 6485.56426990
0.24500001 144948.27399537 6418.30987613
0.24600001 142865.65686804 7939.75925603
0.24700001 140817.29250154 5762.24388175
0.24800001 138801.02173077 5702.64024758
0.24900001 136815.73065642 6669.76718503
0.25000001 134863.31628161 6093.12491786
0.25100001 132940.99523389 7035.23780061
0.25200001 131051.08426805 6465.40554824
0.25300001 129188.87593227 7383.14460883
0.25400001 127357.25249276 4871.41513832
0.25500001 125552.52058526 6749.70382600
0.25600001 123777.65810876 5248.79184044
0.25700001 122029.34899691 4722.53602962
0.25800001 120307.98633033 6543.55168611
0.25900001 118614.40559690 5088.55824087
0.26000001 116945.67398647 4578.42335320
0.26100001 115302.49765208 5437.66604656
0.26200001 113685.22978871 5381.85903285
0.26300001 112091.40831621 5770.46597316
0.26400001 110522.43063129 7029.22692076
0.26500001 108977.09481329 7391.91669096
0.26600001 107454.43801640 5594.61558006
0.26700001 105954.93107475 5111.26611691
0.26800001 104478.01966908 5058.82595176
0.26900001 103021.92959382 4172.38834599
0.27000001 101588.00211977 4542.50772975
0.27100001 100174.76178370 4904.55656903
0.27200001 98782.76063141  5258.70051107
0.27300001 97411.03069313  5605.03097134
0.27400001 96057.46221557  4754.84460469
0.27500001 94725.53553975  4313.80109263
0.27600001 93410.56955861  4269.33028373
0.27700001 92116.29191594  4609.49946563
0.27800001 90839.01396129  4942.09678846
0.27900001 89580.35264495  4138.61248807
0.28000001 88338.92696102  4840.53173192
0.28100001 87115.17729132  4421.96660859
0.28200001 85908.85583741  4376.19732348
0.28300001 84719.27572129  3609.04131654
0.28400001 83545.33596124  4643.03226580
0.28500001 82388.31428741  3534.45885022
0.28600001 81246.88843617  4546.98232655
0.28700001 80121.72474371  4499.63627459
0.28800001 79010.29762057  4452.62553316
0.28900001 77916.00196294  5084.01936873
0.29000001 76835.45069256  4024.64109778
0.29100001 75770.10953764  4646.22333678
0.29200001 74718.74395742  3283.88895237
0.29300001 73681.90758162  4224.18396161
0.29400001 72658.25807074  5144.20491492
0.29500001 71649.51579136  3817.48638207
0.29600001 70653.18637436  3777.11952237
0.29700001 69670.56880445  3425.70203028
0.29800001 68701.40218237  3081.25803374
0.29900001 67745.52978496  3963.11368003
0.30000001 66801.28929426  4524.11753162
0.30100001 65870.89477161  3879.13717674
0.30200001 64951.79982267  4723.29510671
0.30300001 64046.01789119  3504.59826492
0.30400001 63151.94830526  3178.12194892
0.30500001 62270.47634684  3715.67949952
0.30600001 61399.47389679  3110.19049749
0.30700001 60541.15203610  3356.40162778
0.30800001 59694.23606092  3873.55916138
0.30900001 58859.04284387  3010.64018400
0.31000001 58035.30716760  2707.34720755
0.31100001 57221.91616522  2677.98580332
0.31200001 56420.75594335  3443.64100204
0.31300001 55629.70239542  3144.19092825
0.31400001 54850.97644818  3110.05051186
0.31500001 54081.58769360  2819.81411585
0.31600002 53324.43011310  4056.92283509
0.31700002 52577.05822885  2758.71837589
0.31800002 51840.00495978  2480.54435478
0.31900002 51114.17444546  2944.17658746
0.32000002 50399.03523483  3154.72775990
0.32100002 49693.47575526  2640.21449189
0.32200002 48999.40079265  3086.22740506
0.32300002 48313.97529433  2582.86524154
0.32400002 47639.99318859  3251.42968908
0.32500002 46975.30913878  2986.22054335
0.32600002 46321.09632501  2953.66484703
0.32700002 45677.03183463  2247.31007268
0.32800002 45043.63742234  2445.19397326
0.32900002 44418.35539029  2198.70869594
0.33000002 43804.12812648  2609.85007736
0.33100002 43198.65983565  2366.42269786
0.33200002 42604.57723083  2128.09873346
0.33300002 42019.33472645  3368.27003118
0.33400002 41444.23731669  2915.60223330
0.33500002 40878.62906994  2884.39620377
0.33600002 40322.17223077  2242.11449307
0.33700002 39775.19440314  2419.92294209
0.33800002 39238.65489358  2394.34283500
0.33900002 38710.78456851  2566.52513844
0.34000002 38192.42801284  2148.89706391
0.34100002 37683.80577757  2126.49726074
0.34200002 37185.01141121  2295.80271326
0.34300002 36694.75379092  2650.82913940
0.34400002 36214.67510942  2061.52047824
0.34500002 35743.46620710  2226.10318081
0.34600002 35282.22744514  1836.44002549
0.34700002 34828.76625614  2545.28635855
0.34800002 34385.71025087  1800.09201689
0.34900002 33951.08096047  2317.16138530
0.35000002 33526.07915390  1765.14815105
0.35100002 33110.73033945  2447.54530261
0.35200002 32702.82969296  1904.77640568
0.35300002 32305.30664242  1886.95305036
0.35400002 31915.89342221  2039.42568627
0.35500002 31536.03825962  1852.42697511
0.35600002 31164.65545003  2336.41432975
0.35700002 30801.98853645  2315.69360785
0.35800002 30448.46356366  2459.47476085
0.35900002 30104.16136145  2438.43718578
0.36000002 29768.36574788  2095.54420608
0.36100002 29440.57939268  2557.79765879
0.36200002 29122.99150961  1744.32165909
0.36300002 28812.43580181  1730.47497622
0.36400002 28511.06137882  1717.07875287
0.36500002 28217.35660933  1858.95954148
0.36600002 27933.07152720  1537.71566041
0.36700002 27656.50906893  1679.30331021
0.36800002 27389.14181962  2122.38470014
0.36900002 27129.70939972  2258.54841451
0.37000002 26877.81671650  2094.05079958
0.37100002 26634.14088740  1783.42215830
0.37200002 26399.24148319  1624.74139405
0.37300002 26172.04902893  1615.07722208
0.37400002 25952.66719020  1459.83759860
0.37500002 25741.25468612  1596.98751638
0.37600002 25537.87212230  2021.83343170
0.37700002 25342.07656514  1580.58539024
0.37800002 25153.73532492  1715.98790516
0.37900002 24973.98019017  1708.22032593
0.38000002 24800.92251469  1700.84734663
0.38100002 24634.65676992  1693.87907974
0.38200002 24476.92114342  2109.29877946
0.38300002 24325.76962069  1821.51371549
0.38400002 24182.13860879  1675.82228498
0.38500002 24045.07586531  2088.31493784
0.38600002 23915.93598677  1804.81619474
0.38700002 23792.94348900  2215.59900266
0.38800002 23676.66413577  1657.84010133
0.38900002 23567.29300510  1930.16138856
0.39000002 23465.10803278  1789.09724672
0.39100002 23368.60139301  1511.48120971
0.39200002 23279.47486373  1509.55761906
0.39300002 23195.79710674  1782.13317614
0.39400002 23119.76109508  1780.79968272
0.39500002 23048.47349920  1369.07939072
0.39600002 22983.57139060  1642.40608939
0.39700002 22924.08099044  1779.13800996
0.39800002 22871.63905732  1916.41472741
0.39900002 22823.73529168  1780.25143710
0.40000002 22781.96607312  1918.46945391
0.40100002 22745.31454178  1645.85103822
0.40200002 22714.55212115  1785.02316301
0.40300002 22688.77137332  1924.91545451
0.40400002 22668.26111268  1790.22600620
0.40500002 22652.28805572  1517.47684875
0.40600002 22642.18160968  1520.53577804
0.40700002 22636.33839209  1800.94716781
0.40800002 22634.97616377  1805.25260948
0.40900002 22638.06215600  1392.24088856
0.41000002 22646.20755849  1535.75263835
0.41100002 22658.37121059  1540.31614788
0.41200002 22673.89933162  1404.64813015
0.41300002 22694.95873339  1691.22840495
0.41400002 22719.11351086  1979.97083629
0.41500002 22746.99525456  1561.35382826
0.41600002 22777.83792680  1567.22921281
0.41700002 22813.63997597  2002.58141198
0.41800002 22853.39631534  1723.60323177
0.41900002 22894.44105664  1442.34985491
0.42000002 22939.39849746  2028.07231726
0.42100002 22988.35854957  2473.77738074
0.42200002 23039.59258598  1608.04844074
0.42300002 23093.55113336  1468.74992168
0.42400002 23150.03930181  1623.39658296
0.42500002 23209.76282586  1779.72469782
0.42600002 23270.64542534  1639.53340113
0.42700002 23334.99310282  1947.53861665
0.42800002 23400.90706629  2258.77266161
0.42900002 23469.81235825  2119.32415638
0.43000002 23540.51501638  1826.27324151
0.43100002 23611.50270402  1530.02544772
0.43200002 23685.56595518  1538.37758169
0.43300002 23760.51724694  1546.80974608
0.43400002 23837.47229759  1866.47416935
0.43500002 23915.24901144  2189.68030325
0.43600002 23994.98311726  2516.59394860
0.43700002 24075.02040550  1739.90180716
0.43800002 24155.77216540  1908.78920697
0.43900002 24238.35634485  2559.57055131
0.44000002 24320.97983866  1930.59947108
0.44100002 24404.66698505  2103.43834712
0.44200002 24488.77807714  1790.00731838
0.44300002 24573.38528738  1800.24629147
0.44400002 24658.13466607  2468.89585044
0.44500002 24742.60093641  2151.86410542
0.44600002 24827.09496678  2330.51951498
0.44700002 24912.72393013  2176.37566568
0.44800002 24996.92960176  1851.89761731
0.44900002 25081.74016471  1862.31929549
0.45000002 25166.44775423  2043.01232551
0.45100002 25249.80261830  1883.13036852
0.45200002 25333.19358569  2409.94682002
0.45300002 25415.35170278  2250.02119288
0.45400002 25497.26758665  2784.30175242
0.45500002 25578.66672058  2624.37132991
0.45600002 25658.57845109  1758.89563618
0.45700002 25737.92301051  2475.47355247
0.45800002 25815.78549283  1777.41691542
0.45900002 25892.42659175  2322.55077536
0.46000002 25968.37675113  2693.57000617
0.46100002 26042.10699765  2165.66172057
0.46200002 26115.08623442  2176.43138993
0.46300002 26186.61395012  2004.84725904
0.46400002 26255.88641655  2014.48298079
0.46500002 26324.75475910  2024.11048936
0.46600002 26390.72805971  2033.53764702
0.46700002 26455.00141979  2042.85530646
0.46800002 26518.26756792  1865.56021182
0.46900002 26578.71999877  2810.69977309
0.47000002 26637.49559643  1881.93915308
0.47100002 26694.48175692  2267.96327756
0.47200002 26749.42196287  2087.65873604
0.47300002 26802.17300075  2477.32496788
0.47400002 26852.07749390  2869.81591818
0.47500002 26900.22855115  2304.81169150
0.47600002 26946.70799472  1928.03704841
0.47700002 26989.75310611  2322.19846732
