# SAXS profile: number of points = 501, q_min = 0, q_max = 0.5, delta_q = 0.001
#    q    intensity    error
0.00000000 1682732.95097188 277.65093691
0.00100000 1682650.33231755 656.23364519
0.00200000 1682402.41417296 908.49733242
0.00300000 1681989.42613257 1614.70990661
0.00400000 1681411.23182221 1765.48186050
0.00500000 1680668.35930562 1512.60158325
0.00600000 1679760.67909797 2469.24829880
0.00700000 1678688.81155709 2820.19732062
0.00800000 1677452.53017932 2717.47321362
0.00900000 1676053.09748373 3016.89570444
0.01000000 1674489.89615957 3591.78098235
0.01100000 1672764.23426277 3613.17090332
0.01200000 1670876.02327861 3909.85006589
0.01300000 1668826.34993461 3504.53548943
0.01400000 1666615.39403821 3749.88480282
0.01500000 1664244.48089419 4793.02431840
0.01600000 1661713.05368989 6356.05271450
0.01700000 1659023.35703614 4927.29959143
0.01800000 1656175.31392847 5192.10984280
0.01900000 1653169.72513373 5951.41127902
0.02000000 1650007.76406961 6237.02963032
0.02100000 1646691.32045961 7607.71424545
0.02200000 1643219.04301539 6802.92714716
0.02300000 1639594.20366979 5902.53940189
0.02400000 1635816.24024186 9814.89788899
0.02500000 1631887.94868131 7637.23594863
0.02600000 1627809.02182049 9229.67757587
0.02700000 1623581.83937077 8182.85284521
0.02800000 1619206.08914250 8452.25617294
0.02900000 1614684.57491335 8719.29710487
0.03000000 1610018.38442513 10481.22016438
0.03100000 1605208.02370081 8475.49875512
0.03200000 1600254.92765341 11881.89338508
0.03300000 1595163.10245370 8948.86541731
0.03400000 1589930.39745902 10016.56196616
0.03500000 1584560.20818535 11123.61317513
0.03600000 1579053.79479518 15774.74813901
0.03700000 1573412.83558585 9865.29893537
0.03800000 1567639.24216091 11921.89698837
0.03900000 1561734.67890137 11244.49020882
0.04000000 1555699.32405451 12437.81667217
0.04100000 1549537.14736757 12690.70982536
0.04200000 1543248.80019391 12940.14178996
0.04300000 1536835.44112319 11157.42582046
0.04400000 1530300.60683232 11362.48253343
0.04500000 1523645.58811916 11564.47055117
0.04600000 1516870.28134180 10693.93598059
0.04700000 1509979.27629254 10871.85129493
0.04800000 1502972.95457078 13256.22207610
0.04900000 1495854.94529395 17950.26017907
0.05000000 1488624.78517377 11387.98013687
0.05100000 1481287.49533653 11554.04300186
0.05200000 1473840.82815901 14060.44215587
0.05300000 1466291.48803886 14252.35392815
0.05400000 1458638.85335151 12033.77110133
0.05500000 1450885.87664431 13406.18612558
0.05600000 1443033.49651106 19740.69915345
0.05700000 1435087.04224932 13733.78363540
0.05800000 1427045.17952644 13892.28547135
0.05900000 1418910.87861876 16601.25805521
0.06000000 1410687.73726589 16780.13141873
0.06100000 1402377.23134631 16954.74151930
0.06200000 1393981.43286144 14490.43767193
0.06300000 1385503.59704659 13300.83515353
0.06400000 1376942.74124518 17452.75006149
0.06500000 1368304.67332737 21673.94703936
0.06600000 1359590.49278715 16396.66211019
0.06700000 1350801.94134220 19289.45262509
0.06800000 1341942.01683157 15278.01057678
0.06900000 1333013.55198547 15396.30724627
0.07000000 1324017.23216815 14100.78418291
0.07100000 1314956.00762654 21302.28832130
0.07200000 1305832.46822662 15728.75281663
0.07300000 1296649.36627021 15832.08950398
0.07400000 1287409.09112019 15931.68824924
0.07500000 1278113.30829888 16027.54163732
0.07600000 1268762.70389918 19050.47289214
0.07700000 1259363.31734877 16208.00665425
0.07800000 1249915.07504523 16292.64376728
0.07900000 1240419.81853885 17862.04622476
0.08000000 1230882.27689076 22432.83054868
0.08100000 1221302.85702691 18026.43101549
0.08200000 1211683.69210592 24136.74027937
0.08300000 1202028.18926817 15145.55589559
0.08400000 1192337.95139359 16722.54055323
0.08500000 1182615.66587613 16781.31708658
0.08600000 1172862.82275685 15305.86055561
0.08700000 1163083.65150342 29170.13934947
0.08800000 1153277.63979998 16935.88293584
0.08900000 1143449.76201998 15436.57251232
0.09000000 1133600.50944424 23210.47152119
0.09100000 1123732.30757253 20159.75854498
0.09200000 1113846.77934758 17091.97963218
0.09300000 1103949.68805944 20235.39873303
0.09400000 1094037.35029067 21826.04616407
0.09500000 1084115.68401152 15611.26658354
0.09600000 1074185.98441013 21881.16953102
0.09700000 1064252.61446832 18773.41700181
0.09800000 1054315.23778794 18787.89842074
0.09900000 1044377.03589587 25065.05004012
0.10000000 1034438.16577825 18806.08673825
0.10100000 1024502.03558063 17242.37006976
0.10200000 1014570.84865357 20377.65645370
0.10300000 1004645.82240423 15672.47556675
0.10400000 994730.72240369 20367.11249939
0.10500000 984827.51224356 18790.50981769
0.10600001 974933.59072531 15647.68486742
0.10700001 965057.09979609 21887.49605335
0.10800001 955195.88816283 17179.19885709
0.10900001 945353.98093209 18718.00970343
0.11000001 935531.37672736 15576.59815569
0.11100001 925731.19517873 23328.42721665
0.11200001 915954.81969995 20183.06540225
0.11300001 906203.82389489 18595.30334181
0.11400001 896480.56204669 21650.00659281
0.11500001 886786.92737499 15430.09326290
0.11600001 877123.69969822 16932.87382007
0.11700001 867493.83972233 15354.64168621
0.11800001 857896.28227105 18376.13923173
0.11900001 848334.37619325 22905.02923608
0.12000001 838808.78501825 22836.57024784
0.12100001 829324.59202164 15176.64074894
0.12200001 819879.37315529 16639.45266209
0.12300001 810476.79884149 16582.35608556
0.12400001 801115.93663882 21029.29432762
0.12500001 791799.36798339 17958.01051205
0.12600001 782530.43057236 20870.08756684
0.12700001 773308.01714908 17817.01755477
0.12800001 764133.91544827 16264.59115685
0.12900001 755010.22213528 22084.05003832
0.13000001 745938.01160366 19054.98740457
0.13100001 736917.00885356 16050.05320939
0.13200001 727950.17453245 14522.60666652
0.13300001 719038.30537201 18788.47180512
0.13400001 710181.41513965 24447.99636880
0.13500001 701382.35195227 15739.02071988
0.13600001 692640.78290797 17080.52251187
0.13700001 683958.75530196 16989.53628281
0.13800001 675334.61857704 19713.01844585
0.13900001 666773.53452598 22403.59181659
0.14000001 658272.81172723 15314.71768709
0.14100001 649836.17450853 16609.81340381
0.14200001 641462.32453610 20639.05126540
0.14300001 633154.06196075 16411.35406011
0.14400001 624907.58607513 17669.26282973
0.14500001 616730.04184001 20259.58283013
0.14600001 608618.06160271 16104.03466970
0.14700001 600574.69346924 18665.86235361
0.14800001 592597.08910585 13244.54556638
0.14900001 584688.91762902 18417.70177428
0.15000001 576849.45722649 16985.33306945
0.15100001 569079.98218877 18165.03388858
0.15200001 561381.76802825 12883.71218419
0.15300001 553753.90231347 16629.23047119
0.15400001 546195.47806520 16508.75910359
0.15500001 538710.38794374 12605.82367279
0.15600001 531295.33593996 17516.80805264
0.15700001 523955.53588196 13659.52146513
0.15800001 516685.29601809 17252.12284832
0.15900001 509490.19693339 13450.54183392
0.16000001 502365.91238440 13345.35109242
0.16100001 495317.57339574 15647.08288218
0.16200001 488342.38671681 11939.97191886
0.16300001 481440.45766557 11843.43581768
0.16400001 474613.26822982 12921.34683757
0.16500001 467859.47571538 18639.52239250
0.16600001 461180.58865890 18484.11886614
0.16700001 454575.08298242 18328.46821122
0.16800001 448043.97305123 11357.91525313
0.16900001 441588.62739607 13512.61263636
0.17000001 435206.06278528 12279.33964131
0.17100001 428898.81554591 11065.58996362
0.17200001 422665.26437098 17549.06260540
0.17300001 416506.04778335 13044.97003262
0.17400001 410421.75650055 15083.00026371
0.17500001 404410.26583621 10676.43152230
0.17600001 398471.60486681 14811.19025242
0.17700001 392609.42149689 14675.74086870
0.17800001 386818.43629012 16617.72080791
0.17900001 381100.64569351 11318.68971172
0.18000001 375456.97803432 13251.75466567
0.18100001 369886.71145092 11107.69846956
0.18200001 364386.31886423 11002.64541785
0.18300001 358959.10728174 11888.72619479
0.18400001 353603.51802991 10793.74789777
0.18500001 348319.76161109 10689.93398886
0.18600001 343107.17345511 11548.98800411
0.18700001 337964.59026967 15248.96303340
0.18800001 332890.80353180 11324.94567121
0.18900001 327890.41359363 15886.29128920
0.19000001 322955.27529528 10177.93598183
0.19100001 318091.93450726 10077.15296134
0.19200001 313295.36545300 11790.87163596
0.19300001 308568.66202024 11673.15303581
0.19400001 303907.58882335 8889.29739314
0.19500001 299314.57263626 11439.80350675
0.19600001 294786.61075490 9582.03923540
0.19700001 290326.58374611 11209.50992817
0.19800001 285930.58490214 13656.04538029
0.19900001 281599.72547439 12671.98824523
0.20000001 277331.80163866 9197.70963604
0.20100001 273129.12320990 8275.81282439
0.20200001 268988.30873975 11466.97214354
0.20300001 264910.37806820 10538.13533763
0.20400001 260894.49336747 12033.75907536
0.20500001 256939.36574857 8733.36945459
0.20600001 253044.20620564 13356.93905592
0.20700001 249209.70936001 8552.87762952
0.20800001 245433.68134099 10002.65015588
0.20900001 241718.72998315 8375.55438984
0.21000001 238058.76901271 10548.38455360
0.21100001 234457.55329601 7455.75054727
0.21200001 230911.81929700 10328.68616544
0.21300001 227422.20357524 9490.32900385
0.21400001 223988.12042575 7945.97894776
0.21500001 220609.55864602 10006.85005328
0.21600001 217283.35677512 9901.60303638
0.21700001 214010.87231590 8397.78702672
0.21800001 210791.03349654 9694.28008886
0.21900001 207622.16262849 6851.53169069
0.22000001 204503.86458159 11524.81583342
0.22100001 201437.62943286 7378.66071501
0.22200001 198420.28675860 9955.73835886
0.22300001 195451.59075113 6567.17375977
0.22400001 192530.50918927 6497.90499240
0.22500001 189659.23078109 8358.28269576
0.22600001 186832.83161078 7633.98986061
0.22700001 184053.70087683 8183.02792795
0.22800001 181319.18790435 6228.31439905
0.22900001 178629.11597785 6778.97527194
0.23000001 175983.53108226 7927.17853249
0.23100001 173382.74067797 6033.71966094
0.23200001 170822.66861449 7164.30306052
0.23300001 168305.71075192 10633.55530821
0.23400001 165829.14910166 7599.12111699
0.23500001 163393.14051673 9254.58791657
0.23600001 160997.42152256 8012.84204816
0.23700001 158641.07562026 7362.53266777
0.23800001 156322.97819765 7845.85064684
0.23900001 154042.99416668 6654.65766276
0.24000001 151799.88815027 7682.59270267
0.24100001 149594.43439540 7059.36169304
0.24200001 147424.92183363 5911.00252052
0.24300001 145290.15154096 7976.42969691
0.24400001 143190.16922744 5788.46286483
0.24500001 141123.86363234 8852.70038443
0.24600001 139091.23079529 6699.32944817
0.24700001 137092.27601151 5609.81619977
0.24800001 135124.92587948 6560.99108646
0.24900001 133188.28320936 6492.92911362
0.25000001 131283.94116493 5931.40874244
0.25100001 129409.22597742 4891.66897337
0.25200001 127566.42279096 5809.37516874
0.25300001 125751.01763055 5749.33679807
0.25400001 123965.64260835 8535.03489739
0.25500001 122206.76378887 6100.56193697
0.25600001 120477.07795921 7431.02652011
0.25700001 118773.71369268 6435.16011234
0.25800001 117096.88583493 5459.05707591
0.25900001 115447.13032433 4952.68212525
0.26000001 113822.02417145 6684.19868573
0.26100001 112221.80805023 4410.31726505
0.26200001 110647.26484479 4365.03480467
0.26300001 109095.44835647 5616.23394714
0.26400001 107568.26166626 4703.42246391
0.26500001 106064.19627699 6771.13861073
0.26600001 104582.33876536 5445.07972548
0.26700001 103123.18542622 8705.65972563
0.26800001 101686.07694199 4103.03339877
0.26900001 100269.54547363 4060.91678385
0.27000001 98874.75223249  5225.03652899
0.27100001 97500.04036171  4375.80201851
0.27200001 96146.16714196  4330.90430386
0.27300001 94812.11279412  4286.45582227
0.27400001 93495.81980302  5013.71357421
0.27500001 92200.75320817  5343.95590885
0.27600001 90922.09079131  3777.81305117
0.27700001 89663.72182412  5234.56832783
0.27800001 88422.04653892  4440.55538734
0.27900001 87198.44679070  5127.26891396
0.28000001 85991.70782676  4711.91585337
0.28100001 84802.18701938  4663.27248490
0.28200001 83629.75245884  3905.09147589
0.28300001 82473.45693995  4567.38026151
0.28400001 81332.46671339  4520.05205153
0.28500001 80207.99568069  3785.01549532
0.28600001 79098.73564943  4426.76095015
0.28700001 78005.28742296  4043.79429141
0.28800001 76925.22779405  4668.59229580
0.28900001 75861.74162460  5609.97605868
0.29000001 74811.71738131  3592.08478009
0.29100001 73776.48229908  3231.41007766
0.29200001 72754.83304688  3197.57506377
0.29300001 71747.27311215  3796.86587282
0.29400001 70752.54312597  3130.80018153
0.29500001 69772.32290055  3717.46954011
0.29600001 68804.04970621  3678.26467141
0.29700001 67849.26127594  3032.86212260
0.29800001 66907.43268146  3300.87834760
0.29900001 65978.45565273  3859.73983840
0.30000001 65060.88041865  3231.24877896
0.30100001 64156.64473474  3196.92575848
0.30200001 63263.43151042  3162.85540810
0.30300001 62383.12593532  3982.53894825
0.30400001 61514.11436768  2814.27086555
0.30500001 60657.34312553  3341.00661753
0.30600001 59810.76001924  2754.28562928
0.30700001 58976.48359385  2997.18503814
0.30800001 58153.18313062  3773.56023200
0.30900001 57341.27628019  2933.00642059
0.31000001 56540.43443530  2901.37253041
0.31100001 55749.67826907  3130.90207982
0.31200001 54970.85683316  3097.05822061
0.31300001 54201.67563926  2552.89904348
0.31400001 53444.56068614  3787.88341797
0.31500001 52696.60135209  3746.72853353
0.31600002 51960.28048272  3458.99603551
0.31700002 51233.46295339  2443.83629859
0.31800002 50516.73039088  3142.39336275
0.31900002 49810.89470493  2390.92305904
0.32000002 49115.26201868  2601.38997599
0.32100002 48429.13855160  2573.04025308
0.32200002 47754.04440259  3239.15698520
0.32300002 47087.27619556  2746.13007776
0.32400002 46431.60922076  2263.54105669
0.32500002 45785.14298446  3134.45103714
0.32600002 45148.75528383  3100.36517215
0.32700002 44522.17021861  3066.68722987
0.32800002 43906.04239481  3250.14494218
0.32900002 43297.60727221  3000.52432605
0.33000002 42700.07822719  2332.06488281
0.33100002 42111.03851389  2097.12981730
0.33200002 41533.08056013  2282.03521944
0.33300002 40963.67558768  2462.73629295
0.33400002 40404.23489479  2436.37547953
0.33500002 39853.83411519  2209.49666798
0.33600002 39312.39443010  1987.24163255
0.33700002 38780.23972808  2556.00572152
0.33800002 38258.22556969  2918.14629352
0.33900002 37744.62903072  2309.97140608
0.34000002 37240.36717000  2095.32935805
0.34100002 36745.38838544  2827.55777017
0.34200002 36260.17780288  2052.14485994
0.34300002 35783.35133549  2400.34732126
0.34400002 35316.33086180  2375.90627125
0.34500002 34857.97211393  1809.12883839
0.34600002 34409.25522408  2328.30236501
0.34700002 33968.23953195  2127.77062505
0.34800002 33537.33034194  1931.24725921
0.34900002 33114.73285245  1912.37591280
0.35000002 32701.43609173  2066.07683013
0.35100002 32297.62085998  1705.31446217
0.35200002 31901.05972603  1858.07731175
0.35300002 31514.60288066  1840.76804144
0.35400002 31136.32366487  2155.41210779
0.35500002 30767.11527883  1807.26043708
0.35600002 30406.22738084  1791.07890870
0.35700002 30053.95856268  2098.06694664
0.35800002 29710.55369536  2879.84410610
0.35900002 29376.29279458  1744.95187465
0.36000002 29050.29294297  2359.61015606
0.36100002 28732.08469808  2028.19795491
0.36200002 28423.88765042  1702.44883146
0.36300002 28122.75920167  1842.60327017
0.36400002 27830.48105133  1676.09080071
0.36500002 27545.71468664  1512.25980793
0.36600002 27270.24496402  1801.47246766
0.36700002 27002.29635548  2086.73756120
0.36800002 26743.41982849  1924.32286491
0.36900002 26492.34226806  1617.35757208
0.37000002 26248.67035515  1898.96014680
0.37100002 26013.01274700  1596.67879805
0.37200002 25786.09337458  1731.27839118
0.37300002 25566.59988542  1864.57221797
0.37400002 25354.85797876  1426.21082887
0.37500002 25151.01443476  2411.47937824
0.37600002 24954.98391650  1693.44528879
0.37700002 24766.33273899  1685.10135939
0.37800002 24585.23558559  1956.73899295
0.37900002 24412.45169010  1808.96275593
0.38000002 24246.26068342  1385.67386370
0.38100002 24086.79494316  1794.22544031
0.38200002 23935.73326285  1512.61873520
0.38300002 23791.02427185  1781.47198187
0.38400002 23653.90588983  1639.21575582
0.38500002 23523.19438002  1361.99301913
0.38600002 23400.29776176  1630.06481931
0.38700002 23283.40988903  1490.60397171
0.38800002 23173.21920021  1622.58888527
0.38900002 23069.76435963  2159.33004636
0.39000002 22973.49765776  1482.13527161
0.39100002 22882.77843745  1480.05817945
0.39200002 22799.23132199  1612.81770013
0.39300002 22721.22686383  1745.67194265
0.39400002 22650.68219409  2013.07947537
0.39500002 22584.82739629  1878.15433526
0.39600002 22525.33038687  1743.79853452
0.39700002 22471.11200006  1475.67799496
0.39800002 22423.86416867  1610.48200090
0.39900002 22381.22238810  1342.87340691
0.40000002 22344.48406703  1612.82493637
0.40100002 22312.86908637  1480.01267662
0.40200002 22287.10281151  2020.88314318
0.40300002 22266.16640993  1889.06164772
0.40400002 22250.43149473  1486.88515508
0.40500002 22239.31757777  1625.24940559
0.40600002 22233.91902853  2171.80931361
0.40700002 22232.81766568  1632.77820673
0.40800002 22236.09291957  1500.60280178
0.40900002 22243.61602856  1504.78069563
0.41000002 22256.35369763  1646.52512457
0.41100002 22272.94443939  1789.40844105
0.41200002 22292.98574218  1519.15558538
0.41300002 22318.38938989  1801.76366082
0.41400002 22346.91033160  1669.31428087
0.41500002 22379.10407395  1815.39300850
0.41600002 22414.29523315  1402.01423327
0.41700002 22454.39495785  1971.04688280
0.41800002 22498.26638414  1696.81933109
0.41900002 22543.53767271  1988.34011695
0.42000002 22592.65377845  2140.08923057
0.42100002 22645.69257821  2150.20861219
0.42200002 22701.05674560  2448.64960189
0.42300002 22759.10663672  1592.22717575
0.42400002 22819.69850132  2327.60935743
0.42500002 22883.33310487  1462.24505469
0.42600002 22948.23076340  1616.81767505
0.42700002 23016.62229353  1625.43394339
0.42800002 23086.50438383  1931.30161575
0.42900002 23159.39676380  2091.29362687
0.43000002 23233.98462728  1802.49261280
0.43100002 23308.88846163  1510.41604389
0.43200002 23386.88689218  1670.87621319
0.43300002 23465.71724164  1680.38009130
0.43400002 23546.49005067  1690.04940348
0.43500002 23628.18297534  1854.33988778
0.43600002 23711.75556060  1709.73621572
0.43700002 23795.61956762  1719.70950765
0.43800002 23880.21268366  1729.76328771
0.43900002 23966.60865550  2214.51474471
0.44000002 24053.08719042  2227.55651027
0.44100002 24140.58365764  2080.67700406
0.44200002 24228.49278319  1931.98010609
0.44300002 24316.90017313  1943.40675394
0.44400002 24405.45632619  2117.78357307
0.44500002 24493.72386222  2294.08228565
0.44600002 24581.98666617  2637.15565452
0.44700002 24671.42667765  2321.08793183
0.44800002 24759.47020788  1667.55039753
0.44900002 24848.04644519  2012.69185745
0.45000002 24936.51923986  2361.73784913
0.45100002 25023.64360290  2205.58405169
0.45200002 25110.78311613  2559.41669041
0.45300002 25196.83997058  2230.67634831
0.45400002 25282.49557798  2415.74256697
0.45500002 25367.65103665  2429.20637840
0.45600002 25451.39555087  2093.63189724
0.45700002 25534.46108795  2280.48282785
0.45800002 25616.15212884  1940.03937342
0.45900002 25696.64695659  1773.06872404
0.46000002 25776.35331742  1960.67840802
0.46100002 25853.96841148  2150.01611500
0.46200002 25930.79099081  2161.07222360
0.46300002 26006.03582357  1991.02219702
0.46400002 26079.14881995  1819.02071640
0.46500002 26151.81360535  2559.21660072
0.46600002 26221.59069095  1836.82251496
0.46700002 26289.75993466  2399.20360535
0.46800002 26356.81495373  2781.30302982
0.46900002 26421.19163128  2235.23291795
0.47000002 26483.77042751  2806.61770408
0.47100002 26544.58274199  1879.35654721
0.47200002 26603.37443753  2265.01140697
0.47300002 26659.92487903  2843.28112311
0.47400002 26713.76122769  2284.02669322
0.47500002 26765.77569005  3057.72235976
0.47600002 26816.06933730  2878.03477804
0.47700002 26863.04890872  2889.12104707
