# SAXS profile: number of points = 501, q_min = 0, q_max = 0.5, delta_q = 0.001
#    q    intensity    error
0.00000000 1700912.83420644 331.67800267
0.00100000 1700829.74741047 663.32361724
0.00200000 1700580.43036857 918.31346148
0.00300000 1700165.10620096 1224.11892007
0.00400000 1699583.62434440 1402.15654336
0.00500000 1698836.55149435 1834.74354824
0.00600000 1697923.74528093 1782.82000513
0.00700000 1696845.78255906 3257.94403791
0.00800000 1695602.49874519 2975.78251094
0.00900000 1694195.16727354 3811.93928932
0.01000000 1692623.06230853 3630.67662542
0.01100000 1690887.62097229 4565.39677540
0.01200000 1688988.65745537 4940.29203966
0.01300000 1686927.39588067 4605.31199387
0.01400000 1684703.88161110 6443.99263283
0.01500000 1682319.43825928 4845.08019793
0.01600000 1679773.58157873 5568.44967186
0.01700000 1677068.55578141 4980.89383411
0.01800000 1674204.27018201 4771.48238472
0.01900000 1671181.59160866 6517.60850137
0.02000000 1668001.46083788 6305.04580718
0.02100000 1664666.01084933 6592.07770184
0.02200000 1661173.90645344 8596.57535646
0.02300000 1657528.23346742 7160.52229451
0.02400000 1653728.66083088 6201.48276089
0.02500000 1649777.70461026 6434.13334183
0.02600000 1645675.32603924 11330.47513802
0.02700000 1641423.71888884 6893.97993509
0.02800000 1637022.65572969 7833.15376689
0.02900000 1632475.07453956 9549.97962454
0.03000000 1627781.77099583 8326.10414136
0.03100000 1622943.59163886 13243.22031714
0.03200000 1617961.86125710 9610.69389852
0.03300000 1612840.16035811 10693.13075613
0.03400000 1607576.93114347 13503.64684467
0.03500000 1602175.29449592 10382.09638776
0.03600000 1596636.61325165 10633.60033567
0.03700000 1590962.72765628 9975.33676374
0.03800000 1585155.10918090 13909.73672680
0.03900000 1579215.93536053 9475.29605096
0.04000000 1573144.87640070 14512.26215728
0.04100000 1566946.20499708 13820.46616888
0.04200000 1560620.65271549 10066.00367701
0.04300000 1554169.19893836 18463.53094043
0.04400000 1547595.36342508 12535.52302592
0.04500000 1540900.60336324 10632.21465723
0.04600000 1534084.81342334 14059.88796862
0.04700000 1527152.49478101 12095.04832118
0.04800000 1520103.74526106 13407.31565702
0.04900000 1512942.93979619 19290.02338030
0.05000000 1505669.21760882 13822.04406129
0.05100000 1498287.40250427 15192.63496913
0.05200000 1490795.40284089 17777.73600734
0.05300000 1483199.97983436 14416.70447607
0.05400000 1475500.59579604 20693.89682108
0.05500000 1467700.03527572 18493.02130716
0.05600000 1459799.45883754 14977.54314659
0.05700000 1451803.90964965 15156.83352424
0.05800000 1443712.27695806 14054.53967243
0.05900000 1435527.45338816 14211.72245231
0.06000000 1427253.17653168 18283.11404554
0.06100000 1418890.69907942 17154.38935352
0.06200000 1410442.36189714 17327.28522584
0.06300000 1401910.89086806 18841.68325422
0.06400000 1393295.92208542 19018.49022590
0.06500000 1384603.41830646 19190.60427542
0.06600000 1375833.86600167 15209.84410029
0.06700000 1366989.33039483 16731.95018707
0.06800000 1358072.72443492 15461.65869144
0.06900000 1349086.65841642 16998.49269190
0.07000000 1340032.29926244 21407.01698318
0.07100000 1330912.46847874 21560.78299921
0.07200000 1321729.48346472 21709.40778292
0.07300000 1312486.79095949 21852.90609341
0.07400000 1303185.88852001 19059.09451279
0.07500000 1293828.80673422 17699.57890575
0.07600000 1284416.42410827 16318.51143332
0.07700000 1274954.75404257 16408.66845391
0.07800000 1265443.42543344 14995.50529462
0.07900000 1255884.82125954 16577.68041818
0.08000000 1246282.96719356 18170.80651409
0.08100000 1236639.17814470 18252.79512580
0.08200000 1226954.79869233 25968.49953290
0.08300000 1217233.50709187 18404.57149099
0.08400000 1207477.21128571 23093.00274979
0.08500000 1197687.79603104 29355.32925881
0.08600000 1187867.97054461 21702.34884081
0.08700000 1178021.03129753 15549.87834331
0.08800000 1168146.67219176 18713.71056738
0.08900000 1158250.02916756 20327.28896666
0.09000000 1148331.15028208 20377.13721898
0.09100000 1138393.27057778 25135.72459526
0.09200000 1128437.85147657 15741.70876775
0.09300000 1118470.03613442 18924.51390070
0.09400000 1108486.66615055 20534.71645552
0.09500000 1098493.29262130 17400.13457297
0.09600000 1088491.88212972 19005.06915537
0.09700000 1078486.29798482 19024.49919085
0.09800000 1068476.09257670 19040.24486494
0.09900000 1058464.45381891 19052.36106463
0.10000000 1048452.26779873 22237.67364579
0.10100000 1038441.95584616 17476.97893886
0.10200000 1028436.52312406 17478.27953261
0.10300000 1018436.90088643 17476.37804131
0.10400000 1008446.65221627 20647.94617551
0.10500000 998468.12982222 17463.20841222
0.10600001 988498.56309182 19038.48322098
0.10700001 978545.93875326 17437.68944916
0.10800001 968608.27258871 17420.42060234
0.10900001 958689.93129227 17400.22307191
0.11000001 948790.48010673 20536.57090856
0.11100001 938913.19742279 17351.11670515
0.11200001 929059.15890086 15747.55348472
0.11300001 919230.39054374 22006.37658570
0.11400001 909429.14190326 21962.71481107
0.11500001 899657.37511085 18784.84687686
0.11600001 889915.44148864 18741.62008032
0.11700001 880206.95806743 17137.63028067
0.11800001 870530.50898710 27970.14657110
0.11900001 860889.43745791 20144.81378537
0.12000001 851284.58904683 24721.30563041
0.12100001 841720.88645993 15403.49294785
0.12200001 832195.58913769 18424.81121153
0.12300001 822713.31006371 21423.45560341
0.12400001 813272.42066053 18298.63032705
0.12500001 803875.73032100 21270.55282657
0.12600001 794526.37169565 16649.30090345
0.12700001 785223.50920383 18091.55050465
0.12800001 775969.01846082 15015.00121486
0.12900001 766764.54389624 14951.90931069
0.13000001 757611.29791481 19353.18151744
0.13100001 748509.34398381 17784.58285138
0.13200001 739461.69954887 14752.26160143
0.13300001 730468.74386423 16150.66468823
0.13400001 721530.53982010 23377.59059232
0.13500001 712650.31246123 15991.87376562
0.13600001 703827.64618600 21695.48821664
0.13700001 695064.25501420 17265.39690867
0.13800001 686358.86426531 20034.81619266
0.13900001 677716.28409336 18501.65542825
0.14000001 669134.44961376 15567.41370443
0.14100001 660616.36343509 18292.46796624
0.14200001 652161.09842554 23781.05557573
0.14300001 643771.36964458 19467.64713629
0.14400001 635443.65649256 16585.08021677
0.14500001 627184.73304985 16482.41556206
0.14600001 618991.56708315 20473.14704708
0.14700001 610867.12258335 17629.62598946
0.14800001 602808.33001107 18861.87353592
0.14900001 594819.26913571 18736.80786179
0.15000001 586898.71804733 13293.25659099
0.15100001 579048.40458163 13202.30424741
0.15200001 571269.19865768 15732.75447341
0.15300001 563560.92196898 15621.90949416
0.15400001 555921.72148337 19387.77095166
0.15500001 548356.08808033 19247.29959996
0.15600001 540860.69936897 28021.99415680
0.15700001 533440.74924149 16435.31025982
0.15800001 526090.21182966 13801.97735879
0.15900001 518815.38718717 13696.72686823
0.16000001 511611.34984736 19768.66349123
0.16100001 504483.22505596 18388.41442130
0.16200001 497428.51974930 13378.34067020
0.16300001 490447.42543372 14478.00868228
0.16400001 483541.23019227 16754.70441714
0.16500001 476708.37680038 17805.05871409
0.16600001 469950.92058760 12949.49822818
0.16700001 463266.66961135 12841.75268795
0.16800001 456657.43796192 13891.51991871
0.16900001 450124.22551587 16069.43560968
0.17000001 443664.13887138 13655.98283929
0.17100001 437278.96469147 13538.15738614
0.17200001 430968.14979561 15657.07362145
0.17300001 424732.13005366 12194.06002970
0.17400001 418570.88382306 10987.48621925
0.17500001 412482.83735868 14156.41164672
0.17600001 406467.92766751 10791.72398926
0.17700001 400529.63423300 13902.38426085
0.17800001 394663.20658825 11656.37835714
0.17900001 388869.82267970 10499.48570828
0.18000001 383151.35855704 11442.81586381
0.18100001 377506.06884960 12367.09939969
0.18200001 371931.17457145 16335.21795882
0.18300001 366429.86252250 14158.85055672
0.18400001 361000.21831300 11019.53218457
0.18500001 355643.06806806 13891.41889500
0.18600001 350357.23260614 10810.27292278
0.18700001 345141.70969517 9732.99667324
0.18800001 339995.46469360 10602.75906741
0.18900001 334922.89892682 10499.83337745
0.19000001 329915.97482733 11342.51175048
0.19100001 324981.30854018 12167.30076665
0.19200001 320113.43644868 11120.74130770
0.19300001 315316.20010207 10093.27204220
0.19400001 310584.88036249 9993.06899787
0.19500001 305921.78723700 8994.10096979
0.19600001 301324.01763870 10684.95017040
0.19700001 296794.95602422 9696.29167153
0.19800001 292330.20766695 13089.08566686
0.19900001 287931.12799373 12956.90137206
0.20000001 283595.06241185 9405.43068940
0.20100001 279324.91648232 10156.25444331
0.20200001 275116.79692694 11728.22960731
0.20300001 270972.19262476 9120.92443485
0.20400001 266889.84536581 9027.54944619
0.20500001 262868.60029924 10559.43217313
0.20600001 258908.33076397 11254.74567030
0.20700001 255008.49370752 12730.02460762
0.20800001 251167.89306047 8661.52520162
0.20900001 247388.69600662 13247.66529739
0.21000001 243664.91236385 10025.59329314
0.21100001 240000.53547967 8395.21912795
0.21200001 236391.89871738 12084.35443371
0.21300001 232839.76230259 10463.81941256
0.21400001 229343.66644191 11094.50038864
0.21500001 225903.61374652 10246.98840399
0.21600001 222516.20890898 9415.77382515
0.21700001 219183.27384276 11467.66942964
0.21800001 215903.30870224 8510.90883144
0.21900001 212674.42923558 7720.08214627
0.22000001 209496.96824583 6944.82482572
0.22100001 206371.71720340 8246.61420938
0.22200001 203296.37662901 6800.26411979
0.22300001 200269.89045039 7401.97550105
0.22400001 197291.34265598 7324.44144245
0.22500001 194363.13300121 7906.69262438
0.22600001 191480.29727192 11083.83753172
0.22700001 188645.23535608 9677.50103141
0.22800001 185855.18061032 7660.95090704
0.22900001 183110.28392009 8844.22713159
0.23000001 180410.19304395 6251.21348460
0.23100001 177755.10962891 11134.58059374
0.23200001 175141.64894081 7345.44110397
0.23300001 172571.74272858 7874.44899312
0.23400001 170042.37338577 6593.39333987
0.23500001 167554.28195966 6524.56404810
0.23600001 165107.04641415 9391.28924422
0.23700001 162699.48846639 8712.55801946
0.23800001 160330.54822062 7472.20555325
0.23900001 158000.57719381 6256.82315282
0.24000001 155707.60065991 6754.59603612
0.24100001 153453.02344950 7798.48302058
0.24200001 151234.78954665 7717.51167562
0.24300001 149051.78677404 6000.82521938
0.24400001 146904.05274530 8637.95871003
0.24500001 144790.36001404 5877.04099098
0.24600001 142710.96165612 6873.67379333
0.24700001 140665.61888437 6802.58965105
0.24800001 138652.61555205 7250.14561020
0.24900001 136670.43563097 6150.16989434
0.25000001 134721.16373322 6086.70246542
0.25100001 132802.07373767 6525.89421220
0.25200001 130915.29267970 7949.17694758
0.25300001 129056.55078597 5900.46578109
0.25400001 127228.13777514 6813.06710019
0.25500001 125426.67574944 5298.02303432
0.25600001 123655.08769375 6196.97501297
0.25700001 121910.00303736 6133.29254300
0.25800001 120192.03799756 6070.29916628
0.25900001 118501.73097551 8318.82190808
0.26000001 116836.48576844 5031.56349769
0.26100001 115196.52041147 5885.39050630
0.26200001 113582.68179980 5377.00441083
0.26300001 111992.28660545 5321.87371131
0.26400001 110426.60048298 5706.29484997
0.26500001 108884.69637994 4778.94955025
0.26600001 107365.37099748 5159.97997431
0.26700001 105869.22542373 4681.53736977
0.26800001 104395.75443282 5054.84266884
0.26900001 102943.04029851 5003.03199526
0.27000001 101512.51375357 4126.48387936
0.27100001 100102.73933838 4901.03034994
0.27200001 98714.19452214  5255.05039407
0.27300001 97345.73590546  4801.09192206
0.27400001 95995.58500850  7523.65433110
0.27500001 94667.13517768  4703.06349820
0.27600001 93355.44086189  5430.48625194
0.27700001 92064.52786705  4223.00009312
0.27800001 90790.62289082  4939.46407215
0.27900001 89535.42982274  4888.63469969
0.28000001 88297.33549711  4466.07944082
0.28100001 87076.88470100  4788.35811634
0.28200001 85873.83690118  4374.41345879
0.28300001 84687.56195390  3968.45934099
0.28400001 83516.91706282  4641.45288545
0.28500001 82363.22628374  3533.38257481
0.28600001 81225.01968778  4196.08471568
0.28700001 80103.14613408  3460.45607678
0.28800001 78995.00509489  3424.43363295
0.28900001 77903.88202155  4744.34663968
0.29000001 76826.53349978  3353.47834600
0.29100001 75764.37467495  3982.17572141
0.29200001 74716.14072691  4597.28435654
0.29300001 73682.41683510  3249.39473624
0.29400001 72661.91016468  3536.81864469
0.29500001 71656.30012115  3499.69386358
0.29600001 70662.95586358  3462.83831602
0.29700001 69683.41235757  4360.78815177
0.29800001 68717.27562863  4006.56094519
0.29900001 67764.41821474  3354.33886042
0.30000001 66823.13096556  3922.18385770
0.30100001 65895.65007034  3880.59501635
0.30200001 64979.41475090  5020.63471841
0.30300001 64076.47686152  3798.45372817
0.30400001 63185.34855592  2890.72983329
0.30500001 62306.57087107  4575.79478140
0.30600001 61438.39350199  3112.16197018
0.30700001 60582.87078195  4198.39314395
0.30800001 59738.63949898  3045.77467905
0.30900001 58906.01610510  3013.04286643
0.31000001 58084.89649850  2980.62660494
0.31100001 57274.23078760  3216.52095332
0.31200001 56475.55302990  4242.44374447
0.31300001 55687.03274468  4196.57498633
0.31400001 54910.91093975  3891.81099712
0.31500001 54143.76820997  3079.69768160
0.31600002 53389.09239205  3554.11204882
0.31700002 52644.08393577  3264.45979942
0.31800002 51909.44586242  2980.64052255
0.31900002 51185.94141375  3194.00289545
0.32000002 50473.06600231  2673.30606739
0.32100002 49769.67236853  3125.03787599
0.32200002 49077.71479860  2615.59693404
0.32300002 48394.39741632  3527.95173870
0.32400002 47722.49852709  2559.11910469
0.32500002 47059.99620814  2761.48070825
0.32600002 46407.65467841  2959.18424069
0.32700002 45765.54789121  2251.66506287
0.32800002 45134.08501667  3118.31408146
0.32900002 44510.62421914  2423.60360350
0.33000002 43898.26469579  2179.54894536
0.33100002 43294.62602127  2156.07247796
0.33200002 42702.24073023  2772.87013313
0.33300002 42118.65254150  2321.15905148
0.33400002 41545.14263236  2505.17221937
0.33500002 40981.14291850  2478.53964108
0.33600002 40426.27708971  2656.61292476
0.33700002 39880.82532244  2426.34952752
0.33800002 39345.74450725  2400.87744353
0.33900002 38819.25286812  1979.78199003
0.34000002 38302.20548776  2155.07369383
0.34100002 37794.87215722  3102.20325358
0.34200002 37297.43157733  2494.63882919
0.34300002 36808.37723604  2469.10606193
0.34400002 36329.50714020  2820.07812532
0.34500002 35859.38941533  2233.32287856
0.34600002 35399.23123292  2211.03608752
0.34700002 34946.84398325  2736.33801348
0.34800002 34504.68072712  2890.11219458
0.34900002 34070.99439879  2325.34547785
0.35000002 33646.92471994  2125.81280449
0.35100002 33232.44204729  2105.60762784
0.35200002 32825.35953518  2433.34401759
0.35300002 32428.58839539  2582.93718803
0.35400002 32039.88546665  2559.18597286
0.35500002 31660.70123035  1859.74967836
0.35600002 31289.87331748  2178.24463417
0.35700002 30927.71897352  2657.30974007
0.35800002 30574.84573856  2798.97438571
0.35900002 30231.01939496  2285.46517451
0.36000002 29895.59888464  2266.38545879
0.36100002 29568.20648097  1605.55368797
0.36200002 29251.03513665  2070.53462022
0.36300002 28940.69421116  1896.19437453
0.36400002 28639.67773400  2195.23140229
0.36500002 28346.17361146  1711.82550548
0.36600002 28062.07302436  1853.78063180
0.36700002 27785.64942014  1533.76792064
0.36800002 27518.33564312  2741.65190999
0.36900002 27258.95737536  1512.87220600
0.37000002 27007.11979505  1653.24091657
0.37100002 26763.42283409  2090.75869084
0.37200002 26528.44067504  2077.97285651
0.37300002 26301.11607206  1918.14048600
0.37400002 26081.59098015  1760.50747456
0.37500002 25869.96500463  1604.97270492
0.37600002 25666.39785914  1741.72184123
0.37700002 25470.37624445  1588.58744162
0.37800002 25281.76525037  1724.72210708
0.37900002 25101.68551437  2003.11459894
0.38000002 24928.24443466  2279.43877909
0.38100002 24761.58107366  1702.60639528
0.38200002 24603.39457585  1696.15810241
0.38300002 24451.86803991  1549.27043240
0.38400002 24307.71181135  1684.52450833
0.38500002 24170.08591045  2099.17206077
0.38600002 24040.47576115  1674.65962086
0.38700002 23916.77232922  1809.54308016
0.38800002 23799.95126185  1666.47266630
0.38900002 23689.83660970  1801.61215952
0.39000002 23587.04235142  1521.71810940
0.39100002 23489.78585739  2209.91915816
0.39200002 23399.91430247  2069.13752022
0.39300002 23315.49161297  1515.74018157
0.39400002 23238.69698187  1514.58214755
0.39500002 23166.64122015  1376.09855367
0.39600002 23100.86348950  2201.05037756
0.39700002 23040.53547243  1788.17604274
0.39800002 22987.19534765  1513.36207741
0.39900002 22938.40662390  2064.45669396
0.40000002 22895.71147351  1377.17711038
0.40100002 22858.10323237  1791.84679728
0.40200002 22826.38406552  2069.78247321
0.40300002 22799.62517943  1519.82308647
0.40400002 22778.15664079  2075.65962224
0.40500002 22761.11438794  1801.99751147
0.40600002 22750.00838138  1944.44330849
0.40700002 22743.07600006  2922.94026602
0.40800002 22740.66517752  2092.70981212
0.40900002 22742.71088889  1818.27982172
0.41000002 22749.70627251  1683.02334978
0.41100002 22760.79478778  1687.94062144
0.41200002 22775.17220431  1693.10638189
0.41300002 22795.08473980  1557.13231236
0.41400002 22818.05228765  1704.50858665
0.41500002 22844.91542023  1568.07506875
0.41600002 22874.49261524  2003.11941323
0.41700002 22909.18690177  1723.68730416
0.41800002 22947.72670306  2019.17056828
0.41900002 22987.63245227  1593.04300443
0.42000002 23031.40612324  2036.20671184
0.42100002 23079.05945803  1606.99498621
0.42200002 23129.25681481  2494.83740455
0.42300002 23181.90570172  1474.36927249
0.42400002 23237.14736562  1777.64185771
0.42500002 23295.71213819  1488.59607617
0.42600002 23355.37632585  1495.91192456
0.42700002 23418.57940009  1804.16744248
0.42800002 23483.23544610  1964.49015433
0.42900002 23550.94625439  2126.65054755
0.43000002 23620.43200632  1679.76710173
0.43100002 23690.26105890  1535.12898936
0.43200002 23763.07137735  1852.09387092
0.43300002 23836.82283379  1862.13268802
0.43400002 23912.65466997  1872.36094939
0.43500002 23989.14383053  1882.66809704
0.43600002 24067.67733793  1735.39995669
0.43700002 24146.59684777  1745.07463689
0.43800002 24226.12643552  2233.40670193
0.43900002 24307.54352971  1604.29794899
0.44000002 24389.03991478  1774.66857350
0.44100002 24471.56328412  2433.69708394
0.44200002 24554.49191910  1957.97527842
0.44300002 24638.01011785  1640.89155161
0.44400002 24721.60101812  2145.21703001
0.44500002 24804.96472104  1825.39744033
0.44600002 24888.38765704  2002.51976579
0.44700002 24972.86572852  2349.44731908
0.44800002 25056.02911904  2193.78073348
0.44900002 25139.71706325  1866.62408041
0.45000002 25223.38240320  1876.99809049
0.45100002 25305.72341414  1887.30094167
0.45200002 25388.06991567  2070.14331903
0.45300002 25469.23193458  2081.34573233
0.45400002 25550.16841918  1918.17898498
0.45500002 25630.56620976  2103.75697420
0.45600002 25709.47183306  2114.86125322
0.45700002 25787.93056277  2125.95709635
0.45800002 25864.81927864  1958.87218091
0.45900002 25940.56168346  2505.85837739
0.46000002 26015.61336549  2698.46962423
0.46100002 26088.43565485  2531.10014719
0.46200002 26160.53268849  2180.21889759
0.46300002 26231.22242998  2921.10906825
0.46400002 26299.71509761  2568.16730100
0.46500002 26367.72056236  2764.65563200
0.46600002 26432.91574594  2407.11358649
0.46700002 26496.41828008  3162.08270741
0.46800002 26558.92117472  2242.10423184
0.46900002 26618.65238154  1876.61508184
0.47000002 26676.68122753  2638.59066528
0.47100002 26732.94635366  2839.03903732
0.47200002 26787.24921796  3230.94421756
0.47300002 26839.37850702  1908.27990230
0.47400002 26888.57586684  2107.39223345
0.47500002 26936.15578082  3269.51074364
0.47600002 26982.07246992  2123.62411440
0.47700002 27024.48061680  2325.18642248
