# SAXS profile: number of points = 501, q_min = 0, q_max = 0.5, delta_q = 0.001
#    q    intensity    error
0.00000000 1700912.83420644 382.70538770
0.00100000 1700829.67805049 714.34848175
0.00200000 1700580.15388064 994.83942152
0.00300000 1700164.48701183 1122.10860140
0.00400000 1699582.52978149 1784.56172408
0.00500000 1698834.83165803 1987.63683171
0.00600000 1697921.27033178 2317.66262836
0.00700000 1696842.42226388 2443.45318961
0.00800000 1695598.11661757 2517.96330949
0.00900000 1694189.61331092 3303.66988718
0.01000000 1692616.22393020 3072.09857908
0.01100000 1690879.34067405 3347.94124030
0.01200000 1688978.81622394 3293.50883604
0.01300000 1686915.84939685 4959.53281597
0.01400000 1684690.49652295 4169.60916374
0.01500000 1682304.10203157 4441.28302713
0.01600000 1679756.17799273 6425.06766805
0.01700000 1677048.91795428 5886.44196608
0.01800000 1674182.25992539 5725.70358659
0.01900000 1671157.10010834 5514.81867920
0.02000000 1667974.40531459 5779.53157586
0.02100000 1664636.23354390 6591.95978370
0.02200000 1661141.24234974 5730.93754648
0.02300000 1657492.57782311 7757.06561730
0.02400000 1653689.89816674 8681.87236125
0.02500000 1649735.73372050 9007.55751749
0.02600000 1645629.96924840 7331.28184832
0.02700000 1641374.99370720 8961.90787611
0.02800000 1636970.32022764 9257.06758541
0.02900000 1632419.05265695 8080.47468166
0.03000000 1627721.94938662 8325.79815381
0.03100000 1622879.85704112 7789.82367223
0.03200000 1617894.03064661 9610.29098467
0.03300000 1612768.33045654 11515.16641031
0.03400000 1607500.84390449 9283.31780188
0.03500000 1602094.85983039 9516.44390684
0.03600000 1596551.79328126 9746.94914843
0.03700000 1590873.26625767 9974.77584074
0.03800000 1585061.03159540 10199.86821036
0.03900000 1579117.09947871 12317.11394634
0.04000000 1573041.23137217 12576.46522760
0.04100000 1566837.71095393 9871.07803670
0.04200000 1560507.12150766 14091.37996095
0.04300000 1554050.54701162 10256.73408637
0.04400000 1547471.58285196 10445.43366936
0.04500000 1540771.53545273 12757.58890633
0.04600000 1533950.40554603 12977.22103419
0.04700000 1527012.63997248 14292.83897487
0.04800000 1519958.52077699 11171.69564751
0.04900000 1512792.08176051 15884.31759786
0.05000000 1505512.65132748 11517.17231897
0.05100000 1498125.14938725 12853.91438053
0.05200000 1490627.40571306 13035.53727043
0.05300000 1483026.12719910 19220.01950450
0.05400000 1475320.79623650 19474.23541848
0.05500000 1467514.29803752 18490.68101785
0.05600000 1459607.75464223 22463.36439218
0.05700000 1451606.21370318 17680.56450821
0.05800000 1443508.45847119 20440.08072635
0.05900000 1435317.49562274 15501.42967673
0.06000000 1427036.97827653 14363.12785738
0.06100000 1418668.15727201 22429.14461461
0.06200000 1410213.64143869 14659.17148798
0.06300000 1401675.88975639 17492.91592205
0.06400000 1393054.47160546 13582.28173335
0.06500000 1384355.60171805 15075.63320791
0.06600000 1375579.60841145 13824.57571137
0.06700000 1366728.72574288 23699.07721347
0.06800000 1357805.61066226 18269.27534663
0.06900000 1348813.13696901 16995.04632150
0.07000000 1339752.31325294 22829.38048690
0.07100000 1330625.97198009 20119.06563867
0.07200000 1321436.36526179 15916.70176522
0.07300000 1312187.21918750 16021.80669699
0.07400000 1302879.71937992 14657.39752993
0.07500000 1293516.18992059 16220.69378191
0.07600000 1284097.26756911 25213.25103073
0.07700000 1274629.03435818 16404.47644137
0.07800000 1265111.31198798 16490.72672512
0.07900000 1255546.07687356 16573.20899208
0.08000000 1245937.94784116 16651.96145406
0.08100000 1236287.60986284 15206.33831477
0.08200000 1226596.78872018 18325.35688340
0.08300000 1216869.08667989 18399.06145410
0.08400000 1207106.27182715 23085.90853232
0.08500000 1197310.56032488 16989.83764860
0.08600000 1187484.33461308 18596.00555315
0.08700000 1177631.18307416 23317.09851979
0.08800000 1167750.44007710 18707.36292860
0.08900000 1157847.58168457 25009.50893908
0.09000000 1147922.60895339 20369.88765276
0.09100000 1137978.61594934 18844.92676548
0.09200000 1128017.04697444 20456.59010807
0.09300000 1118043.15265701 17340.85011259
0.09400000 1108053.79967145 18947.72086488
0.09500000 1098054.61340580 23717.98076437
0.09600000 1088047.19514477 15831.08743354
0.09700000 1078035.75208350 20601.26419084
0.09800000 1068019.75083817 25376.15047304
0.09900000 1058002.60674304 17457.04383213
0.10000000 1047984.71108614 23815.45367941
0.10100000 1037968.92026846 26997.57288593
0.10200000 1027958.04313272 19058.34301611
0.10300000 1017952.99598481 20644.08772969
0.10400000 1007957.64725055 23813.00053658
0.10500000 997973.78410118 22214.89747929
0.10600001 987999.02216380 19028.86206225
0.10700001 978041.51934809 23766.41003855
0.10800001 968098.90317685 22159.78493660
0.10900001 958175.63888181 17390.88866422
0.11000001 948271.48982531 22104.20946826
0.11100001 938389.38821380 20494.42520333
0.11200001 928530.96118254 20460.18069286
0.11300001 918697.75323057 17280.70555186
0.11400001 908892.06017367 15678.38877620
0.11500001 899116.15548351 20338.00839471
0.11600001 889370.06876638 26534.35725119
0.11700001 879657.55587941 20240.92131403
0.11800001 869977.08436350 21740.72836220
0.11900001 860332.27088121 20131.77608686
0.12000001 850723.67041036 18528.76241433
0.12100001 841156.41470645 16932.47942570
0.12200001 831627.81170402 16877.88723367
0.12300001 822142.27397370 19879.40112129
0.12400001 812698.03073189 22857.13319130
0.12500001 803298.29690844 21255.27393776
0.12600001 793946.08598568 16637.14101583
0.12700001 784640.41934185 18078.11611359
0.12800001 775383.18885874 19504.76503499
0.12900001 766176.16760039 22410.65395857
0.13000001 757020.58130564 16363.00063619
0.13100001 747916.20240545 14808.74150568
0.13200001 738866.47650508 14740.38690114
0.13300001 729871.46279341 17604.50051251
0.13400001 720931.42138600 16058.74816847
0.13500001 712049.56317955 18883.55530585
0.13600001 703225.21189702 17341.53454305
0.13700001 694460.39916462 18687.93022272
0.13800001 685753.61591455 14297.96356605
0.13900001 677110.11896964 17063.17580270
0.14000001 668527.12690546 15553.28434096
0.14100001 660008.26496744 16869.81204820
0.14200001 651552.19917577 20963.69299724
0.14300001 643162.10139651 20838.45306815
0.14400001 634833.92023570 16569.16609972
0.14500001 626574.73845136 21955.17987101
0.14600001 618381.44595617 14998.84267923
0.14700001 610257.11114996 17612.02105866
0.14800001 602198.51435408 18842.79240312
0.14900001 594209.68644048 14706.69043328
0.15000001 586289.60573604 17263.29825543
0.15100001 578439.98956593 14507.27562284
0.15200001 570661.65445787 15716.02270536
0.15300001 562954.20818905 16905.51566967
0.15400001 555316.27865316 16784.43531437
0.15500001 547751.75948670 16662.60930994
0.15600001 540257.78659805 13995.37862233
0.15700001 532839.55636187 13891.12788997
0.15800001 525490.66363517 16292.83879501
0.15900001 518217.64840796 13680.94656372
0.16000001 511015.53833571 13575.12841667
0.16100001 503889.69764067 14693.42427679
0.16200001 496837.18087626 13362.43661045
0.16300001 489858.54414420 15665.67698127
0.16400001 482955.05443213 17929.70724225
0.16500001 476125.10816132 14226.61890352
0.16600001 469370.56867012 14109.27996037
0.16700001 462689.51797763 12825.75404390
0.16800001 456083.27220817 13874.05379566
0.16900001 449553.51765033 11463.61524137
0.17000001 443096.86831808 15911.60929264
0.17100001 436715.55638579 13520.71426417
0.17200001 430408.40835646 17870.55795886
0.17300001 424176.35735001 14392.30448455
0.17400001 418019.16199954 13167.60422484
0.17500001 411935.43963900 11962.60573208
0.17600001 405924.92464944 11855.03798429
0.17700001 399991.19731912 14951.67166197
0.17800001 394129.13438855 14815.31486142
0.17900001 388340.63889001 13630.75706887
0.18000001 382627.22954880 11427.16275024
0.18100001 376986.97585163 11320.91941958
0.18200001 371417.34578427 12234.48794807
0.18300001 365921.32053055 11109.37181611
0.18400001 360497.26380915 10003.79954329
0.18500001 355145.60251422 14862.84416737
0.18600001 349865.60572261 10795.10377457
0.18700001 344655.88954529 12635.08550767
0.18800001 339515.50886869 11550.31815742
0.18900001 334449.00089672 12391.33606868
0.19000001 329448.49649751 11326.43984474
0.19100001 324519.94694834 14953.87986195
0.19200001 319658.56785936 9254.11597680
0.19300001 314867.86867308 10995.18649362
0.19400001 310143.22835227 9071.68985798
0.19500001 305486.82361328 11675.70695024
0.19600001 300896.18358624 12448.07570321
0.19700001 296373.99690547 12323.23137370
0.19800001 291916.31553719 8713.70243058
0.19900001 287524.39090316 12076.02498865
0.20000001 283195.72501590 10246.02181531
0.20100001 278932.99956795 10142.00434363
0.20200001 274732.34028236 9202.16017268
0.20300001 270595.27916050 9936.25912041
0.20400001 266520.67035211 9834.61320083
0.20500001 262507.21379364 8922.62061859
0.20600001 258554.70171817 12042.18580173
0.20700001 254662.84598379 10329.12552135
0.20800001 250830.26091202 8649.88195643
0.20900001 247059.19529916 9338.83802377
0.21000001 243343.63606420 12322.92231282
0.21100001 239687.46394834 10670.88639943
0.21200001 236087.05330942 8297.27988081
0.21300001 232543.35508755 9704.03466657
0.21400001 229055.72110401 7387.04735484
0.21500001 225624.21770166 7310.22499914
0.21600001 222245.38979512 7957.49655783
0.21700001 218920.98055680 7158.71640267
0.21800001 215649.71131781 7792.50268690
0.21900001 212429.65250832 7010.17886423
0.22000001 209260.88885336 9018.09843153
0.22100001 206144.57420038 7551.07611000
0.22200001 203078.10190170 8151.55539578
0.22300001 200060.43756814 8066.43722417
0.22400001 197090.82604629 7316.99726296
0.22500001 194171.77821416 6582.42359273
0.22600001 191297.80293300 7165.05954768
0.22700001 188471.83121618 7734.88431889
0.22800001 185690.82631825 7654.17622280
0.22900001 182955.01830732 6311.94843010
0.23000001 180264.16068202 7495.38415563
0.23100001 177618.31937900 10507.90027141
0.23200001 175013.89681934 7951.75677805
0.23300001 172453.15297139 7263.72714669
0.23400001 169932.98923887 6589.15196937
0.23500001 167454.09640804 7113.45035185
0.23600001 165016.06569623 7039.58569555
0.23700001 162617.62871974 8708.17442982
0.23800001 160257.95485133 8617.87192974
0.23900001 157937.16838661 6254.31216394
0.24000001 155653.52013974 9003.00003073
0.24100001 153407.96968315 10023.67721323
0.24200001 151198.95998147 5511.20235202
0.24300001 149025.01333264 7636.04204437
0.24400001 146886.41190466 5937.88348213
0.24500001 144781.80735933 5342.44894428
0.24600001 142711.51777447 5287.46198367
0.24700001 140675.26912423 6803.05633667
0.24800001 138671.23951594 5697.30814503
0.24900001 136698.13362097 7689.27037994
0.25000001 134757.83744789 5073.63281994
0.25100001 132847.63017544 8536.78911894
0.25200001 130969.73847260 4970.30181018
0.25300001 129119.82468410 8363.09144045
0.25400001 127300.14859496 5843.07709695
0.25500001 125507.48868493 4819.48779352
0.25600001 123744.57800908 7632.56593272
0.25700001 122008.15338858 4721.71575954
0.25800001 120298.83545250 6075.69297199
0.25900001 118617.04234123 5551.27784423
0.26000001 116960.27840702 4578.99511629
0.26100001 115328.70523885 5438.90199641
0.26200001 113723.19956236 5832.29456552
0.26300001 112141.00929562 6661.17626735
0.26400001 110583.58736031 4395.69780557
0.26500001 109049.78551920 6961.73863697
0.26600001 107538.56003975 5598.99539341
0.26700001 106050.37010741 6821.16012809
0.26800001 104584.76143932 6329.99298566
0.26900001 103139.94042263 5430.31812022
0.27000001 101717.08271458 4961.75952962
0.27100001 100314.93692152 4092.84962008
0.27200001 98934.01200988  7697.56116870
0.27300001 97573.02169873  4812.30165792
0.27400001 96230.12779670  7938.98591894
0.27500001 94909.03126214  4322.15748823
0.27600001 93604.64495230  6611.76440911
0.27700001 92320.75008713  4619.73055300
0.27800001 91053.84968323  4953.78492646
0.27900001 89805.45448265  3771.82926678
0.28000001 88574.20517067  5600.10438696
0.28100001 87360.35123865  4064.87733552
0.28200001 86163.92300873  5120.72218677
0.28300001 84984.04035115  4344.38434837
0.28400001 83819.77925588  3583.29573279
0.28500001 82672.26999074  6029.28893580
0.28600001 81540.23183605  3510.30714669
0.28700001 80424.27087774  4169.19439964
0.28800001 79322.06957232  4126.33425446
0.28900001 78236.69545540  4424.28533742
0.29000001 77164.88227487  3705.07199780
0.29100001 76108.33779827  3666.89988869
0.29200001 75065.52413571  4288.86892451
0.29300001 74037.01866908  3265.03267786
0.29400001 73021.63379628  4846.81117266
0.29500001 72021.09300986  3517.51034911
0.29600001 71032.60910958  4113.85375132
0.29700001 70057.91258620  5010.54214535
0.29800001 69096.37546457  4028.66436217
0.29900001 68147.99371542  4293.32380731
0.30000001 67211.05199877  3338.03705554
0.30100001 66287.74819000  3603.40216219
0.30200001 65375.68571453  3862.72257331
0.30300001 64476.67977189  3234.15041047
0.30400001 63589.36874857  3491.05650957
0.30500001 62714.30147500  4317.87986097
0.30600001 61849.66392392  4272.26573781
0.30700001 60997.57210783  3381.70555776
0.30800001 60156.62346338  3067.08559249
0.30900001 59327.14337358  3310.45475698
0.31000001 58509.10621235  3002.39492743
0.31100001 57701.22202959  4860.75117391
0.31200001 56905.28196546  3206.04373773
0.31300001 56119.32380893  3964.83041482
0.31400001 55345.64859512  3138.09842392
0.31500001 54580.89387534  3363.27483984
0.31600002 53828.31904843  3327.39769952
0.31700002 53085.36661086  3291.82373940
0.31800002 52352.54812256  3507.09736479
0.31900002 51630.79481213  2973.93392199
0.32000002 50919.44378610  3677.65700159
0.32100002 50217.62049099  2425.51118456
0.32200002 49526.96357874  2879.49779881
0.32300002 48844.80131502  3323.40043884
0.32400002 48173.98807001  2818.17843554
0.32500002 47512.30174503  2323.35166535
0.32600002 46860.72863009  3217.92638740
0.32700002 46219.21985472  2273.98572453
0.32800002 45588.30119295  2474.76104745
0.32900002 44965.08976581  2225.77204881
0.33000002 44353.01772088  2422.34017753
0.33100002 43749.36812523  2396.59049939
0.33200002 43156.98892139  2155.69169871
0.33300002 42573.15608826  2346.20674313
0.33400002 41999.33756220  2532.56017493
0.33500002 41434.80529645  2297.14571442
0.33600002 40879.38222225  2893.03401687
0.33700002 40333.13414316  2658.35699727
0.33800002 39797.08780796  2428.41841305
0.33900002 39269.69095481  2403.30520025
0.34000002 38751.45128690  2378.56419263
0.34100002 38242.91038445  2354.23367476
0.34200002 37744.06086671  2912.89803534
0.34300002 37253.50321450  2883.42128536
0.34400002 36772.82720330  2093.29328769
0.34500002 36301.04733003  2072.42689022
0.34600002 35838.97116911  2238.50224524
0.34700002 35384.48607143  2031.77728645
0.34800002 34940.26050926  3475.33317615
0.34900002 34504.30270535  1811.47597783
0.35000002 34077.82708803  2332.45698551
0.35100002 33660.81374159  1955.02015471
0.35200002 33251.06008329  1760.64371480
0.35300002 32851.54021741  1918.85855498
0.35400002 32460.09485989  2419.90018642
0.35500002 32077.77133818  2055.54368471
0.35600002 31703.96209313  2546.62087575
0.35700002 31338.58151654  1851.17009786
0.35800002 30982.45054270  2669.44806520
0.35900002 30635.20861723  1819.73147806
0.36000002 30296.30616988  2296.76307953
0.36100002 29965.29640574  1789.82723909
0.36200002 29644.33258776  1775.54738445
0.36300002 29330.25812353  2081.86182022
0.36400002 29025.25599188  2224.78597716
0.36500002 28727.87372825  1892.59241086
0.36600002 28439.58935814  2035.27930882
0.36700002 28159.02099024  1709.81583552
0.36800002 27887.37728363  1697.92304634
0.36900002 27623.61666013  2146.35511616
0.37000002 27367.26700327  1979.88502514
0.37100002 27119.05383408  1664.56760319
0.37200002 26879.55012835  2255.86635138
0.37300002 26647.43027393  2092.88927286
0.37400002 26423.04598729  1634.92604791
0.37500002 26206.62307347  1625.85897250
0.37600002 25998.17259932  1911.25574918
0.37700002 25797.08415341  1755.23368895
0.37800002 25603.43608026  1746.66649214
0.37900002 25418.13318870  1593.71702643
0.38000002 25239.47595754  2307.89779089
0.38100002 25067.50978426  1580.00521655
0.38200002 24903.96395077  1859.95263578
0.38300002 24747.00035660  1567.97001687
0.38400002 24597.41286012  1562.55072596
0.38500002 24454.22424175  1557.48961574
0.38600002 24319.00298077  2258.74910386
0.38700002 24189.74361907  1970.98040346
0.38800002 24067.17055589  1685.18336216
0.38900002 23951.29692488  2241.84149838
0.39000002 23842.73663636  1957.72719796
0.39100002 23739.66534554  1675.07086614
0.39200002 23643.90155460  1951.33128775
0.39300002 23553.60112337  1531.21968157
0.39400002 23470.81620955  1807.83970419
0.39500002 23392.70856533  1389.52695461
0.39600002 23320.98969383  2083.14750310
0.39700002 23254.60463960  1388.29996276
0.39800002 23195.16495779  1527.05375735
0.39900002 23140.30533976  1943.78574063
0.40000002 23091.48717855  1527.84832156
0.40100002 23047.62110601  1945.68026595
0.40200002 23009.72600986  1808.21940416
0.40300002 22976.79872276  1531.63347543
0.40400002 22949.06545563  1533.57137173
0.40500002 22925.88809970  1675.42398171
0.40600002 22908.46016177  2517.41080645
0.40700002 22895.35341583  1541.31526498
0.40800002 22886.61462520  1544.50326116
0.40900002 22882.35785704  1829.44459735
0.41000002 22883.11567286  1410.74414808
0.41100002 22887.96621605  1697.37165501
0.41200002 22896.00608625  1702.08917310
0.41300002 22909.70233356  1991.76961525
0.41400002 22926.35821266  1427.16586636
0.41500002 22946.95600853  1718.26814734
0.41600002 22970.28476968  2011.50793259
0.41700002 22998.73951598  2307.23365757
0.41800002 23030.99766845  1736.99792646
0.41900002 23064.67126188  2034.30410169
0.42000002 23102.23293084  1458.90607871
0.42100002 23143.81910611  2051.00534637
0.42200002 23187.72118096  1471.26097865
0.42300002 23234.27386253  2364.31982029
0.42400002 23283.45174806  1632.75213120
0.42500002 23335.83362891  1938.50779141
0.42600002 23389.48109829  2097.33486947
0.42700002 23446.53692166  1655.79451587
0.42800002 23505.25138317  1815.07559782
0.42900002 23567.02309166  1976.09497988
0.43000002 23630.43531137  2291.56157291
0.43100002 23694.38315007  1842.47532106
0.43200002 23761.31953903  1697.62755491
0.43300002 23829.21669195  1706.41028817
0.43400002 23899.22441254  2183.19425354
0.43500002 23970.03205063  1567.64017040
0.43600002 24042.81763367  2521.61083292
0.43700002 24116.02441712  1901.30745515
0.43800002 24189.95741178  1752.19964816
0.43900002 24265.85542523  1601.54653396
0.44000002 24341.81820721  1932.25362086
0.44100002 24418.83264964  2590.34989023
0.44200002 24496.35923717  2116.11809299
0.44300002 24574.42205500  2127.65356235
0.44400002 24652.72182039  1645.56925950
0.44500002 24730.89779144  2316.29599692
0.44600002 24809.05812222  2162.48165371
0.44700002 24888.46178856  1839.75518260
0.44800002 24966.48326781  1681.49272778
0.44900002 25045.15248901  1859.60266044
0.45000002 25123.95173351  1699.63541532
0.45100002 25201.38692761  1708.65411467
0.45200002 25278.86594263  2061.23882665
0.45300002 25355.32894186  2244.70737761
0.45400002 25431.52030979  2082.84161208
0.45500002 25507.28912917  2791.51785460
0.45600002 25581.68590268  2805.79944278
0.45700002 25655.63110428  2291.30452252
0.45800002 25728.11964591  2302.79545805
0.45900002 25799.56294843  2314.22090616
0.46000002 25870.23181759  2325.60459946
0.46100002 25938.97870927  3055.87122657
0.46200002 26006.91247151  1986.79817243
0.46300002 26073.58653895  2359.13822186
0.46400002 26138.10060222  2734.69890512
0.46500002 26202.22097751  2747.30299970
0.46600002 26263.59399146  2759.64726945
0.46700002 26323.40275248  2032.69325689
0.46800002 26382.29308057  2783.99160928
0.46900002 26438.47707953  2609.47781143
0.47000002 26492.96673003  2058.90100701
0.47100002 26545.81876376  2255.33286907
0.47200002 26596.78661835  2830.56315002
0.47300002 26645.66584717  2083.95762468
0.47400002 26691.74842847  2472.32331537
0.47500002 26736.20906085  2099.86195917
0.47600002 26779.13173596  2490.86105648
0.47700002 26818.74938742  2884.35663333
