# SAXS profile: number of points = 501, q_min = 0, q_max = 0.5, delta_q = 0.001
#    q    intensity    error
0.00000000 1700912.83420644 357.19169518
0.00100000 1700829.68040649 561.27380786
0.00200000 1700580.16348315 841.78720758
0.00300000 1700164.50793684 1938.18760809
0.00400000 1699582.57679978 1912.03047155
0.00500000 1698834.90882701 1681.84662631
0.00600000 1697921.37868031 2495.94452828
0.00700000 1696842.55746644 2239.83226894
0.00800000 1695598.29824447 2517.96357920
0.00900000 1694189.84248065 2795.41335959
0.01000000 1692616.50490656 3909.94429516
0.01100000 1690879.67164842 4565.37531222
0.01200000 1688979.22080272 3622.86058746
0.01300000 1686916.33772181 3542.52446546
0.01400000 1684691.03580196 3790.55499859
0.01500000 1682304.73218796 6460.05045926
0.01600000 1679756.88827149 4283.38025657
0.01700000 1677049.71531440 5433.64132136
0.01800000 1674183.19002564 6202.84899816
0.01900000 1671158.12752179 7018.86445230
0.02000000 1667975.49090166 7881.18455102
0.02100000 1664637.44350574 7690.62533768
0.02200000 1661142.59241170 7450.22486545
0.02300000 1657494.00056627 8353.77014310
0.02400000 1653691.49222939 10542.28374366
0.02500000 1649737.43092634 9650.96441168
0.02600000 1645631.79850390 11330.17545092
0.02700000 1641376.98174673 6893.78363908
0.02800000 1636972.48214731 9257.07981107
0.02900000 1632421.31403735 7345.89625045
0.03000000 1627724.40176527 11353.37822417
0.03100000 1622882.44400057 8568.81969860
0.03200000 1617896.79678856 9610.30741556
0.03300000 1612771.25863501 9047.64717804
0.03400000 1607503.84200624 11815.15378390
0.03500000 1602098.11666740 10381.59627541
0.03600000 1596555.19459157 9746.96991343
0.03700000 1590876.89241349 9974.79857674
0.03800000 1585064.85803638 10199.89283351
0.03900000 1579121.10588031 11369.67248887
0.04000000 1573045.37386920 12576.49834687
0.04100000 1566842.05048900 13819.54752608
0.04200000 1560511.69892359 12078.36111002
0.04300000 1554055.29496630 14359.47159203
0.04400000 1547476.57363369 13579.10756428
0.04500000 1540776.68792991 13820.76753291
0.04600000 1533955.83100320 12977.26693356
0.04700000 1527018.16977308 14292.89073381
0.04800000 1519964.28960652 12288.91185325
0.04900000 1512798.03126705 11345.98576263
0.05000000 1505518.92131455 14972.38636968
0.05100000 1498131.50060122 16359.59674866
0.05200000 1490634.06812250 13035.59553321
0.05300000 1483032.98076762 14415.08124506
0.05400000 1475327.87813045 14605.74667461
0.05500000 1467521.58997530 19723.49108935
0.05600000 1459615.22590532 14975.65291661
0.05700000 1451613.97951839 15154.85065358
0.05800000 1443516.43670658 16607.65737976
0.05900000 1435325.72052337 15501.51850566
0.06000000 1427045.36243223 18280.45194680
0.06100000 1418676.71838643 15832.43291706
0.06200000 1410222.50250497 19989.90490741
0.06300000 1401685.03303622 13456.17694630
0.06400000 1393063.85889661 13582.37325944
0.06500000 1384365.20748623 15075.73781473
0.06600000 1375589.40264929 17972.07638650
0.06700000 1366738.75122883 19517.03028092
0.06800000 1357815.79102340 15458.73350441
0.06900000 1348823.53965996 19827.70696131
0.07000000 1339762.90212150 21402.71336365
0.07100000 1330636.85323966 18682.14229451
0.07200000 1321447.55297141 18810.80679777
0.07300000 1312198.55864305 23304.64749345
0.07400000 1302891.27949031 14657.52758118
0.07500000 1293527.94405260 16220.84117873
0.07600000 1284109.21736960 20764.04701830
0.07700000 1274641.21840823 22369.95443196
0.07800000 1265123.63393855 17990.05891827
0.07900000 1255558.61930306 16573.37455215
0.08000000 1245950.70201619 24221.28278344
0.08100000 1236300.54818538 16727.14720176
0.08200000 1226609.92864277 16798.42376103
0.08300000 1216882.44723351 19932.53542116
0.08400000 1207119.87222066 16929.85700256
0.08500000 1197324.31513444 18534.58126839
0.08600000 1187498.40242746 18596.22585513
0.08700000 1177645.27361881 17099.41017589
0.08800000 1167764.74666257 24943.45616015
0.08900000 1157862.18811389 18757.36832847
0.09000000 1147937.20052705 20370.14658025
0.09100000 1137993.37665119 23556.46400339
0.09200000 1128032.07088603 20456.86256672
0.09300000 1118058.32892495 17341.08549652
0.09400000 1108069.11527106 17368.98419817
0.09500000 1098070.13027074 20555.87380485
0.09600000 1088062.73534379 15831.31354345
0.09700000 1078051.49603745 19016.82928413
0.09800000 1068035.73973188 19032.39777688
0.09900000 1058018.60790969 15870.27986491
0.10000000 1048000.97387004 19052.65860095
0.10100000 1037985.12090408 19057.40771610
0.10200000 1027974.37060693 26999.74811396
0.10300000 1017969.66620592 19056.39304780
0.10400000 1007974.26215326 20638.27398852
0.10500000 997990.48807200 15868.04950693
0.10600001 988015.87420032 22200.71773790
0.10700001 978058.49972229 19013.45812933
0.10800001 968115.89101339 17411.56511929
0.10900001 958192.74460633 23715.27154518
0.11000001 948288.70539812 17367.90845687
0.11100001 938406.68466254 20494.80295779
0.11200001 928548.30536367 17312.78396854
0.11300001 918714.99475333 17281.02986491
0.11400001 908909.48083952 25085.90285233
0.11500001 899133.51562625 17209.41629944
0.11600001 889387.47271278 17169.62596926
0.11700001 879675.08981507 15570.24982301
0.11800001 869994.60528965 17082.34487941
0.11900001 860349.79447702 17034.92673302
0.12000001 850741.21095539 18529.14444742
0.12100001 841173.92068135 16932.83182099
0.12200001 831645.36282464 19947.01496708
0.12300001 822159.78391002 18350.60724145
0.12400001 812715.54987625 21333.78418945
0.12500001 803315.88750290 21255.73938491
0.12600001 793963.56638063 19662.50864798
0.12700001 784657.98563373 21091.60764781
0.12800001 775400.47341035 18004.79984114
0.12900001 766193.49179302 26893.39282948
0.13000001 757037.82330646 16363.37332205
0.13100001 747933.46151619 19251.80820691
0.13200001 738883.70953722 17688.87684018
0.13300001 729888.48795299 32275.67045885
0.13400001 720948.52783100 14599.20837687
0.13500001 712066.42271675 18884.00242079
0.13600001 703242.18076229 15896.79024568
0.13700001 694477.21993519 17250.81495662
0.13800001 685770.34663690 17157.97488195
0.13900001 677126.65633863 18485.55858979
0.14000001 668543.49369764 16967.63467025
0.14100001 660024.45105595 16870.22576464
0.14200001 651568.36124361 16771.37040944
0.14300001 643178.13551477 16671.17805888
0.14400001 634849.73402233 23473.57002272
0.14500001 626590.39566316 17839.02940603
0.14600001 618396.96955301 13635.65382190
0.14700001 610272.43605994 17612.46333558
0.14800001 602213.73834959 13459.47768711
0.14900001 594224.60760052 14707.05973200
0.15000001 586304.44844152 21247.67421405
0.15100001 578454.63330585 15826.51951402
0.15200001 570675.92059112 13097.01299558
0.15300001 562968.43955600 16905.94303764
0.15400001 555330.24992789 15493.71470415
0.15500001 547765.52944056 16663.02819196
0.15600001 540271.36756779 15268.06956804
0.15700001 532852.80523072 15154.33449600
0.15800001 525503.83656840 15039.92051245
0.15900001 518230.48329756 13681.28540482
0.16000001 511028.20793181 14809.59816491
0.16100001 503902.07284034 15918.26723244
0.16200001 496849.42847818 12147.96909975
0.16300001 489870.47652894 13255.89572066
0.16400001 482966.70753179 13148.76923330
0.16500001 476136.43321181 11855.79774670
0.16600001 469381.65149049 14109.61310996
0.16700001 462700.25715562 17490.07054627
0.16800001 456093.82479229 19655.36430748
0.16900001 449563.78295279 12610.26470726
0.17000001 443106.70741821 13638.82509835
0.17100001 436725.22622027 14647.76477911
0.17200001 430417.80769229 13403.21116448
0.17300001 424185.38636707 15499.73474982
0.17400001 418027.88485778 12070.55574531
0.17500001 411943.86580362 16312.97785625
0.17600001 405932.91954105 14010.77537968
0.17700001 399998.96361318 17087.95653263
0.17800001 394136.69576288 10582.57078107
0.17900001 388347.85515914 11533.93184302
0.18000001 382634.01085832 12466.21666261
0.18100001 376993.53306303 11321.11633265
0.18200001 371423.52655681 11215.13391416
0.18300001 365927.08454073 14139.42321459
0.18400001 360502.79621071 11004.34837419
0.18500001 355150.72022072 11890.44667472
0.18600001 349870.38729797 12758.02427555
0.18700001 344660.31482015 12635.24773826
0.18800001 339519.62528180 12512.99638095
0.18900001 334452.76281866 15251.04670510
0.19000001 329451.84991448 12270.43472983
0.19100001 324523.05089175 14954.02289167
0.19200001 319661.32599327 12030.45457221
0.19300001 314870.20791222 10078.99583153
0.19400001 310145.13769379 9978.92027684
0.19500001 305488.41467778 11675.76776072
0.19600001 300897.43642168 12448.12753302
0.19700001 296374.88297574 8802.33444036
0.19800001 291916.93644592 9585.09306118
0.19900001 287524.61619124 11213.46056141
0.20000001 283195.53122830 10246.01480408
0.20100001 278932.45972296 10987.15010777
0.20200001 274731.49692878 10038.68937224
0.20300001 270594.12068482 10764.23462961
0.20400001 266519.12489466 13112.74156460
0.20500001 262505.27639198 12978.26147826
0.20600001 258552.42177158 12042.07961322
0.20700001 254660.09552367 8739.93489150
0.20800001 250827.37810711 12581.50188058
0.20900001 247055.87515801 9338.71252243
0.21000001 243339.98018566 9242.05288435
0.21100001 239683.51372951 12195.09775506
0.21200001 236082.68442498 9805.69476115
0.21300001 232538.64696985 11196.73638093
0.21400001 229050.71265577 8125.57441561
0.21500001 225618.84982894 8041.05618807
0.21600001 222239.67168655 8680.68198649
0.21700001 218915.07135657 12169.48939208
0.21800001 215643.34177895 9917.43775732
0.21900001 212422.99035012 9112.94671689
0.22000001 209253.90510779 7630.44401054
0.22100001 206137.31975501 7550.81037965
0.22200001 203070.52045845 11547.60569189
0.22300001 200052.47816533 8066.11630104
0.22400001 197082.64579885 8647.00149331
0.22500001 194163.23880954 10531.41457103
0.22600001 191288.99469817 9118.74680847
0.22700001 188462.77359127 7734.51259394
0.22800001 185681.41630100 7653.78834188
0.22900001 182945.36137028 7573.93831891
0.23000001 180254.17959839 8744.13066584
0.23100001 177608.07912333 6798.83759038
0.23200001 175003.42249581 9174.55485824
0.23300001 172442.38878775 6658.00094598
0.23400001 169921.98416648 6588.72524767
0.23500001 167442.78228016 6520.22225037
0.23600001 165004.58105443 5865.91313393
0.23700001 162605.87096487 6966.03584161
0.23800001 160245.97846435 8617.22789950
0.23900001 157925.00646364 9096.48080256
0.24000001 155641.08099615 6751.71041297
0.24100001 153395.29778332 6125.07453021
0.24200001 151186.16119637 7163.95658716
0.24300001 149011.99717680 9816.91083837
0.24400001 146873.15292961 5397.58862549
0.24500001 144768.41449024 8012.93212108
0.24600001 142697.90181332 6344.34901474
0.24700001 140661.48840666 7325.65066277
0.24800001 138657.34241941 6732.50757967
0.24900001 136683.96520320 8713.60319392
0.25000001 134743.55504592 5580.40459623
0.25100001 132833.24012542 6025.31605714
0.25200001 130955.16579661 6957.64828794
0.25300001 129105.12894637 5410.79621013
0.25400001 127285.38984953 7302.99958813
0.25500001 125492.61725496 5782.70007670
0.25600001 123729.56552999 5246.75247454
0.25700001 121992.95414973 4721.12754897
0.25800001 120283.55646097 6074.92130649
0.25900001 118601.73267963 6013.10813137
0.26000001 116944.80360416 5036.22820550
0.26100001 115313.24968937 5438.17311266
0.26200001 113707.66190042 5382.92096907
0.26300001 112125.33803466 4884.17995590
0.26400001 110567.87889031 5713.59541201
0.26500001 109034.11044134 6090.64569746
0.26600001 107522.75469108 4736.91518206
0.26700001 106034.62561841 5115.11058188
0.26800001 104568.93766327 4641.29251781
0.26900001 103124.11374508 7517.74824777
0.27000001 101701.28195117 5374.40449904
0.27100001 100299.14726389 5729.08756283
0.27200001 98918.24216623  4860.84265008
0.27300001 97557.14156508  4811.51844969
0.27400001 96214.41633299  5159.49832003
0.27500001 94893.17208102  4714.29301209
0.27600001 93588.90443575  5444.06682867
0.27700001 92305.05303186  5003.85716167
0.27800001 91038.25913815  4571.94159030
0.27900001 89789.85915315  5279.64396808
0.28000001 88558.69938197  4106.02429118
0.28100001 87344.96266541  4064.16130517
0.28200001 86148.63075495  5485.51432295
0.28300001 84968.88925336  4705.57730957
0.28400001 83804.68381094  3940.91544274
0.28500001 82657.22140143  4255.19395915
0.28600001 81525.32796124  4211.59864182
0.28700001 80409.54938920  4515.80050744
0.28800001 79307.42245836  3781.77461893
0.28900001 78222.15672606  3742.93037651
0.29000001 77150.54093171  4377.90765239
0.29100001 76094.08972722  4332.79767416
0.29200001 75051.48374140  3958.21543988
0.29300001 74023.22525672  4570.19414368
0.29400001 73007.93875885  3553.66158730
0.29500001 72007.54167483  3197.13500171
0.29600001 71019.30552659  3796.69225318
0.29700001 70044.68926759  3444.09753432
0.29800001 69083.41600234  3098.39135438
0.29900001 68135.26644898  3679.30456242
0.30000001 67198.55667682  4247.62096862
0.30100001 66275.43268105  3902.96041535
0.30200001 65363.61630832  4456.16475278
0.30300001 64464.79076388  4409.39189700
0.30400001 63577.74229988  3199.55003271
0.30500001 62702.92591405  3165.87087928
0.30600001 61838.53978456  3132.43138108
0.30700001 60986.72822792  3381.10437303
0.30800001 60146.01142088  3066.54453748
0.30900001 59316.78611999  3585.69989072
0.31000001 58499.01211017  3274.77485297
0.31100001 57691.42970850  3779.94265346
0.31200001 56895.76790667  2938.38207266
0.31300001 56110.06147528  3171.34082473
0.31400001 55336.67660678  4444.91875889
0.31500001 54572.22785848  3621.41321215
0.31600002 53819.92959839  2559.13777357
0.31700002 53077.33754383  3038.14694486
0.31800002 52344.81730766  3005.63955212
0.31900002 51623.35837478  2973.50558318
0.32000002 50912.23640975  2941.70915904
0.32100002 50210.79688297  3152.73608556
0.32200002 49520.47953396  2879.12081643
0.32300002 48838.62671607  2848.26884495
0.32400002 48168.14702897  2583.01700674
0.32500002 47506.78691886  2555.39018937
0.32600002 46855.58951643  3217.57348445
0.32700002 46214.38172713  2273.74768864
0.32800002 45583.88990421  2249.56507330
0.32900002 44961.00630548  2893.24089276
0.33000002 44349.19415046  2862.51887199
0.33100002 43745.88171897  2396.39951405
0.33200002 43153.84887262  2371.08833859
0.33300002 42570.35835127  2346.05255984
0.33400002 41997.03622264  2532.42140415
0.33500002 41432.78606132  2088.21251638
0.33600002 40877.66505067  2273.00267278
0.33700002 40331.88325960  2249.30923591
0.33800002 39796.10771295  2833.08504225
0.33900002 39269.08713487  2403.26824647
0.34000002 38751.22004577  2378.54999905
0.34100002 38243.02811727  2354.24092239
0.34200002 37744.48784306  2912.93098724
0.34300002 37254.33327883  2691.25316352
0.34400002 36774.03082232  2283.66742222
0.34500002 36302.60041937  3014.56808159
0.34600002 35840.87314961  2611.72455011
0.34700002 35386.78252030  1847.19013504
0.34800002 34942.83528706  2378.03476809
0.34900002 34507.25795957  2536.28358015
0.35000002 34081.17584501  2691.56098984
0.35100002 33664.51931152  3021.72739652
0.35200002 33255.13078137  2113.03110993
0.35300002 32856.02131325  2093.58577724
0.35400002 32464.88135587  2593.13252112
0.35500002 32082.96044459  2227.19921955
0.35600002 31709.39641458  1867.84208427
0.35700002 31344.42794132  2019.83503221
0.35800002 30988.64290829  2336.23389951
0.35900002 30641.77151217  1820.12131403
0.36000002 30303.15950119  1640.91616471
0.36100002 29972.45269288  1790.25468414
0.36200002 29651.88096981  2260.36299339
0.36300002 29338.06684287  2082.41608314
0.36400002 29033.47975324  1589.58309178
0.36500002 28736.34022003  1735.38766809
0.36600002 28448.42679627  1722.69456625
0.36700002 28168.18339123  1710.37217653
0.36800002 27896.86258983  1698.50055924
0.36900002 27633.41412774  1840.38546808
0.37000002 27377.36397850  1675.90541533
0.37100002 27129.43265797  1513.82241402
0.37200002 26890.20253874  1955.85897430
0.37300002 26658.45262970  2243.30889506
0.37400002 26434.27811705  1784.31385743
0.37500002 26218.14674004  1626.57390080
0.37600002 26009.99726064  1912.12503920
0.37700002 25809.26027556  1463.38512695
0.37800002 25615.81554925  1601.88510126
0.37900002 25430.83921733  1884.42527527
0.38000002 25252.40261973  1443.17487808
0.38100002 25080.64326988  2011.96929842
0.38200002 24917.39879604  1860.95601724
0.38300002 24760.62311522  1568.83315490
0.38400002 24611.31360850  1563.43377105
0.38500002 24468.34977338  1558.38927089
0.38600002 24333.37808593  1836.31846425
0.38700002 24204.35223237  1690.43203999
0.38800002 24082.02183426  1826.74185278
0.38900002 23966.36417489  1542.23560772
0.39000002 23857.93256357  1399.26781114
0.39100002 23755.10223028  1676.16009278
0.39200002 23659.53559114  1673.67562701
0.39300002 23569.40879801  1671.54255115
0.39400002 23486.77125718  2087.38689438
0.39500002 23408.92652342  1529.53933151
0.39600002 23337.30625844  1528.71031889
0.39700002 23271.10623913  1389.28510830
0.39800002 23211.84021650  1944.92018389
0.39900002 23157.09536514  1806.25352406
0.40000002 23108.45530046  1945.96311305
0.40100002 23064.69455619  1668.96137716
0.40200002 23026.93977295  1948.77000532
0.40300002 22994.09817891  1532.78665723
0.40400002 22966.52582839  1813.78146323
0.40500002 22943.45287587  1816.43325025
0.40600002 22926.16406391  1399.64238242
0.40700002 22913.07725756  1822.96451299
0.40800002 22904.45945266  1686.22638480
0.40900002 22900.30528687  1690.04261025
0.41000002 22901.09554268  1976.59364994
0.41100002 22906.01531964  1557.15099521
0.41200002 22914.07744463  1561.47988145
0.41300002 22927.83606676  1993.34616209
0.41400002 22944.54926001  1713.95791094
0.41500002 22965.23403415  1862.93987312
0.41600002 22988.57086562  1581.72869336
0.41700002 23017.07610873  1731.80488848
0.41800002 23049.33255139  1883.24580535
0.41900002 23083.02492934  1599.65370340
0.42000002 23120.55996397  1752.07611709
0.42100002 23162.14953175  1612.78054832
0.42200002 23206.04820949  2061.39336013
0.42300002 23252.54486792  1774.63430841
0.42400002 23301.73408303  1485.48561818
0.42500002 23354.13069477  1940.02772874
0.42600002 23407.69561070  1949.04186738
0.42700002 23464.73380873  2560.94116924
0.42800002 23523.30918540  1513.72501781
0.42900002 23585.03044384  1977.60489643
0.43000002 23648.43630671  1528.87147968
0.43100002 23712.31131031  2304.83676858
0.43200002 23779.14004010  2471.12835007
0.43300002 23846.98941884  1707.68299321
0.43400002 23916.92122969  1872.69502103
0.43500002 23987.59150343  2666.94054973
0.43600002 24060.30980277  2523.44541170
0.43700002 24133.39735871  2061.23356609
0.43800002 24207.21286156  1912.85405097
0.43900002 24282.93500941  1762.94116523
0.44000002 24358.83078084  2255.87142552
0.44100002 24435.71245012  2268.12293711
0.44200002 24513.07329238  2117.56193671
0.44300002 24591.05287242  1965.31703870
0.44400002 24669.15683494  1811.33292645
0.44500002 24747.20772331  1821.14710266
0.44600002 24825.20999167  1830.98344971
0.44700002 24904.38967758  2008.29007878
0.44800002 24982.28540356  2692.09120267
0.44900002 25060.76267872  2029.92187318
0.45000002 25139.33873729  2380.94688465
0.45100002 25216.63348545  2393.56296388
0.45200002 25293.90151143  2406.20896482
0.45300002 25370.22044398  1900.48330353
0.45400002 25446.16413027  2257.71101946
0.45500002 25521.74442727  1920.25614172
0.45600002 25595.93763800  2456.44225154
0.45700002 25669.69695966  2292.56074412
0.45800002 25741.92828786  2126.79821594
0.45900002 25813.16788177  1959.21953508
0.46000002 25883.65860077  2505.79710790
0.46100002 25952.15566932  1978.33292043
0.46200002 26019.88355172  2710.62149747
0.46300002 26086.27858174  2360.28659794
0.46400002 26150.56764575  2188.80261569
0.46500002 26214.42282705  2748.58236369
0.46600002 26275.54295803  2208.72224574
0.46700002 26335.13339940  2588.21703316
0.46800002 26393.77529320  2042.48239787
0.46900002 26449.70432512  2051.17466763
0.47000002 26503.94770364  1872.50399401
0.47100002 26556.52446863  2256.24242579
0.47200002 26607.26875096  2265.34296883
0.47300002 26655.87979225  2653.32640028
0.47400002 26701.65723667  3043.98906926
0.47500002 26745.83790100  3246.40995830
0.47600002 26788.54280893  2491.73642748
0.47700002 26827.82868288  2308.26648928
