# SAXS profile: number of points = 501, q_min = 0, q_max = 0.5, delta_q = 0.001
#    q    intensity    error
0.00000000 1719190.39626458 361.02998322
0.00100000 1719106.78465729 773.59807147
0.00200000 1718855.89655103 850.83369573
0.00300000 1718437.96110894 1134.16909473
0.00400000 1717852.81851088 1674.90656169
0.00500000 1717101.03434701 1699.93009129
0.00600000 1716182.47098328 2162.39000147
0.00700000 1715097.73186787 2058.11736378
0.00800000 1713846.59955401 2776.43160850
0.00900000 1712430.39230563 3339.23940774
0.01000000 1710848.36831476 3387.47991553
0.01100000 1709101.96596636 4922.21387629
0.01200000 1707191.03735335 3994.82720256
0.01300000 1705116.74772421 4296.89439378
0.01400000 1702879.15672788 4597.77392699
0.01500000 1700479.62833538 5305.49667665
0.01600000 1697917.68328576 9525.31862905
0.01700000 1695195.52387001 5492.43374372
0.01800000 1692313.07104922 5787.71096342
0.01900000 1689271.25146601 7094.93957630
0.02000000 1686070.94148023 5842.23607651
0.02100000 1682714.32861802 6663.54904344
0.02200000 1679200.03705617 8689.86058657
0.02300000 1675531.05633785 8444.67690833
0.02400000 1671707.29038165 8776.46367469
0.02500000 1667731.18857264 7154.56712573
0.02600000 1663602.58866948 8758.86802996
0.02700000 1659323.86382619 8362.99265672
0.02800000 1654894.62922305 9358.42955743
0.02900000 1650317.92875253 7426.43102037
0.03000000 1645594.55432522 10712.82104107
0.03100000 1640725.26108077 11813.22242335
0.03200000 1635711.51795366 8096.77238679
0.03300000 1630556.93636528 12473.76113824
0.03400000 1625259.67703353 11945.65917737
0.03500000 1619823.18826948 11371.15930675
0.03600000 1614248.78138981 10750.89738090
0.03700000 1608538.07941958 11919.26771974
0.03800000 1602692.80617972 9375.75335006
0.03900000 1596715.03792084 10538.31973831
0.04000000 1590604.41321488 11738.66111348
0.04100000 1584365.48421815 10979.65331472
0.04200000 1577998.68747088 17302.75641084
0.04300000 1571504.95254217 11409.12648504
0.04400000 1564888.13445482 12675.59447776
0.04500000 1558149.35793497 10751.23106931
0.04600000 1551288.79200988 13123.90379049
0.04700000 1544310.76609432 13342.84563960
0.04800000 1537215.59483900 15817.94920687
0.04900000 1530007.31757709 14917.57204075
0.05000000 1522685.44072413 13978.25299676
0.05100000 1515254.52740123 13000.88445074
0.05200000 1507712.79029044 11986.31724139
0.05300000 1500066.60451243 18225.81009447
0.05400000 1492315.69314164 16005.08655532
0.05500000 1484462.87301455 13716.43758652
0.05600000 1476509.36679515 16411.40237775
0.05700000 1468460.09226070 16608.28441872
0.05800000 1460313.68158862 15508.53202260
0.05900000 1452073.64517503 14375.52975865
0.06000000 1443743.15298080 14531.27551364
0.06100000 1435323.74963444 16018.21379447
0.06200000 1426817.99387186 21573.48907576
0.06300000 1418228.16960043 16337.98927768
0.06400000 1409554.15045111 16491.78433154
0.06500000 1400801.94568399 16641.52789318
0.06600000 1391971.95212043 16787.18252802
0.06700000 1383066.47804857 22571.64597808
0.06800000 1374087.97668461 15643.99234684
0.06900000 1365039.52194517 18632.79034692
0.07000000 1355922.06283594 18772.74183906
0.07100000 1346738.52905199 17453.73215401
0.07200000 1337491.05581204 17574.63329669
0.07300000 1328183.51094004 16217.12142844
0.07400000 1318816.92817962 16320.36025106
0.07500000 1309393.73894888 25376.05185027
0.07600000 1299914.50928051 15014.01328606
0.07700000 1290385.47359300 16607.26182383
0.07800000 1280806.27932643 18213.06614615
0.07900000 1271179.07319979 16779.56455326
0.08000000 1261508.38212932 21458.25858665
0.08100000 1251794.99909853 33873.57426489
0.08200000 1242040.58831225 17009.74665512
0.08300000 1232248.66127125 17078.96724677
0.08400000 1222421.19252258 24937.39349799
0.08500000 1212559.98527886 23463.03681662
0.08600000 1202668.24392472 21972.74984816
0.08700000 1192748.91277133 22042.00094306
0.08800000 1182801.43056831 17369.43982363
0.08900000 1172831.33164750 20583.19083720
0.09000000 1162838.48876818 17460.02072905
0.09100000 1152826.34869808 17499.90479540
0.09200000 1142796.31641116 19130.41123560
0.09300000 1132753.19327984 19166.18493096
0.09400000 1122694.20278575 19198.07176990
0.09500000 1112625.20005551 22430.52508741
0.09600000 1102547.30473052 22458.88965310
0.09700000 1092465.13335933 19271.08585845
0.09800000 1082378.05449946 17680.64635155
0.09900000 1072289.07268616 20909.63790060
0.10000000 1062199.39721790 19310.78594955
0.10100000 1052111.00583666 19316.75897566
0.10200000 1042027.31484194 22539.05188018
0.10300000 1031949.10623440 24147.61022181
0.10400000 1021880.29969867 25751.38476388
0.10500000 1011822.60043709 20914.37413504
0.10600001 1001773.62365650 22509.85438273
0.10700001 991741.76885100 19279.46089371
0.10800001 981724.20851758 16051.19156466
0.10900001 971725.71421545 24050.21255877
0.11000001 961746.18233354 27222.22697229
0.11100001 951788.41701866 19188.05539034
0.11200001 941853.84544676 17560.86577507
0.11300001 931944.37024853 25497.99917047
0.11400001 922062.11223424 15905.57218495
0.11500001 912209.40024746 17459.68874288
0.11600001 902386.12827982 15836.87729709
0.11700001 892596.47955051 15798.95843209
0.11800001 882838.30125454 25213.86307136
0.11900001 873115.64206763 15716.08229747
0.12000001 863429.06272412 23506.85733995
0.12100001 853783.76838655 17186.66806725
0.12200001 844176.58252386 17132.56454946
0.12300001 834612.74576711 20180.93714346
0.12400001 825089.57974144 17017.47338399
0.12500001 815610.98227878 21581.06760801
0.12600001 806179.70796575 18429.26899255
0.12700001 796794.88594618 18358.15503735
0.12800001 787458.02757420 21332.23897236
0.12900001 778171.55192894 16691.78057559
0.13000001 768936.44270783 25686.32307938
0.13100001 759752.13735829 15043.09302879
0.13200001 750622.76300321 17969.90979340
0.13300001 741547.57285694 19376.63899222
0.13400001 732527.56926677 20767.15756779
0.13500001 723565.56843239 20665.03360875
0.13600001 714661.19678971 16154.91711515
0.13700001 705816.01515595 17532.47064319
0.13800001 697028.83237711 15986.35702442
0.13900001 688305.13537658 15899.84937701
0.14000001 679641.52404068 15811.86080250
0.14100001 671042.32245468 17151.84257087
0.14200001 662505.73602376 14210.74870796
0.14300001 654035.42241432 21190.74868574
0.14400001 645626.64875823 16850.85632744
0.14500001 637287.04871199 15352.24572767
0.14600001 629013.37092183 23578.56732131
0.14700001 620808.55141400 15160.14554073
0.14800001 612669.83160320 17801.12279706
0.14900001 604600.47565131 23125.96928476
0.15000001 596599.97464662 14864.28906966
0.15100001 588670.43226515 21474.69838232
0.15200001 580811.66648740 17328.51688733
0.15300001 573024.36423089 22502.66784523
0.15400001 565306.21452194 24972.40320498
0.15500001 557661.81108001 15659.14439413
0.15600001 550087.97115270 18136.40126485
0.15700001 542590.02812927 18003.13798302
0.15800001 535161.64961727 15316.32713496
0.15900001 527808.96440211 15200.89889227
0.16000001 520527.60205470 17599.03905619
0.16100001 513322.38496094 14968.48145204
0.16200001 506190.70661331 16089.27236922
0.16300001 499133.04310049 20873.74484787
0.16400001 492150.74367711 13398.80462916
0.16500001 485242.18918135 18123.79662157
0.16600001 478409.38888844 14380.98690896
0.16700001 471649.84945981 13074.13444432
0.16800001 464965.43085452 12965.56165157
0.16900001 458357.99317854 12856.94231574
0.17000001 451823.72513826 13907.13491645
0.17100001 445364.87965438 16086.58021275
0.17200001 438980.37662748 11391.54131142
0.17300001 432671.35698169 11292.72295052
0.17400001 426437.20296857 15671.56794920
0.17500001 420276.87919478 13314.37216170
0.17600001 414189.87970055 12096.41600796
0.17700001 408180.08401033 15257.77226094
0.17800001 402242.18668490 15120.28451165
0.17900001 396377.91208401 10702.20413177
0.18000001 390589.49449668 14846.30738708
0.18100001 384874.09267565 15760.59483954
0.18200001 379229.51394417 11450.83571446
0.18300001 373659.06836214 11344.28985137
0.18400001 368160.67415344 14303.04286655
0.18500001 362735.09617741 11132.34062760
0.18600001 357381.49538630 13031.91684493
0.18700001 352098.30573299 13900.84176708
0.18800001 346884.88571881 11801.02436971
0.18900001 341745.68728878 9739.75254791
0.19000001 336672.76964061 14468.51295892
0.19100001 331672.23090607 13373.02498201
0.19200001 326739.04899739 11350.91509852
0.19300001 321876.95466400 9366.61982332
0.19400001 317081.22751027 15766.86478299
0.19500001 312354.17285660 10101.53442753
0.19600001 307693.16330100 9092.33340522
0.19700001 303101.09007149 9902.31308059
0.19800001 298573.77965031 10694.91329250
0.19900001 294112.50778915 10588.05078080
0.20000001 289714.96783318 8734.90669299
0.20100001 285383.80381981 9511.84263087
0.20200001 281114.82234613 8559.94674501
0.20300001 276910.15556663 11862.83162517
0.20400001 272768.11197827 10065.14380773
0.20500001 268687.53479532 9962.93426113
0.20600001 264668.52222362 13148.73280558
0.20700001 260710.32130492 8134.16240921
0.20800001 256812.13919798 8856.16703887
0.20900001 252975.61288069 9562.47861892
0.21000001 249195.12827377 9464.43141924
0.21100001 245474.49631642 8586.69828707
0.21200001 241809.74334547 9270.98599815
0.21300001 238202.32279686 8410.92441559
0.21400001 234651.54912223 12108.02050713
0.21500001 231157.03982040 11234.23266640
0.21600001 227715.74776909 11859.43670451
0.21700001 224329.48460342 7335.57449335
0.21800001 220996.62895904 10163.63544637
0.21900001 217715.16179758 8621.52081482
0.22000001 214485.80978907 7821.22542377
0.22100001 211309.17131467 7740.25531124
0.22200001 208183.02466696 9052.83925570
0.22300001 205105.88746573 8959.02558813
0.22400001 202077.29406662 8184.13079670
0.22500001 199099.79393022 10124.22500010
0.22600001 196167.71975143 8015.41340808
0.22700001 193284.27985811 11237.54856236
0.22800001 190446.00342176 8504.36668497
0.22900001 187653.66800686 7121.45703764
0.23000001 184906.59924505 7688.41676021
0.23100001 182205.05629929 8242.95713681
0.23200001 179545.38640087 8785.15617208
0.23300001 176929.88673900 6831.26325007
0.23400001 174355.23961992 7375.22698474
0.23500001 171822.51942268 7299.02097029
0.23600001 169331.15894638 9631.55677641
0.23700001 166879.54892544 6553.36019626
0.23800001 164467.50186607 6485.77624286
0.23900001 162094.78667705 8169.57763494
0.24000001 159759.58879725 6352.84034901
0.24100001 157462.92386335 5715.90440661
0.24200001 155203.34031486 6222.87822428
0.24300001 152979.34023709 7838.66176454
0.24400001 150790.97640529 6095.72550953
0.24500001 148637.13155039 6033.18145503
0.24600001 146518.15362567 5428.49784863
0.24700001 144433.75753984 6447.52324158
0.24800001 142381.98954545 7976.95134165
0.24900001 140361.40080583 6316.26333507
0.25000001 138374.32317050 5730.77286522
0.25100001 136417.75862676 7734.88728007
0.25200001 134494.06558888 5614.45503363
0.25300001 132598.66296343 7578.01394688
0.25400001 130734.16158818 7000.81468426
0.25500001 128896.92060155 6434.53458086
0.25600001 127090.06609891 6369.11896389
0.25700001 125310.05983293 5334.44949948
0.25800001 123557.61675862 5760.25636583
0.25900001 121833.32027043 5226.64968690
0.26000001 120134.33894584 6584.56342917
0.26100001 118461.25145561 6517.73836348
0.26200001 116814.35691688 5990.82457795
0.26300001 115191.43432767 4561.58101522
0.26400001 113593.75944208 4515.35215148
0.26500001 112020.13328875 4469.60352972
0.26600001 110469.49041324 5751.59429053
0.26700001 108942.40839113 6131.27903439
0.26800001 107438.30723371 5202.16308243
0.26900001 105955.48583411 4291.19737935
0.27000001 104495.01222509 6371.58367194
0.27100001 103055.82786303 5045.61357095
0.27200001 101638.26451845 4994.50455479
0.27300001 100240.96534018 5355.87503159
0.27400001 98862.29718279  4485.87694696
0.27500001 97505.80068002  4844.08840703
0.27600001 96166.68174510  5594.01614185
0.27700001 94848.38197385  5141.73103014
0.27800001 93547.45359874  6655.43390127
0.27900001 92265.40167437  4262.66175910
0.28000001 91000.92887481  5369.96506705
0.28100001 89754.32217910  5315.25121101
0.28200001 88525.58978019  4509.49375684
0.28300001 87313.93601039  4463.48862011
0.28400001 86118.11379521  4417.85944680
0.28500001 84939.51570693  3643.90539630
0.28600001 83776.83210201  4688.57063051
0.28700001 82630.74110996  4640.54264038
0.28800001 81498.63432314  4946.15235119
0.28900001 80383.90672122  5245.05016183
0.29000001 79283.08350903  3806.77743488
0.29100001 78197.91941349  4452.58974217
0.29200001 77126.86980027  4067.67130581
0.29300001 76070.61237241  3690.18558086
0.29400001 75027.76406198  3651.97658859
0.29500001 74000.12338790  3285.60563395
0.29600001 72985.05529518  3576.63280405
0.29700001 71983.97823000  4182.98917296
0.29800001 70996.64079364  5413.13913356
0.29900001 70022.72156601  3781.22714356
0.30000001 69060.62841115  3118.08752037
0.30100001 68112.53640963  3394.04784997
0.30200001 67175.99703007  3053.14920955
0.30300001 66252.93869794  3625.36097718
0.30400001 65341.98095533  3288.33534725
0.30500001 64443.57832727  4141.14453936
0.30600001 63555.90068800  3512.09923829
0.30700001 62681.13423835  5212.56337004
0.30800001 61817.94165338  3438.31407754
0.30900001 60966.46762496  3118.43496666
0.31000001 60126.90085501  3646.39607499
0.31100001 59297.62615341  3330.15484244
0.31200001 58480.73839055  4118.50619615
0.31300001 57674.11620981  2988.09610231
0.31400001 56880.14371577  4031.38037673
0.31500001 56095.22045646  3988.37036329
0.31600002 55323.02385243  2893.67089961
0.31700002 54560.77212505  3123.05874431
0.31800002 53808.85572073  2832.22925496
0.31900002 53068.33073735  3056.73599520
0.32000002 52338.55423178  2520.10150559
0.32100002 51618.52674849  3241.12744800
0.32200002 50910.00481161  2959.90781990
0.32300002 50210.31389898  2928.26564524
0.32400002 49522.27326091  2655.63202936
0.32500002 48843.49829600  3104.98133370
0.32600002 48175.13910808  2599.28975366
0.32700002 47517.16999761  2337.84487459
0.32800002 46870.10908412  2313.03999283
0.32900002 46230.97384814  2974.96330800
0.33000002 45603.11153737  3169.87243307
0.33100002 44984.00696926  3136.28511441
0.33200002 44376.49226560  2216.60589363
0.33300002 43777.72044070  3070.56945712
0.33400002 43189.24035116  2821.33725955
0.33500002 42610.19246399  2791.81994245
0.33600002 42040.62699974  2762.69993412
0.33700002 41480.48559601  2733.97893511
0.33800002 40930.58232686  2081.32020989
0.33900002 40389.76269456  2265.86579447
0.34000002 39858.14195800  2446.49286924
0.34100002 39336.70239110  2017.97292823
0.34200002 38824.90982807  3395.82089893
0.34300002 38321.67516632  2175.13838545
0.34400002 37828.53898040  3132.20317592
0.34500002 37344.55211870  2519.63705078
0.34600002 36870.52650455  2111.02209500
0.34700002 36404.12529862  2090.32497365
0.34800002 35948.27603503  2070.08157352
0.34900002 35500.82200296  2609.31054080
0.35000002 35063.12066372  2399.89540749
0.35100002 34635.06329809  2011.60457163
0.35200002 34214.34551469  2355.14458505
0.35300002 33804.15631116  2154.00094217
0.35400002 33402.00222040  1956.52237273
0.35500002 33009.29413296  1938.96602921
0.35600002 32625.22451821  2096.49702684
0.35700002 32249.74481546  2597.71706793
0.35800002 31883.80591114  2575.41454446
0.35900002 31526.75307008  2042.93369571
0.36000002 31178.23069765  2025.96152669
0.36100002 30837.67193379  1674.48566532
0.36200002 30507.54565696  2325.59031559
0.36300002 30184.16432271  1977.66654010
0.36400002 29870.18533264  1962.47126931
0.36500002 29563.86935217  2596.89040690
0.36600002 29266.80880064  1611.13790079
0.36700002 28977.58793859  1759.51922298
0.36800002 28697.36673698  2064.91912137
0.36900002 28425.18236879  1577.59769620
0.37000002 28160.45965463  1880.55558482
0.37100002 27904.06627725  2024.16106364
0.37200002 27656.46590679  1547.37934078
0.37300002 27416.40155338  1999.47826000
0.37400002 27184.08321007  1834.92570360
0.37500002 26959.83149039  2128.74839532
0.37600002 26743.78057056  1512.36086291
0.37700002 26535.21392782  1805.45604118
0.37800002 26333.95812773  2245.62838572
0.37900002 26141.37451354  1639.06425965
0.38000002 25955.28335272  2076.68231943
0.38100002 25776.07066860  1476.96891928
0.38200002 25605.41422619  1912.34045208
0.38300002 25441.46231764  2051.59961849
0.38400002 25284.89709880  1752.24345196
0.38500002 25134.77287969  1891.89444428
0.38600002 24992.73501573  1740.99400367
0.38700002 24856.71137475  1880.65887171
0.38800002 24727.37794945  1731.41108605
0.38900002 24604.82382610  2159.07339303
0.39000002 24489.68898246  1723.58439224
0.39100002 24380.03573920  1720.25540326
0.39200002 24277.92688852  1574.30224367
0.39300002 24181.19517419  1572.01957275
0.39400002 24092.06091287  1570.20014439
0.39500002 24007.60842136  2139.07801169
0.39600002 23929.62200356  1710.01086939
0.39700002 23857.03630979  1566.69164869
0.39800002 23791.45775038  1993.48633935
0.39900002 23730.42304032  1566.20799487
0.40000002 23675.56335287  1993.71928441
0.40100002 23625.58182199  1567.08491650
0.40200002 23581.65698553  1568.06235555
0.40300002 23542.72861178  2425.37201650
0.40400002 23509.13636436  1999.45214252
0.40500002 23480.04340693  1429.93471123
0.40600002 23456.69178182  1432.03110113
0.40700002 23437.75339261  2008.14680583
0.40800002 23423.18069194  1580.71342389
0.40900002 23413.21284969  1439.91265848
0.41000002 23408.09702166  1731.73109972
0.41100002 23407.26430217  1735.88280290
0.41200002 23409.45988060  1595.23771915
0.41300002 23417.50354662  1599.64974307
0.41400002 23428.40676976  1604.26022957
0.41500002 23443.32836569  1755.43651120
0.41600002 23460.91526581  1467.48031941
0.41700002 23483.77936692  1766.91964329
0.41800002 23510.40341071  1625.39181682
0.41900002 23538.42085669  1482.92058424
0.42000002 23570.29018131  2083.84945367
0.42100002 23606.39954112  1793.14219411
0.42200002 23644.57842633  1950.32314391
0.42300002 23685.54198036  2108.96075787
0.42400002 23729.14111737  1966.55266329
0.42500002 23776.00312135  2278.93000717
0.42600002 23824.07980411  1983.71209889
0.42700002 23875.47780037  1839.36689690
0.42800002 23928.53096925  2001.74135309
0.42900002 23984.81746710  2011.12703992
0.43000002 24042.72320722  1709.79834190
0.43100002 24101.11596927  1561.75238882
0.43200002 24162.40272523  1569.34813137
0.43300002 24224.83581346  2050.14795205
0.43400002 24289.22173403  2060.33333122
0.43500002 24354.52435398  1911.34316188
0.43600002 24421.69935286  2241.17945582
0.43700002 24489.33110560  1769.84404287
0.43800002 24557.75349656  1778.84095882
0.43900002 24628.02482416  1787.99468697
0.44000002 24698.42867588  2614.08181494
0.44100002 24769.86924129  2299.13937193
0.44200002 24841.81049031  1815.81222384
0.44300002 24914.28977115  1825.22095513
0.44400002 24987.00326809  1834.67080191
0.44500002 25059.62521099  2179.43570789
0.44600002 25132.17020825  2527.66813848
0.44700002 25206.01156477  2032.61286891
0.44800002 25278.38206429  1872.74902399
0.44900002 25351.45611432  1882.34570570
0.45000002 25424.66140134  2407.96979544
0.45100002 25496.59206109  1901.53592603
0.45200002 25568.48664982  1737.37875019
0.45300002 25639.33697371  2444.45450292
0.45400002 25709.93304741  1754.70301365
0.45500002 25780.11073661  2116.03158955
0.45600002 25848.91313604  1949.13738740
0.45700002 25917.29407118  2492.72546191
0.45800002 25984.11306175  2146.80752291
0.45900002 26049.96631791  1797.44776112
0.46000002 26115.04834025  2167.02681398
0.46100002 26178.12118775  1814.14388429
0.46200002 26240.43811337  2369.11806735
0.46300002 26301.56798325  2196.70706207
0.46400002 26360.47657009  2390.23632628
0.46500002 26419.00197863  2031.35715841
0.46600002 26474.77980628  2225.47009599
0.46700002 26528.97727264  1862.33429281
0.46800002 26582.34929250  2057.07519750
0.46900002 26632.88177626  1877.61825422
0.47000002 26681.81062325  1885.07000988
0.47100002 26729.11484915  2270.90570522
0.47200002 26774.49610201  2089.61564732
0.47300002 26817.89224391  1906.75222892
0.47400002 26858.39946217  2296.39326286
0.47500002 26897.27876677  2112.51237447
0.47600002 26934.69394234  2312.61293150
0.47700002 26968.78563204  1933.66202147
