# SAXS profile: number of points = 501, q_min = 0, q_max = 0.5, delta_q = 0.001
#    q    intensity    error
0.00000000 1719190.39626458 309.45427133
0.00100000 1719106.78973455 722.02486884
0.00200000 1718855.92109551 773.48518899
0.00300000 1718438.01127181 1031.06284349
0.00400000 1717852.90245714 1417.22869838
0.00500000 1717101.17734089 1545.39112078
0.00600000 1716182.67989307 1982.19107598
0.00700000 1715097.99298021 2263.92944482
0.00800000 1713846.95254488 2776.43218034
0.00900000 1712430.84003398 3596.10491780
0.01000000 1710848.91763306 3105.19091958
0.01100000 1709102.63738014 4306.93883372
0.01200000 1707191.80575541 4660.63383405
0.01300000 1705117.67703628 3580.74727970
0.01400000 1702880.22638332 3831.48067922
0.01500000 1700480.87894272 6529.84686591
0.01600000 1697919.07678333 6927.51014296
0.01700000 1695197.09089607 5950.14205596
0.01800000 1692314.85384320 5787.71706058
0.01900000 1689273.20932056 6081.38382796
0.02000000 1686073.10004271 6904.46965700
0.02100000 1682716.70707042 6108.26192360
0.02200000 1679202.63217732 6372.57427863
0.02300000 1675533.94660887 9651.07597177
0.02400000 1671710.45469325 8776.48028733
0.02500000 1667734.59800819 10406.66436685
0.02600000 1663606.25614124 8758.88733920
0.02700000 1659327.79962606 6969.17707763
0.02800000 1654898.85823569 10078.33450884
0.02900000 1650322.48647357 7426.45153011
0.03000000 1645599.41028491 11478.05641433
0.03100000 1640730.39817687 8663.05690099
0.03200000 1635717.02518326 8906.47961234
0.03300000 1630562.81480476 13305.39318219
0.03400000 1625265.88381354 12798.96942558
0.03500000 1619829.80503783 8747.08135113
0.03600000 1614255.66502268 12542.76709687
0.03700000 1608545.42511204 11002.45121660
0.03800000 1602700.55316945 9375.79866995
0.03900000 1596723.17157841 10538.37342045
0.04000000 1590612.99082822 10760.49738158
0.04100000 1584374.43289678 18964.96284111
0.04200000 1578008.02366109 11195.96744729
0.04300000 1571514.84231214 15557.99766106
0.04400000 1564898.40621476 14788.29062553
0.04500000 1558160.10436013 12901.56626357
0.04600000 1551299.94876631 10936.66514721
0.04700000 1544322.44866659 16678.68322129
0.04800000 1537227.67732587 16947.93593107
0.04900000 1530019.96721455 18360.24046120
0.05000000 1522698.55422834 13978.37337873
0.05100000 1515268.18629206 14182.91088439
0.05200000 1507726.91200871 15582.35836177
0.05300000 1500081.33100609 17010.92308662
0.05400000 1492330.94697403 17236.42324135
0.05500000 1484478.63925755 14963.54538175
0.05600000 1476525.67328908 12624.29509572
0.05700000 1468476.85192663 15330.89904974
0.05800000 1460331.13724909 23263.07610259
0.05900000 1452091.53970359 18296.35425481
0.06000000 1443761.68006761 15852.50398775
0.06100000 1435342.90059702 30701.98607852
0.06200000 1426837.70851038 14831.97867326
0.06300000 1418248.42943315 17699.74122688
0.06400000 1409575.08386686 16492.02925252
0.06500000 1400823.52813059 19415.41500810
0.06600000 1391994.01233036 16787.44857416
0.06700000 1383089.22764246 15518.26186039
0.06800000 1374111.36131357 15644.25858085
0.06900000 1365063.60915519 15766.48542391
0.07000000 1355946.71582557 20217.16647970
0.07100000 1346763.84068169 21817.57524093
0.07200000 1337517.02825625 17574.97457462
0.07300000 1328210.04926497 16217.44546140
0.07400000 1318844.25488638 16320.69841907
0.07500000 1309421.70144790 16420.14890581
0.07600000 1299943.06721410 19518.64606927
0.07700000 1290414.81897012 21136.99572581
0.07800000 1280836.24575426 15177.91022397
0.07900000 1271209.70518457 18305.42061325
0.08000000 1261539.65493731 18393.24903183
0.08100000 1251826.94033901 23096.20813289
0.08200000 1242073.20760505 15463.81216033
0.08300000 1232281.95044981 18632.10396524
0.08400000 1222455.25762648 18703.56631961
0.08500000 1212594.84548959 17206.72166527
0.08600000 1202703.64883651 20403.86836050
0.08700000 1192784.99444914 17319.23893267
0.08800000 1182838.37079134 22107.25018833
0.08900000 1172868.87412993 15833.73054446
0.09000000 1162876.88051432 17460.59718114
0.09100000 1152865.38299868 20682.40594268
0.09200000 1142835.93646533 15942.56206278
0.09300000 1132793.59228890 20764.10752241
0.09400000 1122735.46528198 20798.67547183
0.09500000 1112667.03969313 19226.88734961
0.09600000 1102589.89078687 17646.95203159
0.09700000 1092508.55131688 16059.87645938
0.09800000 1082422.06904599 17681.36532920
0.09900000 1072333.89124493 16085.00912503
0.10000000 1062244.84629487 17702.31119599
0.10100000 1052157.24534245 17707.80727194
0.10200000 1042074.23038242 22540.06666337
0.10300000 1031996.75156849 16099.15008178
0.10400000 1021928.64714817 19314.45233975
0.10500000 1011871.73325415 20915.38971042
0.10600001 1001823.44633996 17687.19377738
0.10700001 991792.11488819 17673.73631899
0.10800001 981775.31704646 19262.43262697
0.10900001 971777.58292766 17637.76396027
0.11000001 961798.69011033 19216.73873293
0.11100001 951841.82354428 19189.13206595
0.11200001 941907.82584158 19158.40607954
0.11300001 931999.06016137 20718.34008282
0.11400001 922117.49004917 23859.79117845
0.11500001 912265.43484956 23810.12897074
0.11600001 902442.81763572 22173.02107347
0.11700001 892653.85437168 17379.97136313
0.11800001 882896.42310888 17335.67208422
0.11900001 873174.48973101 20432.28402210
0.12000001 863488.56788647 21941.24554354
0.12100001 853843.83528330 17187.87721394
0.12200001 844237.33963202 24921.88744004
0.12300001 834674.09096434 20182.42047040
0.12400001 825151.67729433 30943.18935650
0.12500001 815673.66432977 20041.10287693
0.12600001 806243.03656106 24574.28891241
0.12700001 796858.67956181 19889.59357919
0.12800001 787522.68179739 19810.13399425
0.12900001 778236.74937712 16693.17906092
0.13000001 769002.04509070 16621.97998811
0.13100001 759818.50347740 22566.61061702
0.13200001 750689.70439005 16473.88633942
0.13300001 741615.27608005 20869.05485272
0.13400001 732595.74570346 23736.10327985
0.13500001 723634.29752452 19190.78247516
0.13600001 714730.32104867 17625.25054810
0.13700001 705885.78839719 18995.38746146
0.13800001 697099.05559036 15987.96759389
0.13900001 688375.90423356 18792.66307180
0.14000001 679712.92079179 17251.11474327
0.14100001 671114.17264927 14294.73255161
0.14200001 662578.17624567 15633.53280588
0.14300001 654108.13769027 18367.35737269
0.14400001 645699.85301062 15448.36971198
0.14500001 637360.78345461 18145.66236092
0.14600001 629087.40731137 16645.65358271
0.14700001 620883.12192793 24810.49072271
0.14800001 612744.73429505 16433.81454912
0.14900001 604675.86001080 13605.20749215
0.15000001 596675.86284943 18920.59250368
0.15100001 588746.60808513 21477.47727636
0.15200001 580888.22957335 17330.80114711
0.15300001 573101.33877770 14562.50570553
0.15400001 565383.39663995 19717.74688832
0.15500001 557739.35107983 15661.32171743
0.15600001 550165.91623680 16843.33032051
0.15700001 542668.17423636 14147.35997005
0.15800001 535239.99142851 19148.21159713
0.15900001 527887.76357352 15203.16830852
0.16000001 520606.60660553 17601.71020018
0.16100001 513401.68733067 16218.36006835
0.16200001 506270.34028268 16091.80352552
0.16300001 499212.90204557 15964.82936108
0.16400001 492230.75431615 15837.52526781
0.16500001 485322.34721739 15709.88512111
0.16600001 478489.69975857 13184.78429934
0.16700001 471730.27694259 21397.68637240
0.16800001 465046.09524867 18862.27051389
0.16900001 458438.65668341 12859.20492716
0.17000001 451904.54231067 16227.89288065
0.17100001 445445.74982627 14940.25115467
0.17200001 439061.24367626 12533.00379258
0.17300001 432752.36313883 14683.28837471
0.17400001 426518.31970859 15674.54898954
0.17500001 420357.93474811 15536.43000204
0.17600001 414270.93831724 17598.23029086
0.17700001 408261.09477152 10900.57174524
0.17800001 402323.29380070 14043.09523340
0.17900001 396458.93367263 12845.27005772
0.18000001 390670.22593577 11667.36684868
0.18100001 384954.93893353 13662.05142810
0.18200001 379310.18406680 11453.27154893
0.18300001 373739.60318462 13409.77759573
0.18400001 368241.07967356 12262.42853242
0.18500001 362815.41426310 12147.06064338
0.18600001 357461.60262241 12032.15811271
0.18700001 352178.19834095 9931.42566242
0.18800001 346964.51751462 11803.73344353
0.18900001 341825.11820492 15587.22612660
0.19000001 336751.85084230 11577.52917898
0.19100001 331751.10663842 15287.09171621
0.19200001 326817.66488062 10407.50902989
0.19300001 321955.29386636 10305.78944364
0.19400001 317159.20128529 9276.90707596
0.19500001 312431.88455955 10104.04762412
0.19600001 307770.33746984 10913.53668241
0.19700001 303177.87578643 17108.32833913
0.19800001 298650.16007095 9806.17846936
0.19900001 294188.53246293 11473.35330828
0.20000001 289790.47006174 13105.77462794
0.20100001 285458.81831005 10379.28312430
0.20200001 281189.38759180 11130.88243391
0.20300001 276984.16877062 12713.57394747
0.20400001 272841.60690831 11745.83173258
0.20500001 268760.56144483 8304.70174118
0.20600001 264740.96902257 9042.22822437
0.20700001 260782.23371392 13018.24972236
0.20800001 256883.29540091 8858.62086065
0.20900001 253046.24907575 10362.24438949
0.21000001 249264.99818924 12622.78010501
0.21100001 245543.66342641 7808.28886608
0.21200001 241878.42307428 8500.81758082
0.21300001 238270.25494459 12237.56087249
0.21400001 234718.74967628 8326.64803842
0.21500001 231223.41103744 9739.13053334
0.21600001 227781.43063228 7414.28591762
0.21700001 224394.35075544 7337.69561663
0.21800001 221060.67378301 10892.76521567
0.21900001 217778.42443573 10061.36368465
0.22000001 214548.26922877 9245.95809959
0.22100001 211370.73825025 8446.37509985
0.22200001 208243.67422222 8358.90147853
0.22300001 205165.76810716 11029.71221499
0.22400001 202136.22831411 8186.51763383
0.22500001 199157.76957886 7426.59357878
0.22600001 196224.82809942 6681.45571274
0.22700001 193340.34107766 7273.46397530
0.22800001 190501.13196163 7198.08561157
0.22900001 187707.84500774 8418.69724673
0.23000001 184959.64980163 7690.62260246
0.23100001 182257.08085727 6342.54671379
0.23200001 179596.39814633 8787.65217690
0.23300001 176979.81444153 9939.18684910
0.23400001 174404.04107042 7377.29128619
0.23500001 171870.28164169 7301.04990945
0.23600001 169377.79687325 7225.65715637
0.23700001 166925.12819244 5959.22735833
0.23800001 164511.82262115 6487.52403192
0.23900001 162137.89641496 7588.05391113
0.24000001 159801.49805715 8087.55419922
0.24100001 157503.75396530 6289.12519332
0.24200001 155242.89875820 6790.32471288
0.24300001 153017.74594328 6720.53971973
0.24400001 150828.15536925 7760.10896083
0.24500001 148673.10301591 6583.24531296
0.24600001 146552.78822343 6515.73727264
0.24700001 144467.17702505 6449.01508747
0.24800001 142414.11134906 5319.16731052
0.24900001 140392.25037422 5264.70963809
0.25000001 138403.85676435 5731.99599907
0.25100001 136445.97729146 6704.95564131
0.25200001 134520.98747623 5615.57888787
0.25300001 132624.22785569 6063.57998443
0.25400001 130758.38049697 5501.65911970
0.25500001 128919.74679674 5940.62221346
0.25600001 127111.49340824 6860.20762382
0.25700001 125330.25140717 7760.44953430
0.25800001 123576.30841220 6721.31573255
0.25900001 121850.62264636 5227.39195886
0.26000001 120150.22369770 4703.88148033
0.26100001 118475.72681042 5121.70591235
0.26200001 116827.43940765 5069.72697298
0.26300001 115203.10620029 7299.26915423
0.26400001 113603.97758546 4967.33415497
0.26500001 112028.92108421 4469.95416277
0.26600001 110476.83475556 4867.05718546
0.26700001 108948.24303434 4817.69153495
0.26800001 107442.75503785 6502.97305639
0.26900001 105958.39035872 4720.44651386
0.27000001 104496.52694364 5097.34082553
0.27100001 103055.83332594 5466.08165828
0.27200001 101636.71053894 5826.83289094
0.27300001 100238.09004723 4943.74283509
0.27400001 98857.88672892  4485.67682261
0.27500001 97499.95795022  5651.09783023
0.27600001 96159.29544239  5194.04458913
0.27700001 94839.47124023  3954.80613789
0.27800001 93537.02802389  4305.97728887
0.27900001 92253.50391010  4649.57681712
0.28000001 90987.57109853  6519.71471563
0.28100001 89739.46983768  4555.17570455
0.28200001 88509.26186058  3757.21834381
0.28300001 87296.05277458  4090.69322663
0.28400001 86098.79609014  4048.79607777
0.28500001 84918.77902408  4371.61895107
0.28600001 83754.62111935  4326.76393182
0.28700001 82607.05089876  5709.79962838
0.28800001 81473.43352379  4591.43556356
0.28900001 80357.27685579  4194.65005042
0.29000001 79255.02988158  4497.32688351
0.29100001 78168.30287805  3423.77182812
0.29200001 77095.86341270  3727.19969312
0.29300001 76038.16726028  3688.61166840
0.29400001 74993.89955005  3982.17625461
0.29500001 73964.82089440  3940.84584380
0.29600001 72948.30961749  3574.83208203
0.29700001 71945.81980435  4502.36961649
0.29800001 70957.06640873  4137.15195281
0.29900001 69981.74468683  4093.93225798
0.30000001 69018.25906177  3116.17454416
0.30100001 68068.87369736  5550.33622404
0.30200001 67130.92003432  3966.43059800
0.30300001 66206.57631596  3019.02002293
0.30400001 65294.21636492  3285.93159413
0.30500001 64394.51526873  3251.27922984
0.30600001 63505.49940891  2924.42838623
0.30700001 62629.41717004  3182.82713127
0.30800001 61764.91923732  3149.08455640
0.30900001 60912.24410704  2832.41948508
0.31000001 60071.36360967  3923.26094309
0.31100001 59240.89803538  2772.47415932
0.31200001 58422.73727553  3291.53717394
0.31300001 57614.87878068  2985.02701096
0.31400001 56819.69559810  2684.73074412
0.31500001 56033.66206613  2921.59527846
0.31600002 55260.26542442  3153.15089441
0.31700002 54496.87072201  3899.25128478
0.31800002 53743.82302661  3085.97046430
0.31900002 53002.12671781  2544.10220292
0.32000002 52271.39964603  3020.24161455
0.32100002 51550.24243742  3236.83987591
0.32200002 50840.61498511  3448.51907773
0.32300002 50139.90748194  2436.79961901
0.32400002 49450.86933850  3133.94899272
0.32500002 48771.07631214  3338.86804243
0.32600002 48101.75358080  2831.26934983
0.32700002 47442.85694482  2567.60753944
0.32800002 46794.77593819  3002.11899247
0.32900002 46154.80573108  2513.12929106
0.33000002 45526.05564955  2486.40564704
0.33100002 44906.12307897  3130.85504933
0.33200002 44297.71275620  2876.47211404
0.33300002 43698.14544245  2627.13262841
0.33400002 43108.82965308  2599.46255118
0.33500002 42529.12695681  2357.81491014
0.33600002 41958.77347134  2757.32092925
0.33700002 41397.86557972  2728.53344957
0.33800002 40847.36248076  2907.92387272
0.33900002 40305.80895886  3288.95416680
0.34000002 39773.67687398  2237.86603530
0.34100002 39251.52888953  2214.96388013
0.34200002 38739.13645612  2192.44153157
0.34300002 38235.37033931  2170.23972324
0.34400002 37741.73147401  2343.76163554
0.34500002 37257.24485082  2513.74642914
0.34600002 36782.71517240  2297.44849848
0.34700002 36315.89174788  3412.24135024
0.34800002 35859.62477054  3003.60231304
0.34900002 35411.80207438  2045.03166665
0.35000002 34973.72895719  2577.91368353
0.35100002 34545.29551647  2553.58836552
0.35200002 34124.31327417  2348.94721548
0.35300002 33713.82616676  1969.22467967
0.35400002 33311.41454091  1951.21619915
0.35500002 32918.55497530  2460.99128652
0.35600002 32534.34494198  1742.21425416
0.35700002 32158.67323729  2244.99708503
0.35800002 31792.55868439  1712.02936624
0.35900002 31435.43482556  1697.51356098
0.36000002 31086.85705206  2188.35940583
0.36100002 30746.34566461  2337.33730813
0.36200002 30416.13562613  2153.00626228
0.36300002 30092.83561402  1807.37579259
0.36400002 29778.83056494  2119.50836585
0.36500002 29472.65555934  2427.07330028
0.36600002 29175.68023844  1606.12127321
0.36700002 28886.60553571  2391.81105165
0.36800002 28606.61168060  1741.71363468
0.36900002 28334.60459342  1729.82769237
0.37000002 28070.20968522  1718.31796728
0.37100002 27814.06282902  2017.63221319
0.37200002 27566.76612907  1850.83276558
0.37300002 27327.02013135  1992.95967259
0.37400002 27095.18882570  2133.74622110
0.37500002 26871.32706281  1818.65150176
0.37600002 26655.61758537  1507.37524586
0.37700002 26447.51597538  2699.23360831
0.37800002 26246.71183147  1939.76332980
0.37900002 26054.65025511  2821.71875630
0.38000002 25869.18409150  1774.10872904
0.38100002 25690.57765454  1766.48420321
0.38200002 25520.54625321  1759.38654204
0.38300002 25357.18373887  1752.68862306
0.38400002 25201.29660624  2037.52492714
0.38500002 25051.91456335  1885.65769852
0.38600002 24910.58349831  1879.87727276
0.38700002 24775.32114613  2018.69326262
0.38800002 24646.79021654  2013.39638817
0.38900002 24525.12311070  1721.66372394
0.39000002 24410.84513088  1574.86574823
0.39100002 24302.08592590  1714.75526417
0.39200002 24200.86751927  2567.95417413
0.39300002 24105.04710871  2136.91252743
0.39400002 24016.88394632  1707.60052948
0.39500002 23933.42993908  1705.97496688
0.39600002 23856.45985458  1420.65225165
0.39700002 23784.92170986  1561.95588269
0.39800002 23720.45086745  1987.53667235
0.39900002 23660.50873391  1419.63059129
0.40000002 23606.77438975  1845.93181087
0.40100002 23557.99465058  1562.60185921
0.40200002 23515.23743170  2132.24425514
0.40300002 23477.53673985  1707.28655261
0.40400002 23445.15889380  1709.15216434
0.40500002 23417.34009171  1853.95090290
0.40600002 23395.28292044  1999.59492595
0.40700002 23377.63324713  2002.99571152
0.40800002 23364.34894194  1576.74316306
0.40900002 23355.70846251  1867.28898005
0.41000002 23352.06746539  1583.62053020
0.41100002 23352.58623589  1731.82787731
0.41200002 23356.26547269  2025.68900043
0.41300002 23365.69662561  1451.00982920
0.41400002 23378.09229454  1600.81494572
0.41500002 23394.47623682  1751.77846362
0.41600002 23413.60044461  1610.97285493
0.41700002 23437.93468825  2645.20543426
0.41800002 23466.17086620  1769.81869059
0.41900002 23495.72768407  2072.32327993
0.42000002 23529.21153561  2080.21769043
0.42100002 23566.88508190  2536.03262383
0.42200002 23606.73349669  1497.84731134
0.42300002 23649.32729263  1804.91674450
0.42400002 23694.54948022  1963.68588122
0.42500002 23743.04319223  1517.18053188
0.42600002 23792.81248907  2590.68051063
0.42700002 23845.92665320  2296.36284552
0.42800002 23900.74398518  1691.81424316
0.42900002 23958.70750171  1545.33670709
0.43000002 24018.40019770  2018.62654027
0.43100002 24078.49640741  2340.42996171
0.43200002 24141.56351869  1567.99462484
0.43300002 24205.73525083  2206.11081530
0.43400002 24271.93798955  1583.74402887
0.43500002 24339.02410891  2069.30392780
0.43600002 24407.99691263  1919.93312813
0.43700002 24477.48462103  1929.80497897
0.43800002 24547.68881018  1616.46538475
0.43900002 24619.80786190  1787.39813548
0.44000002 24692.04040601  1796.71640529
0.44100002 24765.31598573  2627.10484426
0.44200002 24839.14637601  2310.78589687
0.44300002 24913.48514906  1991.08582747
0.44400002 24988.05295294  2168.33839775
0.44500002 25062.55984954  2347.35946675
0.44600002 25136.96275342  2359.60680549
0.44700002 25212.67064456  1863.72070237
0.44800002 25286.90870108  2384.30273442
0.44900002 25361.93546516  2567.89608754
0.45000002 25436.97296803  1892.89243312
0.45100002 25510.75336978  2421.48082462
0.45200002 25584.54708989  2086.16406858
0.45300002 25657.19948305  1747.25536760
0.45400002 25729.70289040  2282.86799714
0.45500002 25801.77598328  2470.77818526
0.45600002 25872.41093206  2305.62000948
0.45700002 25942.65076794  2495.16426912
0.45800002 26011.39729809  2328.15022551
0.45900002 26079.03651281  2159.34432560
0.46000002 26146.00715509  2169.59577656
0.46100002 26210.92751847  1998.05909943
0.46200002 26275.07853414  2372.24557789
0.46300002 26338.06015828  2749.69361085
0.46400002 26398.79889224  2025.44794100
0.46500002 26459.13199405  2774.24012106
0.46600002 26516.74290022  2971.99668512
0.46700002 26572.71103071  2238.48528332
0.46800002 26627.84055801  1873.26867204
0.46900002 26680.13541655  2445.23452682
0.47000002 26730.88215194  2266.24429625
0.47100002 26779.94545004  2085.62225050
0.47200002 26827.06153363  2474.39413783
0.47300002 26872.17022976  2292.73367267
0.47400002 26914.41320952  2492.94764169
0.47500002 26954.99718143  1924.58688997
0.47600002 26994.03448519  2317.70791075
0.47700002 27029.80664993  2325.64467439
