# SAXS profile: number of points = 501, q_min = 0, q_max = 0.5, delta_q = 0.001
#    q    intensity    error
0.00000000 1719190.39626458 309.45427133
0.00100000 1719106.76939685 722.02486029
0.00200000 1718855.83001898 928.18217760
0.00300000 1718437.80632056 1031.06272052
0.00400000 1717852.53798358 1288.38945244
0.00500000 1717100.60846063 2163.54685230
0.00600000 1716181.85357320 2342.58832550
0.00700000 1715096.88213842 2058.11634410
0.00800000 1713845.48255995 2545.06064905
0.00900000 1712428.99732350 3339.23668753
0.01000000 1710846.63309766 3387.47647980
0.01100000 1709099.89414835 3691.65593209
0.01200000 1707188.55786087 3661.91961716
0.01300000 1705113.81704676 5013.03484322
0.01400000 1702875.80155226 5747.20608502
0.01500000 1700475.74454489 4489.25616550
0.01600000 1697913.26756521 6927.48644135
0.01700000 1695190.56777796 5492.41768598
0.01800000 1692307.50351196 6752.30724285
0.01900000 1689265.06745371 5574.57497414
0.02000000 1686064.07931900 6904.43271714
0.02100000 1682706.75848137 6108.22581023
0.02200000 1679191.70349379 6372.53280428
0.02300000 1675522.00317415 7238.25538319
0.02400000 1671697.45347910 7522.63888367
0.02500000 1667720.55011517 9105.75461949
0.02600000 1663591.10795386 6737.54429538
0.02700000 1659311.43668254 9756.75169456
0.02800000 1654881.31556654 9358.35426870
0.02900000 1650303.61949292 8169.00329156
0.03000000 1645579.26801603 12243.11031680
0.03100000 1640709.03600803 7875.40373521
0.03200000 1635694.24477290 10525.69294991
0.03300000 1630538.52820202 9147.32156491
0.03400000 1625240.21849350 10239.01384894
0.03500000 1619802.52976206 9621.62747109
0.03600000 1614226.98673279 12542.54426655
0.03700000 1608515.11093547 10085.39021199
0.03800000 1602668.63421496 12188.29552727
0.03900000 1596689.61182132 9580.13811458
0.04000000 1590577.76429986 10760.25907411
0.04100000 1584337.38969734 15970.12162863
0.04200000 1577969.29083736 12213.48287770
0.04300000 1571474.25190937 11408.90359844
0.04400000 1564856.02169385 17956.72368288
0.04500000 1558115.87100232 13976.30001230
0.04600000 1551253.85692791 18591.77833955
0.04700000 1544274.38285674 12230.65368105
0.04800000 1537177.60262508 14687.73267648
0.04900000 1529967.87667806 19507.09133565
0.05000000 1522644.51721914 12813.05420905
0.05100000 1515212.10747626 13000.52048776
0.05200000 1507668.71973849 11985.96688048
0.05300000 1500020.91593397 14580.20398258
0.05400000 1492268.45416925 17235.70144942
0.05500000 1484413.95736659 17456.70895297
0.05600000 1476458.72592788 13886.09496533
0.05700000 1468407.80136850 16607.69300870
0.05800000 1460259.71157851 14215.62895598
0.05900000 1452017.90614613 14374.97794224
0.06000000 1443685.77861470 18493.61568805
0.06100000 1435264.58594812 17352.34965501
0.06200000 1426756.92175439 14831.13889490
0.06300000 1418165.29732631 19060.14248723
0.06400000 1409489.50801607 20613.78501877
0.06500000 1400735.45896365 16640.73803091
0.06600000 1391903.56990414 13988.63153204
0.06700000 1382996.20634545 18338.53055436
0.06800000 1374015.84601315 34130.55521259
0.06900000 1364965.52510751 15765.35255311
0.07000000 1355846.05265264 15883.73725064
0.07100000 1346660.64079147 15998.32916193
0.07200000 1337411.25542693 20502.51550617
0.07300000 1328101.76450702 17690.31633212
0.07400000 1318733.20679854 20770.04898045
0.07500000 1309308.00384739 17911.33433218
0.07600000 1299826.77954571 16514.30000833
0.07700000 1290295.85498582 18115.75465342
0.07800000 1280714.58787520 16694.11543584
0.07900000 1271085.36102305 15253.02504770
0.08000000 1261412.52876714 19924.01182653
0.08100000 1251697.26568203 21554.22792633
0.08200000 1241940.79743403 18554.59638434
0.08300000 1232146.76432531 15525.04995912
0.08400000 1222317.25383700 23376.81857691
0.08500000 1212454.08085890 25025.05340373
0.08600000 1202560.20790866 15693.41145004
0.08700000 1192638.84795553 22039.96694516
0.08800000 1182689.29685944 17367.79314004
0.08900000 1172717.05882607 23747.52155664
0.09000000 1162722.14842403 17458.27387870
0.09100000 1152707.94733458 17498.10746262
0.09200000 1142675.84143706 19128.39448444
0.09300000 1132630.68497188 19164.11209029
0.09400000 1122569.62937378 20795.60336149
0.09500000 1112498.51961693 19223.97532256
0.09600000 1102418.64149893 16040.19198782
0.09700000 1092334.28586630 17663.04623285
0.09800000 1082245.26857468 22499.88019156
0.09900000 1072154.10444629 19298.77478751
0.10000000 1062062.48647947 19308.29691221
0.10100000 1051972.00321963 16095.17240625
0.10200000 1041886.24221773 20926.28615924
0.10300000 1031805.96182776 20925.02589020
0.10400000 1021734.98809834 24138.49022942
0.10500000 1011675.51273551 24128.46211397
0.10600001 1001624.50875263 20898.89635849
0.10700001 991590.57079731 19276.52160341
0.10800001 981571.09184949 19258.42572842
0.10900001 971570.68251571 17634.00871762
0.11000001 961589.00659459 17611.50348475
0.11100001 951629.58328187 19184.85330206
0.11200001 941692.89746242 20750.20397244
0.11300001 931781.51693395 25493.54350357
0.11400001 921897.39663345 22263.82317698
0.11500001 912042.70269950 20630.40690651
0.11600001 902217.68811145 26917.66599240
0.11700001 892426.02997897 22114.31806435
0.11800001 882666.13972921 20482.26873710
0.11900001 872941.68905602 17284.24625743
0.12000001 863253.33906433 20368.46349468
0.12100001 853606.31511361 20307.29519319
0.12200001 843997.18047754 17128.92358476
0.12300001 834431.60214014 21728.59994346
0.12400001 824906.83666974 17013.70430796
0.12500001 815426.61424415 18493.87648250
0.12600001 805993.54362370 21495.84882140
0.12700001 796607.08058267 16824.34233478
0.12800001 787268.73796888 19803.74603694
0.12900001 777980.68610674 22755.93614116
0.13000001 768743.91697857 19637.56428483
0.13100001 759558.22901619 24062.80582950
0.13200001 750427.27547898 22456.53727732
0.13300001 741350.70371516 19371.49480131
0.13400001 732329.09533667 17795.59785567
0.13500001 723365.68874307 16232.32682072
0.13600001 714460.07757594 17618.58634375
0.13700001 705613.44460248 16066.81889120
0.13800001 696825.01329511 20340.32309725
0.13900001 688099.89499862 18785.12801933
0.14000001 679435.22650052 14370.05571819
0.14100001 670834.77788718 15717.65958719
0.14200001 662297.06591524 15626.90000732
0.14300001 653825.33938637 16947.15359625
0.14400001 645415.51905073 14037.78820151
0.14500001 637074.90867839 15347.13527402
0.14600001 628800.11400442 16638.05180145
0.14700001 620594.32106185 16532.63349304
0.14800001 612454.69232992 16426.03562325
0.14900001 604384.37260655 19038.10863534
0.15000001 596383.09607123 14858.88553970
0.15100001 588452.47648436 16100.06051629
0.15200001 580593.13714984 15989.53575160
0.15300001 572804.97161388 18524.51365615
0.15400001 565086.03126916 14452.07593172
0.15500001 557441.10706206 20870.59603335
0.15600001 549866.54909122 14244.29362647
0.15700001 542367.95306143 12854.12109423
0.15800001 534939.06269546 14034.12697221
0.15900001 527585.84524334 13928.26697185
0.16000001 520304.02144738 15078.41125328
0.16100001 513098.44119989 12468.29270971
0.16200001 505966.34189968 14845.05317211
0.16300001 498908.41750358 13500.46241497
0.16400001 491925.87826372 13392.68266799
0.16500001 485017.02335737 16907.69423247
0.16600001 478183.92265360 14374.20939362
0.16700001 471424.28478337 14255.87104494
0.16800001 464739.87105107 12959.27191615
0.16900001 458132.23960848 11682.37266164
0.17000001 451597.99420995 13900.18691814
0.17100001 445139.18919674 12633.05078595
0.17200001 438754.85620961 13662.82686757
0.17300001 432445.93513789 14672.89127215
0.17400001 426212.10283267 12306.87505050
0.17500001 420051.92699815 13307.24567577
0.17600001 413965.20634661 17585.24279614
0.17700001 407955.70468574 13070.90139548
0.17800001 402018.38335637 15111.87174413
0.17900001 396154.48940636 13905.02323495
0.18000001 390366.43816052 13777.98408568
0.18100001 384651.72208471 11551.09175984
0.18200001 379007.64195250 11444.13628935
0.18300001 373437.88096193 11337.57460158
0.18400001 367940.11064862 11231.37240813
0.18500001 362515.38421933 11125.59766729
0.18600001 357162.57770217 13023.93401121
0.18700001 351880.11311936 9923.01965878
0.18800001 346667.65440643 15724.84554681
0.18900001 341529.47200910 11680.30849458
0.19000001 336457.50373151 11567.40952484
0.19100001 331458.05660534 13364.38947380
0.19200001 326525.98152936 12288.80589552
0.19300001 321664.98430567 11232.54178272
0.19400001 316870.55656993 15756.38916999
0.19500001 312144.71215541 12847.87695944
0.19600001 307484.89150442 9086.17897334
0.19700001 302894.18668899 8995.95776979
0.19800001 298368.33850953 9796.92485795
0.19900001 293908.54355960 12344.15941289
0.20000001 289512.55314282 10474.56466775
0.20100001 285182.85907886 10369.24924618
0.20200001 280915.53934623 11120.04215059
0.20300001 276712.52126681 8467.40355097
0.20400001 272572.11097278 11734.22993201
0.20500001 268493.40822258 10785.38071809
0.20600001 264476.14740213 10675.58019450
0.20700001 260519.83207289 10566.68488835
0.20800001 256623.51865389 13676.75107316
0.20900001 252788.98660192 9555.42414525
0.21000001 249010.35408003 11033.64931087
0.21100001 245291.79806283 14040.50318486
0.21200001 241629.26329769 10036.07192552
0.21300001 238023.95730471 11460.85408604
0.21400001 234475.38647717 11342.74735708
0.21500001 230983.01362828 14219.31499121
0.21600001 227544.04059211 8147.21475859
0.21700001 224160.12200528 10262.05087059
0.21800001 220829.53981900 10155.95101645
0.21900001 217550.49230812 8614.99990273
0.22000001 214323.70545000 9236.28052308
0.22100001 211149.46197386 7734.40515781
0.22200001 208025.76017417 7654.30820754
0.22300001 204951.29726890 8952.27308802
0.22400001 201925.30397122 8177.97519754
0.22500001 198950.52355294 8767.74998758
0.22600001 196021.14909065 8676.87657481
0.22700001 193140.35089593 6605.40031300
0.22800001 190304.86586260 7190.66969667
0.22900001 187515.40427379 9703.92263008
0.23000001 184771.11750167 7042.55147663
0.23100001 182072.47972348 8236.95937224
0.23200001 179415.66351080 8151.75105714
0.23300001 176803.13573942 7446.94842954
0.23400001 174231.43533326 7369.99006316
0.23500001 171701.73897758 6686.06603201
0.23600001 169213.42613368 7820.19885864
0.23700001 166764.95305964 9525.61456931
0.23800001 164356.03863881 7659.81354306
0.23900001 161986.30547083 5831.50727278
0.24000001 159654.30730606 6925.80417853
0.24100001 157360.88825556 7425.86066803
0.24200001 155104.48097211 7349.62617852
0.24300001 152883.80677016 7274.21187021
0.24400001 150698.66394557 6645.81139437
0.24500001 148548.23870221 7125.85934763
0.24600001 146432.41391309 6510.38543055
0.24700001 144351.39803141 6443.84671295
0.24800001 142303.04272883 7441.02645630
0.24900001 140285.83504848 8417.15050110
0.25000001 138302.13666125 5207.07569163
0.25100001 136349.04323355 6184.79289367
0.25200001 134428.78583350 5101.57266374
0.25300001 132536.80935578 5049.65267536
0.25400001 130675.78636388 5998.01887788
0.25500001 128842.07725392 5937.04320075
0.25600001 127038.64136084 5387.07384178
0.25700001 125262.30009952 5332.41636753
0.25800001 123513.23942210 5758.18749430
0.25900001 121792.55382362 7599.85571818
0.26000001 120097.05639109 8463.23996432
0.26100001 118427.58483140 7912.14731696
0.26200001 116784.33805273 6449.99929585
0.26300001 115164.92601658 5016.58441465
0.26400001 113570.81235877 4965.88400536
0.26500001 112000.75511391 6256.36247671
0.26600001 110453.75215466 5750.77487806
0.26700001 108930.20958085 4378.99463237
0.26800001 107429.74905362 5635.22775327
0.26900001 105950.45221252 5578.29157296
0.27000001 104493.62469324 6371.49906718
0.27100001 103058.03679433 5045.72172023
0.27200001 101643.99635414 5827.25058675
0.27300001 100250.35532782 6180.43469844
0.27400001 98875.23494971  4894.32436163
0.27500001 97522.32657281  4037.42451119
0.27600001 96186.66796946  4396.21186760
0.27700001 94871.95639481  4351.77684578
0.27800001 93574.57188243  4699.31522234
0.27900001 92296.03197552  4264.07687908
0.28000001 91035.05817991  4220.84067228
0.28100001 89791.98762050  4178.02138172
0.28200001 88566.83279861  4887.56089932
0.28300001 87358.57721357  3721.47556544
0.28400001 86166.24363642  6630.49276165
0.28500001 84991.12759881  4010.73150122
0.28600001 83831.86297086  4330.75424606
0.28700001 82689.21190412  3572.17412334
0.28800001 81560.41015909  4596.33713207
0.28900001 80449.10065772  3849.48964868
0.29000001 79351.65219086  4502.80971671
0.29100001 78269.73380985  3428.21450315
0.29200001 77202.04563019  4750.24209248
0.29300001 76149.04444624  4365.62492475
0.29400001 75109.47695759  3323.59451270
0.29500001 74085.01597801  3947.24983816
0.29600001 73073.16986778  3580.95085888
0.29700001 72075.17498962  3866.11256946
0.29800001 71091.05109574  4144.96393035
0.29900001 70120.19021234  3786.49045072
0.30000001 69161.04120718  3122.62115833
0.30100001 68216.18626920  4017.25139957
0.30200001 67282.53895769  3057.99154039
0.30300001 66362.54388053  3631.35857306
0.30400001 65454.42769412  2994.54020877
0.30500001 64558.99145764  4148.56098747
0.30600001 63674.15324763  4105.07285422
0.30700001 62802.15310874  4062.04345538
0.30800001 61941.70801619  4880.69711421
0.30900001 61093.05797051  3977.15826218
0.31000001 60256.16103643  3092.04504998
0.31100001 59429.54064891  3893.82368767
0.31200001 58615.28276094  3577.58395270
0.31300001 57811.23274244  3812.07286752
0.31400001 57019.66586758  2694.17933980
0.31500001 56237.34952394  3731.91069110
0.31600002 55467.52226920  2637.48080878
0.31700002 54707.70310612  3131.46907406
0.31800002 53958.10154310  3098.27433730
0.31900002 53219.79399719  2554.55023282
0.32000002 52492.35686388  4044.01136427
0.32100002 51774.45193759  3000.84737639
0.32200002 51068.01326302  2721.66989572
0.32300002 50370.46126297  2937.60543995
0.32400002 49684.46082382  2664.32933784
0.32500002 49007.63389263  2875.76809299
0.32600002 48341.17538285  2371.13476481
0.32700002 47685.17280174  2346.11061294
0.32800002 47039.83410078  3017.84069964
0.32900002 46402.52467660  2526.61758829
0.33000002 45776.37756757  2954.63643001
0.33100002 45158.98257405  2473.80918255
0.33200002 44552.98051259  2447.96363019
0.33300002 43955.80947282  2642.62339065
0.33400002 43368.76551354  3922.70502646
0.33500002 42791.25674308  2588.01533038
0.33600002 42222.96031901  2561.24489424
0.33700002 41664.08847724  2323.60632441
0.33800002 41115.61578064  2927.02082604
0.33900002 40575.86200313  2690.17977821
0.34000002 40045.53315613  2457.99494153
0.34100002 39525.09164285  2230.40102703
0.34200002 39014.26860892  2208.01263649
0.34300002 38512.06443211  2583.38940445
0.34400002 38019.85915791  2164.28058506
0.34500002 37536.70838902  2727.41736072
0.34600002 37063.45252887  2122.06807504
0.34700002 36597.84214706  2292.48894067
0.34800002 36142.59091527  2081.27119643
0.34900002 35695.81124607  2623.64225085
0.35000002 35258.58855314  2970.18364039
0.35100002 34830.97417326  2574.70573283
0.35200002 34410.77747407  3097.48628103
0.35300002 34000.88035361  2527.62556520
0.35400002 33599.07305287  2504.81101473
0.35500002 33206.60299971  1950.55595259
0.35600002 32822.77881013  2109.19186624
0.35700002 32447.46836754  2265.15787403
0.35800002 32081.48275570  1900.34672104
0.35900002 31724.48071655  1884.43424382
0.36000002 31375.87734484  2208.70499031
0.36100002 31035.28748862  2190.78104759
0.36200002 30704.91575999  2006.25929079
0.36300002 30381.41988492  1990.59072515
0.36400002 30067.02940341  1646.16993781
0.36500002 29760.40074284  2287.38450944
0.36600002 29462.92682727  2432.90129800
0.36700002 29173.25665773  1771.40022817
0.36800002 28892.56146519  2398.80502928
0.36900002 28619.80435302  2064.91898188
0.37000002 28354.51972557  1893.51491697
0.37100002 28097.36963409  1724.61662984
0.37200002 27849.06320269  1713.97067600
0.37300002 27608.16880882  2013.46384661
0.37400002 27375.07225538  1847.81746477
0.37500002 27149.93132365  1990.63305895
0.37600002 26932.78946899  1827.65917994
0.37700002 26723.24106025  1666.72862388
0.37800002 26520.92110419  1809.25732344
0.37900002 26327.20539555  2551.10632368
0.38000002 26139.99011813  3137.19106265
0.38100002 25959.60274424  1636.23383848
0.38200002 25787.69561801  1629.65350178
0.38300002 25622.36583939  1623.43317649
0.38400002 25464.42112860  1764.68446781
0.38500002 25312.90913338  1758.74100991
0.38600002 25169.38733721  1461.08300414
0.38700002 25031.85858770  2039.59593435
0.38800002 24900.93615841  1888.86060178
0.38900002 24776.87833766  1594.39219656
0.39000002 24660.08557750  1590.94549641
0.39100002 24548.80321644  1732.16363702
0.39200002 24444.90154263  1585.12971563
0.39300002 24346.40764075  2014.42186363
0.39400002 24255.47483408  1580.85064721
0.39500002 24169.08365513  1722.77236456
0.39600002 24089.27837557  1577.96825475
0.39700002 24014.72513251  1577.04707417
0.39800002 23947.20045308  2006.53602103
0.39900002 23884.13642723  2006.26755494
0.40000002 23827.21184949  1433.20686065
0.40100002 23775.20059854  1863.73806322
0.40200002 23729.15859318  2008.19878689
0.40300002 23688.11926267  1435.50009533
0.40400002 23652.27900060  1580.56361910
0.40500002 23620.99868967  2157.77833254
0.40600002 23595.34163724  1872.64437777
0.40700002 23574.16568170  2019.83461131
0.40800002 23557.26780677  1589.76229326
0.40900002 23544.91464805  1737.61478336
0.41000002 23537.57071231  1886.41869412
0.41100002 23534.24986225  1599.85838144
0.41200002 23534.10765293  1749.52564582
0.41300002 23539.69502645  1607.99664345
0.41400002 23548.20913413  1612.46369686
0.41500002 23560.56130126  2058.25073280
0.41600002 23575.71969575  2211.99200527
0.41700002 23596.01748683  1479.47036653
0.41800002 23620.15375986  2078.33742781
0.41900002 23645.63186817  1489.67487828
0.42000002 23674.97619828  2242.61222665
0.42100002 23708.45121175  1800.89403938
0.42200002 23744.04915749  1657.21598947
0.42300002 23782.42745454  1966.33119512
0.42400002 23823.39380037  1974.36385476
0.42500002 23867.58319085  2592.73568488
0.42600002 23913.02008328  2144.28061248
0.42700002 23961.78739498  1999.85087075
0.42800002 24012.23082724  2317.78069043
0.42900002 24065.78779995  1552.24338665
0.43000002 24121.08567448  1715.37108903
0.43100002 24176.72139931  1879.98194510
0.43200002 24235.42236136  1731.49983266
0.43300002 24295.13643722  1739.77480271
0.43400002 24356.77318221  1907.13543054
0.43500002 24419.47277690  1756.73695482
0.43600002 24483.91800918  2086.39717202
0.43700002 24548.94937474  1774.15265539
0.43800002 24614.62057727  2593.39654692
0.43900002 24682.22969016  2606.44357880
0.44000002 24749.92854829  1964.64942127
0.44100002 24818.72860843  2303.67449861
0.44200002 24888.03092510  1653.80973335
0.44300002 24957.85205199  2327.07023561
0.44400002 25027.94232679  2338.86132128
0.44500002 25097.90500209  1846.95491663
0.44600002 25167.80383088  1856.25145952
0.44700002 25239.09628882  2544.10102648
0.44800002 25308.83447845  1875.00509120
0.44900002 25379.42770640  2227.04488678
0.45000002 25449.99757926  1721.69241783
0.45100002 25519.33701520  2595.31669744
0.45200002 25588.68644126  1738.75132609
0.45300002 25656.95355851  1747.23862014
0.45400002 25725.12086955  2458.03541558
0.45500002 25792.80743721  2117.07373478
0.45600002 25859.11160682  2658.96327699
0.45700002 25925.01576729  2671.57300144
0.45800002 25989.46862080  1789.37499935
0.45900002 26052.82782853  2157.17424644
0.46000002 26115.62444954  2528.25372278
0.46100002 26176.32300925  1814.01927052
0.46200002 26236.30878757  2368.74525115
0.46300002 26295.13089492  2013.15531673
0.46400002 26351.76389063  2940.85698958
0.46500002 26408.05673559  3138.06953062
0.46600002 26461.61305009  2224.36329842
0.46700002 26513.56933510  2047.37792109
0.46800002 26564.74096751  1868.82961564
0.46900002 26613.08441880  2439.08930259
0.47000002 26660.06387042  2825.30040258
0.47100002 26705.25449840  2457.95174053
0.47200002 26748.57054890  3226.27898967
0.47300002 26789.91748985  1904.76322381
0.47400002 26828.49412706  2102.68332687
0.47500002 26865.41097616  3260.92373885
0.47600002 26900.87266784  2694.66054286
0.47700002 26933.08026054  1931.10194621
