# SAXS profile: number of points = 501, q_min = 0, q_max = 0.5, delta_q = 0.001
#    q    intensity    error
0.00000000 1700912.83420644 255.13692513
0.00100000 1700829.66569756 663.32358538
0.00200000 1700580.10012861 841.78717622
0.00300000 1700164.35969410 1530.14797823
0.00400000 1699582.30921305 1402.15545838
0.00500000 1698834.50002065 1681.84622159
0.00600000 1697920.78683117 2139.38027851
0.00700000 1696841.74688350 3257.93628942
0.00800000 1695597.23234515 2517.96199634
0.00900000 1694188.50716583 3049.53944326
0.01000000 1692614.84737297 4468.50339001
0.01100000 1690877.69438752 3956.65397714
0.01200000 1688976.85710508 3622.85551733
0.01300000 1686913.53474291 4605.27415296
0.01400000 1684687.83559360 4927.71213756
0.01500000 1682301.02263770 4037.52263412
0.01600000 1679752.66666593 5568.38033892
0.01700000 1677044.98639898 6339.23033296
0.01800000 1674177.87355655 5725.68858521
0.01900000 1671152.22735129 6016.14828993
0.02000000 1667968.94243577 5254.10240635
0.02100000 1664630.22299996 6591.93598195
0.02200000 1661134.63042111 6877.09768239
0.02300000 1657485.35051964 6563.64228682
0.02400000 1653682.10196205 6821.43898163
0.02500000 1649727.27591059 7720.72400387
0.02600000 1645620.83681754 7331.24116334
0.02700000 1641365.12173319 7583.10720972
0.02800000 1636959.76045706 7832.85281300
0.02900000 1632407.64900508 9549.58518514
0.03000000 1627709.80911050 7568.85096027
0.03100000 1622866.95648665 14021.57114922
0.03200000 1617880.31132853 13614.46344689
0.03300000 1612753.69027797 8225.04419960
0.03400000 1607485.26502637 16878.59606156
0.03500000 1602078.40932303 10381.46857181
0.03600000 1596534.39375520 8860.76629483
0.03700000 1590854.98505652 9067.87383419
0.03800000 1585041.79658308 14835.99190262
0.03900000 1579096.83794446 10422.03961308
0.04000000 1573019.95110455 9674.07314758
0.04100000 1566815.24113381 10858.03012451
0.04200000 1560483.65442019 11071.63204176
0.04300000 1554026.00485958 13333.54374061
0.04400000 1547445.96524689 15667.89112577
0.04500000 1540744.73966281 11694.25311741
0.04600000 1533922.51673890 19465.47764231
0.04700000 1526983.46122424 16491.42214820
0.04800000 1519928.05542305 12288.61889986
0.04900000 1512760.42150372 13614.84442727
0.05000000 1505479.89813796 24185.53568981
0.05100000 1498091.03927885 14022.13278086
0.05200000 1490592.05956384 15405.26965350
0.05300000 1482989.38986929 15615.87900330
0.05400000 1475282.85789629 19473.73463237
0.05500000 1467474.98055982 19722.86465878
0.05600000 1459566.95238511 13727.22782775
0.05700000 1451564.13097558 13891.46938187
0.05800000 1443465.01457243 14052.13257299
0.05900000 1435272.62914163 14209.19969215
0.06000000 1426990.70015649 18279.75172301
0.06100000 1418620.34450323 19789.75473062
0.06200000 1410164.34534908 21321.68589833
0.06300000 1401625.12869092 17492.28242392
0.06400000 1393002.27693064 20372.65925287
0.06500000 1384301.88224443 15075.04820282
0.06600000 1375524.28705164 16588.82367801
0.06700000 1366671.83564902 16728.06405120
0.06800000 1357747.14005063 18268.48862451
0.06900000 1348753.08679846 24075.24372653
0.07000000 1339690.51927367 18548.01610792
0.07100000 1330562.71246610 22992.12474831
0.07200000 1321371.59537635 14469.01964720
0.07300000 1312120.79446768 21846.81225153
0.07400000 1302811.62655061 23450.61037690
0.07500000 1293446.41046547 17694.34772455
0.07600000 1284025.76625911 17796.59795467
0.07700000 1274555.96830991 17894.76663413
0.07800000 1265036.44085068 14990.68252709
0.07900000 1255469.52595582 18078.76202173
0.08000000 1245859.55803525 16650.91377425
0.08100000 1236207.65230423 21287.49677145
0.08200000 1226515.08176628 15270.11348454
0.08300000 1216785.63203008 19930.94958805
0.08400000 1207021.06984385 21545.32710802
0.08500000 1197223.66286485 16988.60457358
0.08600000 1187395.80499445 21693.72237580
0.08700000 1177540.71361436 24869.66103936
0.08800000 1167658.21052848 17147.06162690
0.08900000 1157753.66438086 21881.54528457
0.09000000 1147826.72680137 20368.18622390
0.09100000 1137880.95483682 21983.86108027
0.09200000 1127917.70131059 25175.12427615
0.09300000 1117942.05610334 20491.87885133
0.09400000 1107950.89567231 22103.62140748
0.09500000 1097949.93661464 17391.52781342
0.09600000 1087940.71800083 18995.44582923
0.09700000 1077927.41537358 20599.19387621
0.09800000 1067909.82311331 30131.07707584
0.09900000 1057890.64879048 22215.70466924
0.10000000 1047871.19916476 19050.29929670
0.10100000 1037853.34787615 20642.90406013
0.10200000 1027840.70223071 17468.15355605
0.10300000 1017834.06640504 17466.03340113
0.10400000 1007836.66284825 17460.77100529
0.10500000 997851.20335377 17452.41836778
0.10600001 987874.72141494 20612.00703219
0.10700001 977915.37118910 20594.89868639
0.10800001 967970.99821454 20574.22453531
0.10900001 958046.07494157 25292.41756886
0.11000001 948140.03769087 22101.14531887
0.11100001 938256.44470815 22067.79261834
0.11200001 928396.11702307 28325.36686385
0.11300001 918561.08064962 20419.61378421
0.11400001 908753.80256073 20378.80498195
0.11500001 898975.99109885 20334.83787618
0.11600001 889228.37385535 17166.55456568
0.11700001 879514.08275998 23351.09999700
0.11800001 869832.04106317 17079.15293067
0.11900001 860185.58819604 20128.34371187
0.12000001 850575.40430470 24700.71090453
0.12100001 841006.53892729 18468.50446486
0.12200001 831476.16788431 16874.80962221
0.12300001 821988.98815901 16817.89549010
0.12400001 812543.25795310 19805.74284580
0.12500001 803142.15140710 19733.20358991
0.12600001 793788.18370581 21170.33185705
0.12700001 784481.09686259 18074.44532350
0.12800001 775222.29842029 15000.55218140
0.12900001 766013.83390329 17924.72455817
0.13000001 756856.69520408 20821.12866647
0.13100001 747751.05405608 20727.66019549
0.13200001 738699.91143704 14737.06392788
0.13300001 729703.42449626 17600.44742859
0.13400001 720762.03698245 14595.43193701
0.13500001 711878.65908146 14522.32532996
0.13600001 703053.33361596 15892.52135573
0.13700001 694287.06886192 17246.09160374
0.13800001 685579.12988142 15723.75808530
0.13900001 676934.15321010 18480.30325413
0.14000001 668350.07219325 15549.16516288
0.14100001 659829.93446504 22487.00522712
0.14200001 651372.84532112 20957.92228669
0.14300001 642981.39989811 20832.59833932
0.14400001 634652.10284555 17944.78905441
0.14500001 626391.92841568 16461.58065529
0.14600001 618197.53196583 14994.38184518
0.14700001 610072.17149696 16252.32341541
0.14800001 602012.70125860 14800.48295871
0.14900001 594022.82354270 14702.06557634
0.15000001 586102.00667959 15930.25329319
0.15100001 578251.25538913 17139.36801845
0.15200001 570472.07752448 17020.03523607
0.15300001 562763.90479905 14299.83149574
0.15400001 555125.10133841 16778.65697976
0.15500001 547560.02200161 16656.77665537
0.15600001 540065.32589652 16534.10073265
0.15700001 532646.27017286 13886.08891879
0.15800001 525296.87026119 15033.99713646
0.15900001 518023.20676123 12432.55754909
0.16000001 510820.58333700 19738.10827183
0.16100001 503694.22898371 18359.65551311
0.16200001 496641.28168258 12142.87991036
0.16300001 489662.29191047 15659.40083454
0.16400001 482758.42666508 11948.27162403
0.16500001 475928.01344916 18960.97295099
0.16600001 469173.02163740 23505.56949380
0.16700001 462491.77555071 15151.23128240
0.16800001 455885.47191226 13868.03671037
0.16900001 449355.41402478 12604.41995855
0.17000001 442898.57760729 13632.41886247
0.17100001 436517.19629726 12388.35861591
0.17200001 430210.15225692 14513.14017174
0.17300001 423977.96247425 16598.73801473
0.17400001 417820.94249856 13161.36031026
0.17500001 411737.19823438 10869.86254674
0.17600001 405726.72190063 11849.24947274
0.17700001 399793.16956567 10674.47813157
0.17800001 393931.58941721 13750.18277806
0.17900001 388143.29552856 10479.86947427
0.18000001 382430.02250621 10382.97560148
0.18100001 376790.31693321 12343.65136580
0.18200001 371221.04652262 12228.02185008
0.18300001 365725.38981229 10094.02123565
0.18400001 360301.90070027 15997.40514682
0.18500001 354950.78428560 10893.44008435
0.18600001 349671.41768649 9808.28372948
0.18700001 344462.24147156 12627.98636895
0.18800001 339322.70061635 10581.77891867
0.18900001 334256.92257422 13336.85184084
0.19000001 329257.13473844 11319.86082716
0.19100001 324329.58465609 10274.76172739
0.19200001 319469.04151461 12023.21794552
0.19300001 314679.26158119 9157.16694471
0.19400001 309955.62832167 9972.82281250
0.19500001 305300.22002316 13463.74033925
0.19600001 300710.61915197 14217.59874538
0.19700001 296189.54253018 12315.56176041
0.19800001 291733.19742285 9579.05999007
0.19900001 287342.51712389 10344.33110533
0.20000001 283015.10666421 10239.48704304
0.20100001 278753.63655401 9290.85914545
0.20200001 274554.49142876 8360.18465914
0.20300001 270418.89170648 9929.78217279
0.20400001 266345.76653380 9009.14597883
0.20500001 262333.85099745 9727.33965477
0.20600001 258382.87858503 11231.90426300
0.20700001 254492.57138387 12704.26976400
0.20800001 250661.84951024 9429.89922433
0.20900001 246892.52791385 8554.82649661
0.21000001 243178.62250892 9235.92451949
0.21100001 239524.39341831 8378.56367786
0.21200001 235925.94398275 8291.61769326
0.21300001 232384.03620728 11189.29187236
0.21400001 228898.49696777 9596.56993907
0.21500001 225468.91796175 8766.23194480
0.21600001 222092.12635877 7952.00896024
0.21700001 218770.01570507 9299.91380732
0.21800001 215500.77868007 7787.12100578
0.21900001 212282.96320671 7705.87192875
0.22000001 209116.48338929 7625.43292734
0.22100001 206002.43722456 10289.82222591
0.22200001 202938.27185883 7467.11406612
0.22300001 199923.00199125 8060.89582145
0.22400001 196955.91395910 9306.16737462
0.22500001 194039.33182650 7235.72702597
0.22600001 191167.86822868 9763.89933150
0.22700001 188344.41238204 7085.51712888
0.22800001 185565.99909966 7649.03084461
0.22900001 182832.90571061 6307.73554531
0.23000001 180144.72309233 7490.41794041
0.23100001 177501.57981015 8030.17185038
0.23200001 174899.90995410 9169.12821298
0.23300001 172341.98876990 9678.72654707
0.23400001 169824.63600484 6584.95057252
0.23500001 167348.56564258 7108.96740472
0.23600001 164913.52128642 8207.74634263
0.23700001 162518.05482069 7542.46328097
0.23800001 160161.39371964 9761.03660193
0.23900001 157843.53118845 6250.60413071
0.24000001 155562.92971273 6748.32021014
0.24100001 153320.47846711 5565.53363161
0.24200001 151114.66890448 6609.75593054
0.24300001 148943.88024774 5996.48090242
0.24400001 146808.39711862 5934.72973425
0.24500001 144707.14820799 6407.63282576
0.24600001 142639.91786188 6341.77104814
0.24700001 140606.98313499 8368.92803209
0.24800001 138606.32039694 9318.50336111
0.24900001 136636.49237839 7685.80305988
0.25000001 134699.55203395 7100.01372360
0.25100001 132792.77777783 6023.48068497
0.25200001 130918.24829031 5465.18253344
0.25300001 129071.71932324 5409.39601276
0.25400001 127255.53009806 7301.28638481
0.25500001 125466.39162986 4817.90966653
0.25600001 123706.95444297 7153.35497911
0.25700001 121974.01899467 5192.43423427
0.25800001 120268.12098784 5606.90006574
0.25900001 118590.02794201 7400.01809371
0.26000001 116936.67951808 6867.10682962
0.26100001 115308.70267718 5437.95867556
0.26200001 113706.87086954 5382.88352166
0.26300001 112128.17089329 4884.30335522
0.26400001 110574.41458393 4834.86650646
0.26500001 109044.22885688 5656.12441845
0.26600001 107536.63661973 4737.52675046
0.26700001 106052.06570878 5542.28121620
0.26800001 104590.12666894 4220.21181080
0.26900001 103148.91780050 6266.29705291
0.27000001 101729.77166088 4962.37849645
0.27100001 100331.30772820 4093.51754903
0.27200001 98954.05259596  6483.46983291
0.27300001 97596.65459020  5214.58950153
0.27400001 96257.56261078  4764.74957472
0.27500001 94939.99872008  5109.67097293
0.27600001 93639.26916829  5446.99654530
0.27700001 92359.05019407  4236.50983290
0.27800001 91095.87311422  5718.54370539
0.27900001 89851.07699458  4528.49449485
0.28000001 88623.48900679  4482.57628612
0.28100001 87413.27423412  4067.33984262
0.28200001 86220.60443518  4026.07131465
0.28300001 85044.31790064  3985.17692544
0.28400001 83883.67760299  3944.63012598
0.28500001 82739.73880297  5324.30244398
0.28600001 81611.27536352  3513.36557069
0.28700001 80499.02848272  4520.82565357
0.28800001 79400.26980811  4130.40223092
0.28900001 78318.49539467  4769.59659530
0.29000001 77250.27619518  3709.17218708
0.29100001 76197.16215801  3671.17944655
0.29200001 75157.93586934  4294.14886916
0.29300001 74132.95000106  4903.89487470
0.29400001 73120.98561671  3882.72452004
0.29500001 72123.90327743  4803.45218566
0.29600001 71138.86171715  4436.93101533
0.29700001 70167.44232103  3450.13330225
0.29800001 69209.37182147  4035.25261507
0.29900001 68264.35554993  3686.27537420
0.30000001 67330.60168420  3647.97217194
0.30100001 66410.75814298  5415.13347533
0.30200001 65501.85251918  3274.76527173
0.30300001 64606.06711641  2946.03679998
0.30400001 63721.99060728  4081.39369162
0.30500001 62850.12568188  3173.30299591
0.30600001 61988.62279500  3140.03383634
0.30700001 61139.58579934  3389.57879719
0.30800001 60301.72346365  4192.47752230
0.30900001 59475.27441648  2765.60039130
0.31000001 58660.18038753  3283.79705356
0.31100001 57855.28721011  3790.67859748
0.31200001 57062.24984149  2946.98003259
0.31300001 56279.18910641  4506.27488511
0.31400001 55508.24229504  2885.04102988
0.31500001 54746.34814378  4411.46094230
0.31600002 53996.47760499  2824.28589485
0.31700002 53256.29744427  3302.42316088
0.31800002 52526.10129680  3016.04887927
0.31900002 51806.92177519  2984.07883554
0.32000002 51098.19258634  2952.45370744
0.32100002 50398.83931145  2434.26405401
0.32200002 49710.62327259  2649.32779276
0.32300002 49030.90528175  2621.19232048
0.32400002 48362.50841521  2357.67239688
0.32500002 47703.09432575  2565.94956528
0.32600002 47053.77713274  2307.98787765
0.32700002 46414.53924197  2740.31452661
0.32800002 45785.75353142  3841.19597441
0.32900002 45164.68685895  2235.65210538
0.33000002 44554.64937065  2654.56613521
0.33100002 43953.02360227  2407.74674695
0.33200002 43362.51012372  2815.74472822
0.33300002 42780.56272262  2143.30629390
0.33400002 42208.68093372  2969.38084430
0.33500002 41645.92673229  2728.64124872
0.33600002 41092.11845992  3323.53069843
0.33700002 40547.59418635  2261.33943486
0.33800002 40013.19371365  2848.53939537
0.33900002 39487.28743720  2618.00728107
0.34000002 38970.58772957  1993.34565677
0.34100002 38463.46263644  2565.12844470
0.34200002 37965.92185083  1953.34677173
0.34300002 37476.75719426  1933.80076281
0.34400002 36997.35649785  2488.99727627
0.34500002 36526.71335161  2274.88381528
0.34600002 36065.76823083  2064.94565785
0.34700002 35612.42591286  2044.86559276
0.34800002 35169.11703037  2025.21370011
0.34900002 34734.08437356  2188.24741917
0.35000002 34308.48698427  2348.24450286
0.35100002 33892.28811254  1968.46418681
0.35200002 33483.35714957  2659.41576756
0.35300002 33084.50539196  1932.46605147
0.35400002 32693.66370580  1740.93767479
0.35500002 32311.97726249  2243.09756780
0.35600002 31938.61370080  1881.34412915
0.35700002 31573.79616778  2712.82069523
0.35800002 31217.92802504  2185.41115491
0.35900002 30871.03354806  1833.73947961
0.36000002 30532.33715640  1983.99136240
0.36100002 30201.53818829  1803.93796143
0.36200002 29880.70763269  2115.10598997
0.36300002 29566.72796177  1614.34342318
0.36400002 29261.66850111  2883.73756738
0.36500002 28964.21081656  1908.16229898
0.36600002 28675.81703492  2210.04532357
0.36700002 28395.12362064  2037.63416754
0.36800002 28123.19728378  2179.26666075
0.36900002 27859.17391587  1855.42107069
0.37000002 27602.48503706  1843.29403809
0.37100002 27353.80055797  2136.87900081
0.37200002 27113.71660986  1820.41501942
0.37300002 26881.10360747  2111.24197734
0.37400002 26656.11008809  1499.40626348
0.37500002 26438.99380941  1789.39118579
0.37600002 26229.75214722  1779.95106503
0.37700002 26027.97236363  1918.52193381
0.37800002 25833.44489126  1762.35769397
0.37900002 25647.26133743  2046.65155168
0.38000002 25467.60118144  1746.56817176
0.38100002 25294.62041484  2029.13454580
0.38200002 25130.04877311  1732.46564449
0.38300002 24971.88724883  1726.05692841
0.38400002 24821.11322656  1863.44516376
0.38500002 24676.71428543  2000.29455474
0.38600002 24540.14854464  1994.37796671
0.38700002 24409.56732945  1420.63688588
0.38800002 24285.61242550  1983.89177303
0.38900002 24168.33229575  1696.61700754
0.39000002 24058.18415367  1411.01256746
0.39100002 23953.62037523  1549.32023927
0.39200002 23856.21112928  1406.32371270
0.39300002 23764.23181401  1966.25263345
0.39400002 23679.72562414  2385.14047649
0.39500002 23599.91473840  1401.83500188
0.39600002 23526.37237197  1541.09509524
0.39700002 23458.13645961  1960.63113819
0.39800002 23396.84435086  1680.36144089
0.39900002 23339.95160969  1960.55602810
0.40000002 23289.17943876  1961.18189346
0.40100002 23243.29588903  1681.88497022
0.40200002 23203.35590501  1963.70010328
0.40300002 23168.30150387  1825.19887895
0.40400002 23138.49313634  1686.79622956
0.40500002 23113.06734035  1689.10304126
0.40600002 23093.38483825  1832.80657453
0.40700002 23078.00554479  2118.56100939
0.40800002 23066.99524666  1698.19227052
0.40900002 23060.43288069  1985.50336510
0.41000002 23058.82691551  1421.57674670
0.41100002 23061.20895727  1425.18278109
0.41200002 23066.81138696  1714.78683976
0.41300002 23078.02328090  1719.77437638
0.41400002 23092.23427309  1868.73914710
0.41500002 23110.32639120  2595.75198325
0.41600002 23131.11128291  1736.22129516
0.41700002 23156.94234358  1887.52245986
0.41800002 23186.60444087  1748.73378979
0.41900002 23217.69587613  2047.80087331
0.42000002 23252.58686319  2055.76130199
0.42100002 23291.46471163  2211.52467916
0.42200002 23332.68487973  2072.64249608
0.42300002 23376.46666330  2230.11502535
0.42400002 23422.92077497  1642.53239718
0.42500002 23472.58316749  1799.87776257
0.42600002 23523.39681462  1958.67572858
0.42700002 23577.72633029  1967.79713277
0.42800002 23633.57770186  2129.14911605
0.42900002 23692.50299207  1986.61647002
0.43000002 23753.15347923  1996.33387876
0.43100002 23814.21366615  2006.10945430
0.43200002 23878.34377740  1550.89850184
0.43300002 23943.36423741  2026.32701144
0.43400002 24010.46172563  1880.01924221
0.43500002 24078.41108944  2047.14660784
0.43600002 24148.29345702  2216.08899557
0.43700002 24218.66781734  1591.16655100
0.43800002 24289.65426563  1919.36857103
0.43900002 24362.59553107  2572.69021000
0.44000002 24435.68669947  2101.34697730
0.44100002 24509.82370199  2112.50180499
0.44200002 24584.42111296  1960.36183245
0.44300002 24659.64356134  2135.03204072
0.44400002 24735.01953254  2971.91273768
0.44500002 24810.30886928  1991.77169042
0.44600002 24885.59202751  2336.01063433
0.44700002 24962.07293739  2180.68679516
0.44800002 25037.21882095  2192.13379776
0.44900002 25113.10358543  2712.21531576
0.45000002 25188.93816769  2726.45079648
0.45100002 25263.54852468  2569.30300673
0.45200002 25338.20039837  2238.25003827
0.45300002 25411.80246248  2768.87012754
0.45400002 25485.18306443  2087.23659190
0.45500002 25558.16752407  1922.99661565
0.45600002 25629.75948842  2283.99612506
0.45700002 25700.97138220  2295.35386293
0.45800002 25770.72062057  2306.60845846
0.45900002 25839.34666657  1961.20650494
0.46000002 25907.41006276  2149.79698890
0.46100002 25973.42281955  2159.94994404
0.46200002 26038.67074940  1989.22434618
0.46300002 26102.72558648  2543.44970169
0.46400002 26164.58982114  3102.46638508
0.46500002 26226.07630358  2749.80423076
0.46600002 26284.88220727  1841.25608589
0.46700002 26342.11977703  2219.06027519
0.46800002 26398.43750017  2599.98223262
0.46900002 26452.08116772  2051.35899178
0.47000002 26504.23217515  2247.02891031
0.47100002 26554.62531859  2068.07431783
0.47200002 26603.15153474  1887.49369085
0.47300002 26649.61605976  2084.26657082
0.47400002 26693.33406436  1901.90014223
0.47500002 26735.45861488  2290.69420270
0.47600002 26776.10290927  2490.57933015
0.47700002 26813.36717115  1922.51851730
