# SAXS profile: number of points = 501, q_min = 0, q_max = 0.5, delta_q = 0.001
#    q    intensity    error
0.00000000 1700912.83420644 280.65061764
0.00100000 1700829.66306469 765.37336656
0.00200000 1700580.09041190 918.31327790
0.00300000 1700164.33736456 1224.11836651
0.00400000 1699582.25996017 1402.15541775
0.00500000 1698834.41916494 2140.53145287
0.00600000 1697920.67356344 1961.09845781
0.00700000 1696841.60539522 2443.45201332
0.00800000 1695597.03626378 2746.86731472
0.00900000 1694188.26408723 2795.41075524
0.01000000 1692614.54508884 3351.37694399
0.01100000 1690877.34058855 4869.72695292
0.01200000 1688976.42936789 4281.55543617
0.01300000 1686913.02141694 4959.52450170
0.01400000 1684687.25530507 4548.65579097
0.01500000 1682300.35307566 4845.02523260
0.01600000 1679751.91210976 5996.71459431
0.01700000 1677044.13521956 6792.02905232
0.01800000 1674176.89001859 5725.68522151
0.01900000 1671151.13032047 9525.56187264
0.02000000 1667967.79077715 5779.50865648
0.02100000 1664628.92928711 6591.93085885
0.02200000 1661133.20236177 7450.18275107
0.02300000 1657483.83114690 7160.33047648
0.02400000 1653680.39865787 9301.95266660
0.02500000 1649725.46844435 6433.92962077
0.02600000 1645618.88485241 9997.13518273
0.02700000 1641363.00765381 9651.21492704
0.02800000 1636957.46866802 7832.84184679
0.02900000 1632405.24636134 8080.40634049
0.03000000 1627707.20030325 7568.83882931
0.03100000 1622864.20304880 10905.64794629
0.03200000 1617877.36660107 8008.49333353
0.03300000 1612750.56421934 13982.54803638
0.03400000 1607482.05684217 10127.13742538
0.03500000 1602074.94332809 10381.44611216
0.03600000 1596530.77518700 8860.74621178
0.03700000 1590851.11431671 9974.63694807
0.03800000 1585037.72691916 12054.21247108
0.03900000 1579092.57403544 14211.83382447
0.04000000 1573015.52050666 10641.45048934
0.04100000 1566810.60853047 11845.08874971
0.04200000 1560478.78062560 13084.61518258
0.04300000 1554020.92194711 11282.19241703
0.04400000 1547440.61799786 12534.26958790
0.04500000 1540739.23485139 10631.10121445
0.04600000 1533916.72957204 16221.17016930
0.04700000 1526977.56271864 15391.93454805
0.04800000 1519921.89691682 15639.99704697
0.04900000 1512754.07722405 14749.35293948
0.05000000 1505473.20447683 14971.93171571
0.05100000 1498084.23562392 16359.08061509
0.05200000 1490584.93029173 11850.15074805
0.05300000 1482982.07304583 14414.58642198
0.05400000 1475275.28326042 20690.73681262
0.05500000 1467467.15236786 13559.39712042
0.05600000 1459558.96535556 16222.99865696
0.05700000 1451555.79405590 13891.38959754
0.05800000 1443456.47989713 15329.50853228
0.05900000 1435263.77989344 15500.84954683
0.06000000 1426981.72842977 15668.26011016
0.06100000 1418611.13419573 17151.00941392
0.06200000 1410154.81421748 14658.55997898
0.06300000 1401615.31910451 16146.60923102
0.06400000 1392992.22632209 17656.17729435
0.06500000 1384291.59334378 19186.28238124
0.06600000 1375513.77676193 15206.30551358
0.06700000 1366661.07487041 13939.94361605
0.06800000 1357736.16184990 14052.56993293
0.06900000 1348741.87162844 15577.96934665
0.07000000 1339679.13386347 17121.10013253
0.07100000 1330550.98777129 14369.95134099
0.07200000 1321359.56068059 15915.77665400
0.07300000 1312108.59701260 24759.49038575
0.07400000 1302799.18736235 17587.78985363
0.07500000 1293433.72794715 16219.65970871
0.07600000 1284012.87216842 16313.38430568
0.07700000 1274542.81844645 14912.15167503
0.07800000 1265023.10683024 19487.68187462
0.07900000 1255455.97547698 18078.56689482
0.08000000 1245845.75775879 18164.43200024
0.08100000 1236193.64034840 18246.21898762
0.08200000 1226500.88246653 15269.93670325
0.08300000 1216771.12478270 18397.58027015
0.08400000 1207006.34500313 24622.93059383
0.08500000 1197208.77510694 21621.59149346
0.08600000 1187380.55834100 24792.50722221
0.08700000 1177525.41678549 17097.66985459
0.08800000 1167642.68321392 20264.43971887
0.08900000 1157737.81776869 18755.35352879
0.09000000 1147810.85751231 17234.38083514
0.09100000 1137864.89895478 23553.80451495
0.09200000 1127901.34485879 18881.06940010
0.09300000 1117925.52956382 18915.30084909
0.09400000 1107934.16657798 20524.48140046
0.09500000 1097932.99989074 17391.25953571
0.09600000 1087923.71054855 17412.21980584
0.09700000 1077910.16260041 17429.80814867
0.09800000 1067892.34116683 19029.84241433
0.09900000 1057873.12099458 25388.95609772
0.10000000 1047853.40090746 23812.46965546
0.10100000 1037835.57930455 25406.21617628
0.10200000 1027822.74494350 23819.79323446
0.10300000 1017815.76160254 15877.92662791
0.10400000 1007818.34164293 20635.08151592
0.10500000 997832.77508643 20625.20443144
0.10600001 987856.16242351 19026.11058352
0.10700001 977896.63446008 23762.88933561
0.10800001 967952.26209851 15826.02023011
0.10900001 958027.15374048 18968.93853685
0.11000001 948120.99613413 18943.45839442
0.11100001 938237.26924632 18914.86423839
0.11200001 928376.88089025 20456.78553346
0.11300001 918541.90742385 23560.60103467
0.11400001 908734.45624319 21945.93815159
0.11500001 898956.62449932 18770.21520340
0.11600001 889208.91148933 15605.61713153
0.11700001 879494.52777929 18680.46464979
0.11800001 869812.45367135 18631.38363515
0.11900001 860165.98746198 17031.28735395
0.12000001 850555.68088188 23156.37950279
0.12100001 840986.86051705 16929.06629970
0.12200001 831456.40512051 24544.59423548
0.12300001 821969.26899214 21404.08077300
0.12400001 812523.53982268 19805.26221635
0.12500001 803122.29182416 21250.61684301
0.12600001 793768.40416892 16633.41769318
0.12700001 784461.18564275 19580.15211638
0.12800001 775202.65100407 19500.22360504
0.12900001 765994.09015074 20911.63964672
0.13000001 756837.03658505 23794.95755181
0.13100001 747731.36657349 14805.08175603
0.13200001 738680.17604754 14736.67020684
0.13300001 729683.86966443 23466.63435470
0.13400001 720742.39760772 21892.55135947
0.13500001 711859.22526979 18878.50754424
0.13600001 703033.79742430 14447.34521827
0.13700001 694267.62370235 18682.74263478
0.13800001 685559.74555032 21440.88205315
0.13900001 676914.94299149 17058.25736782
0.14000001 668330.98204085 15548.72103047
0.14100001 659810.95848990 15459.37148653
0.14200001 651353.94156532 18163.00551721
0.14300001 642962.59727183 16665.59130736
0.14400001 634633.43346908 16563.93339486
0.14500001 626373.36397012 19204.60824525
0.14600001 618179.12014154 20446.27536322
0.14700001 610053.96128669 16251.83829538
0.14800001 601994.53988258 13454.57860114
0.14900001 594004.89493615 14701.62184330
0.15000001 586084.16722082 15929.76841667
0.15100001 578233.60168240 14502.09941448
0.15200001 570454.74291368 17019.51805793
0.15300001 562746.60225097 18199.22597560
0.15400001 555108.05143924 14196.88908552
0.15500001 547543.10703029 12812.50930917
0.15600001 540048.56258672 13989.95867406
0.15700001 532629.76908437 13885.65873539
0.15800001 525280.45877503 15033.52743970
0.15900001 518007.13535438 13675.38901884
0.16000001 510804.66414766 17270.30651003
0.16100001 503678.55013832 14687.26721533
0.16200001 496625.71714422 12142.49935738
0.16300001 489647.00902530 16863.44378692
0.16400001 482743.36550198 11947.89886023
0.16500001 475913.26045852 14220.28889386
0.16600001 469158.54349063 14102.90648317
0.16700001 462477.57298882 12819.87892854
0.16800001 455871.43199964 13867.60961621
0.16900001 449341.63391146 12604.03342635
0.17000001 442885.10525208 14768.00453197
0.17100001 436503.96804028 15766.52407013
0.17200001 430197.15779481 12279.97844915
0.17300001 423965.34757556 11065.49609428
0.17400001 417808.61700725 13160.97205727
0.17500001 411725.12317861 14130.40689483
0.17600001 405715.02587297 12926.08133480
0.17700001 399781.64032233 11741.58733083
0.17800001 393920.33665187 16922.81846186
0.17900001 388132.33290624 11527.53083180
0.18000001 382419.43958859 11420.95710278
0.18100001 376779.97028869 12343.31240971
0.18200001 371211.02735991 10189.74318237
0.18300001 365715.73952464 16150.00782032
0.18400001 360292.54639854 15996.98981580
0.18500001 354941.74697628 11883.45025016
0.18600001 349662.68872455 11769.64665851
0.18700001 344453.89832135 10684.96043074
0.18800001 339314.58792617 12505.43972885
0.18900001 334249.14210811 9526.10100017
0.19000001 329249.73197500 14149.50790017
0.19100001 324322.43858990 14010.73000909
0.19200001 319462.27269268 11098.11987774
0.19300001 314672.83787710 10988.37601790
0.19400001 309949.56618740 10879.23028726
0.19500001 305294.54128553 14361.05590070
0.19600001 300705.21089088 9774.42334191
0.19700001 296184.57052512 12315.35502443
0.19800001 291728.43247335 13932.95059338
0.19900001 287338.06958505 11206.18524342
0.20000001 283011.07318538 13652.45481569
0.20100001 278749.94892950 10135.34862210
0.20200001 274551.12257111 10032.09849290
0.20300001 270415.79420872 12412.08554083
0.20400001 266343.04732146 11466.06872914
0.20500001 262331.47055895 8106.04282342
0.20600001 258380.78840771 9627.26863113
0.20700001 254490.95042138 9528.14163416
0.20800001 250660.45655798 11001.48795837
0.20900001 246891.45748107 10887.91378960
0.21000001 243177.91850450 7696.58148450
0.21100001 239523.97067165 9140.23515292
0.21200001 235925.79694821 9045.39548261
0.21300001 232384.30576040 11935.25850810
0.21400001 228899.02921003 10334.79165743
0.21500001 225469.84899871 7305.22345293
0.21600001 222093.31583820 7952.05154955
0.21700001 218771.46172762 7869.20985040
0.21800001 215502.61638748 8495.11353965
0.21900001 212285.09857944 8406.49030122
0.22000001 209118.95293151 7625.52297920
0.22100001 206005.16416555 6859.97229108
0.22200001 202941.31663965 7467.22609884
0.22300001 199926.36465677 11419.79448918
0.22400001 196959.50767167 7976.86043790
0.22500001 194043.23675025 9867.09905534
0.22600001 191172.04607067 11716.93525774
0.22700001 188348.85750971 9662.29684717
0.22800001 185570.80249304 8286.66457720
0.22900001 182837.89904112 8200.28015979
0.23000001 180150.00297015 8114.85726756
0.23100001 177507.09740416 6794.97200998
0.23200001 174905.73679859 6724.25136924
0.23300001 172348.07087045 9074.12636049
0.23400001 169830.93757054 6585.19491575
0.23500001 167355.18468111 8294.12334508
0.23600001 164920.32582991 7035.50143266
0.23700001 162525.08709101 6962.57506029
0.23800001 160168.60936098 8613.06737577
0.23900001 157851.02810018 5682.63728039
0.24000001 155570.63520734 6748.65447451
0.24100001 153328.40497695 6122.40350033
0.24200001 151122.72029529 6610.10809839
0.24300001 148952.11835783 6541.97734773
0.24400001 146816.91160967 5395.52175688
0.24500001 144715.77244826 6408.01470714
0.24600001 142648.84193312 7399.19578109
0.24700001 140616.02002987 5230.91619256
0.24800001 138615.53836019 7765.93590401
0.24900001 136645.78325042 7686.32567146
0.25000001 134709.08554148 5578.97704163
0.25100001 132802.38509355 6023.91647283
0.25200001 130927.97861098 6956.20383270
0.25300001 129081.62853994 7868.81644807
0.25400001 127265.58283429 7301.86316058
0.25500001 125476.51920926 5781.95827872
0.25600001 123717.18418444 5723.15721115
0.25700001 121984.41383533 4720.79703878
0.25800001 120278.62097945 5140.10711076
0.25900001 118600.52994304 6013.04715262
0.26000001 116947.33126256 5952.03470623
0.26100001 115319.40968057 4985.25831637
0.26200001 113717.66501570 4934.77830685
0.26300001 112139.04792694 4440.70650803
0.26400001 110585.31408952 4395.76644306
0.26500001 109055.19830161 5656.69340357
0.26600001 107547.61282472 4307.28209745
0.26700001 106063.10183929 5969.23165398
0.26800001 104601.18853095 6330.98723542
0.26900001 103159.99624589 4595.77805023
0.27000001 101740.88515480 5376.49733043
0.27100001 100342.42374133 4503.36819062
0.27200001 98965.15398959  4863.14789719
0.27300001 97607.77848787  5215.18385141
0.27400001 96268.58960588  4765.29541101
0.27500001 94951.11341891  6682.65967868
0.27600001 93650.28853539  5447.63754192
0.27700001 92370.05748252  4237.01473725
0.27800001 91106.81933155  4575.38468337
0.27900001 89862.00616247  6038.72709992
0.28000001 88634.31806123  4856.71768803
0.28100001 87424.02123246  4437.64352779
0.28200001 86231.25522409  4026.56865326
0.28300001 85054.89591134  3985.67261105
0.28400001 83894.15049560  4303.77012413
0.28500001 82750.15321419  3549.98174091
0.28600001 81621.58934014  3513.80958741
0.28700001 80509.24120452  4173.59926159
0.28800001 79410.37417314  5852.14780169
0.28900001 78328.48046776  4088.74687395
0.29000001 77260.07688023  3709.64276700
0.29100001 76206.87670057  5006.79203622
0.29200001 75167.43964168  3964.33095436
0.29300001 74142.30543382  3596.64340685
0.29400001 73130.24663936  3883.21628037
0.29500001 72132.94618502  3843.24355467
0.29600001 71147.72214077  3486.59428856
0.29700001 70176.21720408  4077.94017477
0.29800001 69217.90283154  3725.30770674
0.29900001 68272.67400718  3686.72457091
0.30000001 67338.74230062  3952.44766644
0.30100001 66418.69281500  3309.64361965
0.30200001 65509.57442468  4763.85647769
0.30300001 64613.63168187  3241.01991860
0.30400001 63729.28960601  3498.73816501
0.30500001 62857.18662422  3462.17400317
0.30600001 61995.42967753  4282.33450771
0.30700001 61146.21219159  3672.44167809
0.30800001 60308.10294813  3354.33684478
0.30900001 59481.42732196  2765.88650142
0.31000001 58666.04354314  3284.12527303
0.31100001 57860.94331302  3791.04918536
0.31200001 57067.62073188  3215.18990426
0.31300001 56284.29185088  3976.48540754
0.31400001 55513.15550972  2885.29639423
0.31500001 54750.90996566  3114.23190630
0.31600002 54000.80430450  2824.51220288
0.31700002 53260.26778330  4064.82382968
0.31800002 52529.85919929  2764.90926987
0.31900002 51810.41444098  2984.28001310
0.32000002 51101.42213044  2952.64031050
0.32100002 50401.69825600  3895.04342565
0.32200002 49713.19745309  2649.46498372
0.32300002 49033.16777364  2859.61447996
0.32400002 48364.44141284  3065.09661968
0.32500002 47704.81038754  2332.76533841
0.32600002 47055.14838279  2308.05513747
0.32700002 46415.58371245  2740.37619215
0.32800002 45786.50640264  3615.30271675
0.32900002 45165.08705781  2682.80629827
0.33000002 44554.74582957  3318.21485279
0.33100002 43952.82919133  2407.73609712
0.33200002 43362.02854958  3465.49348579
0.33300002 42779.78232924  3429.22751390
0.33400002 42207.44837154  2333.01681922
0.33500002 41644.39966518  2518.65341102
0.33600002 41090.30851748  2284.82671332
0.33700002 40545.44189110  3289.04640197
0.33800002 40010.75120435  3051.82019264
0.33900002 39484.47761933  2416.45014474
0.34000002 38967.50244313  3587.73811985
0.34100002 38460.00685252  2762.19782296
0.34200002 37962.16189696  1953.15332210
0.34300002 37472.64463014  2126.94740994
0.34400002 36992.92568739  2297.26079398
0.34500002 36521.98637093  2653.68765539
0.34600002 36060.66439912  2252.34920504
0.34700002 35607.02644932  2416.29292929
0.34800002 35163.35477579  1840.80170970
0.34900002 34728.07781247  2187.86900581
0.35000002 34302.14135316  2347.81017611
0.35100002 33885.59263102  1968.07531322
0.35200002 33476.36903534  3190.63288388
0.35300002 33077.13174470  2107.67493460
0.35400002 32686.04525454  2610.79798836
0.35500002 32303.95960352  1897.53467699
0.35600002 31930.33066924  2051.84314599
0.35700002 31565.12501903  2203.56148195
0.35800002 31209.01429386  1848.66604926
0.35900002 30861.83713200  2166.50106928
0.36000002 30522.83232490  2809.77946276
0.36100002 30191.76710070  2295.17824371
0.36200002 29870.59653974  1951.74487035
0.36300002 29556.35847246  1775.15497394
0.36400002 29251.00327571  1921.79100624
0.36500002 28953.27586223  2225.34888818
0.36600002 28664.58312681  1735.78391346
0.36700002 28383.59551208  1880.12945578
0.36800002 28111.38718645  1867.15842537
0.36900002 27847.04704334  2009.16453935
0.37000002 27590.12905005  1688.92982980
0.37100002 27341.21687873  1678.20397151
0.37200002 27100.92693470  1819.55632059
0.37300002 26868.02285526  2562.40346109
0.37400002 26642.75560946  2547.71362584
0.37500002 26425.41960076  1937.51185691
0.37600002 26215.95021679  1779.01446599
0.37700002 26013.86066059  1622.48456626
0.37800002 25819.13445404  2054.94500854
0.37900002 25632.75830356  1753.28075102
0.38000002 25452.87325990  1745.55813086
0.38100002 25279.69705063  2027.93739347
0.38200002 25114.88198265  2019.99005356
0.38300002 24956.58000275  1437.49907626
0.38400002 24805.61603788  2148.78659108
0.38500002 24660.97915355  1713.44491276
0.38600002 24524.29490966  1993.08954173
0.38700002 24393.44575807  1845.60819349
0.38800002 24269.31834344  1982.56070940
0.38900002 24151.86154417  1554.17236400
0.39000002 24041.62616557  1551.04558555
0.39100002 23936.83433159  1688.98311046
0.39200002 23839.29281451  1405.32637799
0.39300002 23747.21503808  1824.49861781
0.39400002 23662.61367914  1402.00992691
0.39500002 23582.61066906  1680.96856813
0.39600002 23508.94293364  1679.94914163
0.39700002 23440.61005758  2099.10673011
0.39800002 23379.20066289  1539.16974857
0.39900002 23322.23941521  2238.93508994
0.40000002 23271.36707135  2099.65919349
0.40100002 23225.41852940  2520.88704662
0.40200002 23185.36166121  2382.64380400
0.40300002 23150.27887116  1543.19766267
0.40400002 23120.34148079  1825.92905496
0.40500002 23094.88801434  1406.47874671
0.40600002 23075.17481854  1690.48738730
0.40700002 23059.73347738  1834.63248239
0.40800002 23048.72121592  1696.84693631
0.40900002 23042.05731129  1558.79525097
0.41000002 23040.45697253  2272.71078346
0.41100002 23042.84921839  1566.45296409
0.41200002 23048.47899872  1713.42400995
0.41300002 23059.68678253  1718.40794046
0.41400002 23073.87566114  1579.98371076
0.41500002 23091.97532778  1873.22112735
0.41600002 23112.72497789  2457.69172698
0.41700002 23138.63008501  1740.95061009
0.41800002 23168.29982124  2184.19156914
0.41900002 23199.47636935  1900.03720468
0.42000002 23234.40255584  2054.15362730
0.42100002 23273.32236025  1620.52151273
0.42200002 23314.63964047  1627.24535081
0.42300002 23358.49646857  1782.72053496
0.42400002 23404.98601094  1641.27472179
0.42500002 23454.70251632  2398.00889890
0.42600002 23505.65402321  2107.75209614
0.42700002 23560.06787136  1512.55642902
0.42800002 23616.06148766  1975.60171737
0.42900002 23675.11169150  1832.45373176
0.43000002 23735.85797623  1687.97561997
0.43100002 23797.04649479  2004.66329172
0.43200002 23861.30028443  1704.77067961
0.43300002 23926.44993321  2180.65675025
0.43400002 23993.67473150  1878.70482051
0.43500002 24061.77112985  1573.63990646
0.43600002 24131.80915768  1898.20819830
0.43700002 24202.35443955  1908.11371444
0.43800002 24273.50845679  1758.25166839
0.43900002 24346.67600359  1606.88069239
0.44000002 24419.91318198  1776.91506689
0.44100002 24494.22284747  1786.36375692
0.44200002 24569.01822031  2122.39473954
0.44300002 24644.42559425  1969.58258683
0.44400002 24720.03758130  2310.08762145
0.44500002 24795.51090662  1824.70173409
0.44600002 24870.99848841  2001.12063321
0.44700002 24947.74898303  2011.78657333
0.44800002 25023.09355234  1685.30543062
0.44900002 25099.17455827  2033.03323557
0.45000002 25175.25616923  2214.03800873
0.45100002 25250.11707240  1711.95801864
0.45200002 25325.03116365  2237.08673386
0.45300002 25398.87345621  1902.62970078
0.45400002 25472.55379829  2086.20225495
0.45500002 25545.77674772  1922.06433359
0.45600002 25617.61531936  1756.08761337
0.45700002 25689.06423383  2647.25819476
0.45800002 25759.10684371  1950.86604927
0.45900002 25828.00140005  2494.98505349
0.46000002 25896.34236797  2327.95180750
0.46100002 25962.60543584  1979.12950617
0.46200002 26028.16623215  1807.65623050
0.46300002 26092.50221001  2360.84971185
0.46400002 26154.66951633  2006.71711375
0.46500002 26216.47638609  4214.82310835
0.46600002 26275.59759387  2944.96911790
0.46700002 26333.10711279  2033.44262763
0.46800002 26389.74237674  2599.12584987
0.46900002 26443.72329052  2237.13909641
0.47000002 26496.11854843  2246.34103700
0.47100002 26546.83519500  1879.51602089
0.47200002 26595.67264625  2830.44459553
0.47300002 26642.46316536  2462.56298709
0.47400002 26686.50222856  2091.55471130
0.47500002 26728.95090987  2671.82605959
0.47600002 26769.92531778  2490.00472145
0.47700002 26807.54601675  2306.52136861
