# SAXS profile: number of points = 501, q_min = 0, q_max = 0.5, delta_q = 0.001
#    q    intensity    error
0.00000000 1682732.95097188 328.13292544
0.00100000 1682650.30751163 605.75412509
0.00200000 1682402.31625400 1211.32970606
0.00300000 1681989.20167381 1311.95162404
0.00400000 1681410.83400210 1639.37562544
0.00500000 1680667.74123440 2117.64143777
0.00600000 1679759.80878524 2469.24701944
0.00700000 1678687.59655586 2820.19527942
0.00800000 1677450.95419983 2491.01477216
0.00900000 1676051.12347882 3268.29983050
0.01000000 1674487.44359713 3039.19484136
0.01100000 1672761.26861486 3010.97041460
0.01200000 1670872.48115620 3584.02162922
0.01300000 1668822.23256003 4205.43221153
0.01400000 1666610.62619483 4499.84889021
0.01500000 1664238.96895129 4393.59107367
0.01600000 1661706.81627399 5084.82308511
0.01700000 1659016.32580802 4927.27870868
0.01800000 1656167.45519530 5192.08520567
0.01900000 1653160.99893187 5951.37986470
0.02000000 1649998.04585203 7276.49171136
0.02100000 1646680.58928454 7607.66466741
0.02200000 1643207.29838313 7936.69161177
0.02300000 1639581.35203738 8853.73970401
0.02400000 1635802.36038159 11655.09234916
0.02500000 1631872.81715958 7000.73470534
0.02600000 1627792.68139740 8570.32885955
0.02700000 1623564.30793953 8864.66152736
0.02800000 1619187.23330055 8452.15774544
0.02900000 1614664.38600535 10898.98510595
0.03000000 1609996.79514914 9732.43107403
0.03100000 1605185.08744687 9245.86652913
0.03200000 1600230.56285610 11089.59831136
0.03300000 1595137.12379263 9762.23964765
0.03400000 1589902.83575735 10016.38832743
0.03500000 1584531.10825783 10267.76205566
0.03600000 1579023.04083800 10516.29393798
0.03700000 1573380.47091423 10761.92291877
0.03800000 1567605.18148474 12838.68703053
0.03900000 1561698.94214213 11244.23290414
0.04000000 1555661.72979920 9567.32008160
0.04100000 1549497.75436024 11714.20356611
0.04200000 1543207.62471313 9953.68964118
0.04300000 1536792.34080668 10142.82992013
0.04400000 1530255.60280827 13427.99353826
0.04500000 1523598.57870594 14717.96295417
0.04600000 1516821.41587020 12832.30977480
0.04700000 1509928.27482482 15220.07771809
0.04800000 1502919.83390398 14360.39968111
0.04900000 1495799.75151533 13462.19839027
0.05000000 1488567.67684730 11387.54325816
0.05100000 1481228.07046478 17330.36923176
0.05200000 1473779.29234078 14059.85510414
0.05300000 1466227.62578590 11876.44432252
0.05400000 1458572.89411592 13236.54963137
0.05500000 1450817.59507353 18280.30255069
0.05600000 1442962.95471957 17272.26737399
0.05700000 1435014.27587594 14981.54973946
0.05800000 1426970.14292862 13891.55499004
0.05900000 1418833.47129045 16600.35238943
0.06000000 1410607.99345871 14197.77011746
0.06100000 1402294.84001000 14345.47688369
0.06200000 1393896.84019566 15806.79090668
0.06300000 1385416.46321525 17289.99826933
0.06400000 1376853.08488214 17451.61366704
0.06500000 1368212.68706351 16254.36748266
0.06600000 1359496.03536945 17761.81653315
0.06700000 1350704.98690146 19288.06811561
0.06800000 1341842.49338020 16665.68454789
0.06900000 1332911.35851600 16794.68390361
0.07000000 1323912.37480802 18329.56768756
0.07100000 1314848.80506518 18460.47808776
0.07200000 1305722.57875600 15727.42919790
0.07300000 1296537.11918883 17269.87523679
0.07400000 1287294.11798467 18826.67735782
0.07500000 1277995.60271966 18939.89572007
0.07600000 1268642.48837795 19048.66785601
0.07700000 1259240.44974591 20626.35953398
0.07800000 1249789.42840690 19253.00704750
0.07900000 1240291.51626349 20836.89845055
0.08000000 1230751.34237120 14953.62951130
0.08100000 1221169.39105468 24032.61474352
0.08200000 1211547.48440255 16592.14357748
0.08300000 1201889.42801153 15143.80750367
0.08400000 1192196.48940118 15200.50595336
0.08500000 1182471.45653658 18304.65900650
0.08600000 1172716.21330493 16834.34203239
0.08700000 1162934.27854158 16885.80651734
0.08800000 1153125.40948034 21551.91491535
0.08900000 1143295.11988594 16977.93332775
0.09000000 1133442.77479350 23207.24190407
0.09100000 1123572.05151476 15505.29503936
0.09200000 1113684.04023681 18643.07170954
0.09300000 1103784.40215115 18676.03296202
0.09400000 1093869.36535805 20263.93094561
0.09500000 1083945.13922596 21852.33503391
0.09600000 1074012.85220753 25003.02037473
0.09700000 1064076.86891007 23462.89606252
0.09800000 1054136.98407117 21915.50892926
0.09900000 1044195.98477917 20361.82266066
0.10000000 1034254.83780704 17235.85768261
0.10100000 1024315.85829582 20373.64337971
0.10200000 1014382.29842075 20373.86942209
0.10300000 1004455.01935970 17236.44894303
0.10400000 994537.28998481 17230.35935959
0.10500000 984631.56340281 20352.33537310
0.10600001 974735.29999523 17208.95253116
0.10700001 964856.32398099 21882.94245765
0.10800001 954992.62139374 21859.78213246
0.10900001 945148.53584268 17154.44673293
0.11000001 935323.60517089 21802.39426276
0.11100001 925521.01762790 17103.62921089
0.11200001 915742.32056727 17074.01637077
0.11300001 905988.88964745 18590.89289084
0.11400001 896263.50319192 21644.76462122
0.11500001 886567.55043785 18511.53132481
0.11600001 876902.08206417 23084.44839742
0.11700001 867270.14343824 16885.75048798
0.11800001 857670.46052567 18371.30212972
0.11900001 848106.57988109 22898.87873536
0.12000001 838578.88666060 15220.20750984
0.12100001 829092.68397506 18206.87619778
0.12200001 819645.25016411 18146.94669356
0.12300001 810240.71913891 15070.47808602
0.12400001 800877.96700835 18019.75510673
0.12500001 791559.62192020 20944.66858293
0.12600001 782288.75217250 19373.38186049
0.12700001 773064.64131562 17811.41017530
0.12800001 763888.68861173 16259.37150339
0.12900001 754763.26583953 19133.24969082
0.13000001 745689.22664431 21979.19099133
0.13100001 736666.76872906 17503.20325006
0.13200001 727698.24185941 17421.09673135
0.13300001 718784.65930237 14447.57233308
0.13400001 709926.27047652 17251.20918590
0.13500001 701125.63160430 14302.96355909
0.13600001 692382.94303041 17074.16418019
0.13700001 683699.39443484 25474.64063785
0.13800001 675074.06939190 19705.41301477
0.13900001 666511.44727630 15396.41515815
0.14000001 658009.62048721 23658.73702038
0.14100001 649571.63285148 16603.05171873
0.14200001 641196.62518016 13753.66825881
0.14300001 632887.26057000 13670.36547311
0.14400001 624639.75325049 14944.50680145
0.14500001 616461.09085507 14850.54837923
0.14600001 608348.31277908 13414.08092958
0.14700001 600304.06365027 18657.45117844
0.14800001 592325.51179504 19857.71371979
0.14900001 584416.64930793 13149.37522983
0.15000001 576576.50831915 14365.40438257
0.15100001 568806.13202118 18156.29259082
0.15200001 561107.09549940 14165.14929429
0.15300001 553478.82772299 17899.50613322
0.15400001 545919.91228310 15231.16627147
0.15500001 538434.22538516 13859.29761548
0.15600001 531018.75096950 12505.49217553
0.15700001 523678.68451060 16134.54103127
0.15800001 516408.03215407 18474.49822228
0.15900001 509212.76662747 15887.43906867
0.16000001 502088.21611490 13337.97409068
0.16100001 495039.69147633 13232.41157779
0.16200001 488064.40042498 14319.81018445
0.16300001 481162.50183285 15387.57753503
0.16400001 474335.39693790 12913.78179129
0.16500001 467581.55007815 15135.61549060
0.16600001 460902.71699108 11545.61360573
0.16700001 454297.45490458 12593.12604454
0.16800001 447766.67363363 13621.06285507
0.16900001 441311.65398326 14629.48202032
0.17000001 434929.45992477 12271.53529124
0.17100001 428622.57209441 13270.15545868
0.17200001 422389.63377879 12057.11266559
0.17300001 416230.86637431 11949.98873794
0.17400001 410147.18515088 13996.27335426
0.17500001 404136.33278791 17070.71950317
0.17600001 398198.25562193 14801.02986051
0.17700001 392336.81788611 11522.93288555
0.17800001 386546.76633110 11416.65928282
0.17900001 380829.85142840 12338.88776909
0.18000001 375187.17369530 11204.96547168
0.18100001 369617.83083941 11099.62398441
0.18200001 364118.56670509 11994.06615384
0.18300001 358692.29432314 9899.90779098
0.18400001 353338.01629921 9805.13041550
0.18500001 348055.33274965 10681.81866672
0.18600001 342844.06577870 12501.80944925
0.18700001 337702.80594359 12380.18545079
0.18800001 332630.45607295 10373.08126272
0.18900001 327631.41884235 10271.24546600
0.19000001 322697.87460253 10169.82399861
0.19100001 317836.13218028 10069.04914323
0.19200001 313041.11229551 10875.04875501
0.19300001 308316.03511666 9869.19675043
0.19400001 303656.69955301 9770.15476980
0.19500001 299065.18047907 11430.27173805
0.19600001 294539.13294835 13055.44768489
0.19700001 290080.97127425 12061.56735558
0.19800001 285687.00888052 10233.30914171
0.19900001 281358.14977238 9284.81938129
0.20000001 277092.14163249 12531.49269758
0.20100001 272891.58734763 10749.20013366
0.20200001 268752.88924967 9001.87845088
0.20300001 264677.12755058 9718.94458302
0.20400001 260663.47015814 9618.48250346
0.20500001 256710.45445076 11898.53012620
0.20600001 252817.74465383 8634.99047681
0.20700001 248985.40819566 11652.51765436
0.20800001 245212.00929587 9224.87622577
0.20900001 241499.44987400 7607.23303063
0.21000001 237841.95964423 11291.54756789
0.21100001 234243.50469210 7448.94380135
0.21200001 230700.07697119 8107.95458845
0.21300001 227213.08165377 7293.54026589
0.21400001 223781.66806525 8660.35096356
0.21500001 220405.92119211 7855.26740266
0.21600001 217082.28890971 9185.83748951
0.21700001 213812.75788943 8390.01301626
0.21800001 210595.62232941 11068.90643298
0.21900001 207429.58123749 9583.24710628
0.22000001 204314.09580088 6773.01259604
0.22100001 201250.75867141 8712.14575483
0.22200001 198236.56809677 9283.41892293
0.22300001 195270.74623280 6561.09738367
0.22400001 192352.75856965 6491.90590870
0.22500001 189484.56965441 8350.58537955
0.22600001 186661.14408039 7626.97470779
0.22700001 183885.18621494 8175.53576573
0.22800001 181153.80416030 8089.42350733
0.22900001 178466.92875945 7388.53120005
0.23000001 175824.63653091 7310.78873270
0.23100001 173226.97972515 8439.61885134
0.23200001 170670.19091091 7157.90814533
0.23300001 168156.59149054 6492.52630451
0.23400001 165683.34100961 6424.37185149
0.23500001 163250.55706106 6934.88399195
0.23600001 160858.34787915 6862.21744509
0.23700001 158505.30290941 7922.09541411
0.23800001 156190.55545434 5599.43167788
0.23900001 153914.12472583 7203.18137788
0.24000001 151674.32426113 6579.63249767
0.24100001 149472.26079059 8138.76498502
0.24200001 147306.31443847 7517.04158137
0.24300001 145174.93661462 6376.08351772
0.24400001 143078.48074326 5783.94785765
0.24500001 141015.70322420 7805.21954268
0.24600001 138986.66860395 5149.45631537
0.24700001 136991.10002725 6115.28299451
0.24800001 135027.43039104 6051.92971642
0.24900001 133094.21995740 5490.13683297
0.25000001 131193.47450949 6421.26491365
0.25100001 129322.26052196 5866.05801479
0.25200001 127482.91882510 4837.97699830
0.25300001 125671.26623225 5745.69056397
0.25400001 123889.40392399 8529.78586372
0.25500001 122134.17882319 5158.94795757
0.25600001 120408.10207299 5105.90580998
0.25700001 118708.10383932 4594.00383594
0.25800001 117034.92001327 6365.52960070
0.25900001 115388.75178229 5400.19383892
0.26000001 113767.18199208 5344.78246288
0.26100001 112170.49608133 4408.30070458
0.26200001 110599.60706351 5672.10111664
0.26300001 109051.25711537 4318.42998611
0.26400001 107527.69683785 5556.49399702
0.26500001 106027.17227983 4653.53281156
0.26600001 104548.74301400 4187.17735585
0.26700001 103093.04483888 4973.20871836
0.26800001 101659.50106092 4512.15716811
0.26900001 100246.46968299 4871.97865714
0.27000001 98855.08748258  4822.15139559
0.27100001 97483.88418614  5568.27972822
0.27200001 96133.61312083  5117.67313667
0.27300001 94802.73360747  5065.31029636
0.27400001 93490.00800555  5784.69451910
0.27500001 92198.26148313  4198.70902665
0.27600001 90923.01638506  5666.77726438
0.27700001 89667.94117669  5234.81465364
0.27800001 88429.67340203  3700.78200702
0.27900001 87209.37835123  4029.07347051
0.28000001 86005.94986347  5075.21134165
0.28100001 84819.65852975  3946.65889818
0.28200001 83650.44193093  3550.96142803
0.28300001 82497.40051601  6677.33991381
0.28400001 81359.61701145  4173.74855023
0.28500001 80238.23084668  4130.66431950
0.28600001 79132.10827395  3747.30116468
0.28700001 78041.83232660  4382.82951091
0.28800001 76964.81306206  4337.35224541
0.28900001 75904.34227410  3962.20685425
0.29000001 74857.36316570  4247.78127390
0.29100001 73825.11029342  3556.89398230
0.29200001 72806.42076285  3199.84234399
0.29300001 71801.75350253  4116.39472315
0.29400001 70809.85249702  3760.00334558
0.29500001 69832.55037492  3720.67846010
0.29600001 68867.05653679  5215.64677371
0.29700001 67915.03027410  4553.70299544
0.29800001 66975.95862841  3003.87188668
0.29900001 66049.70444984  3269.46052504
0.30000001 65134.81959389  4411.25586582
0.30100001 64233.15282472  3200.73815678
0.30200001 63342.49947486  3742.59175865
0.30300001 62464.63316055  3418.06488836
0.30400001 61598.24702389  3099.93192823
0.30500001 60743.86636830  3345.77231796
0.30600001 59899.75974134  2758.38406668
0.30700001 59067.95558709  3001.83364505
0.30800001 58246.96984412  2969.72189810
0.30900001 57437.25542412  2937.91575404
0.31000001 56638.65127796  3170.63184865
0.31100001 55850.18298941  2875.16755642
0.31200001 55073.41006889  3102.83607019
0.31300001 54306.38571021  3069.39706567
0.31400001 53551.43226508  2783.33582376
0.31500001 52805.30335179  2753.26864712
0.31600002 52071.03824043  3466.36917979
0.31700002 51346.19280710  3183.97756672
0.31800002 50631.42426302  3634.07064855
0.31900002 49927.41954965  2396.51625186
0.32000002 49233.53420227  3318.83269772
0.32100002 48549.17172959  2813.91012669
0.32200002 47875.81733372  3247.41684351
0.32300002 47210.59355420  2982.76544199
0.32400002 46556.56376312  4539.26518184
0.32500002 45911.79245202  2694.10410866
0.32600002 45276.85112131  2664.99558319
0.32700002 44651.70019568  2196.86375365
0.32800002 44037.06586814  2390.55223385
0.32900002 43429.93258821  2579.73811790
0.33000002 42833.74466244  2339.36507552
0.33100002 42245.98382489  2314.23510352
0.33200002 41669.27635382  3330.20872390
0.33300002 41101.00342665  2676.90847994
0.33400002 40542.73958952  2037.27276085
0.33500002 39993.33492406  2620.36342831
0.33600002 39453.01770439  2193.78515334
0.33700002 38921.91236670  2170.67515549
0.33800002 38400.72032243  2147.94439296
0.33900002 37888.04419715  2705.20648379
0.34000002 37384.56275494  2485.88661812
0.34100002 36890.43333090  3406.46277510
0.34200002 36406.03710694  2809.63604679
0.34300002 35929.92653162  1853.98429684
0.34400002 35463.52164573  2569.33226492
0.34500002 35005.79565385  2180.16105657
0.34600002 34557.64301928  1978.59794478
0.34700002 34117.17839632  1959.00847630
0.34800002 33686.63501984  2116.19451217
0.34900002 33264.45884660  1746.38417216
0.35000002 32851.63304409  1729.63856169
0.35100002 32448.12805196  2398.56573920
0.35200002 32051.88617779  1866.86219885
0.35300002 31665.74084178  2185.88619384
0.35400002 31287.63809953  1666.06680771
0.35500002 30918.63291348  2641.68812125
0.35600002 30557.73659784  1636.36687232
0.35700002 30205.55460815  2270.85370300
0.35800002 29862.28905557  2090.50964435
0.35900002 29528.03366004  1753.96528248
0.36000002 29201.93837832  1897.54204570
0.36100002 28883.63884875  1568.38166378
0.36200002 28575.37537378  2022.70804164
0.36300002 28273.96564660  2006.88617666
0.36400002 27981.56269461  1838.38875612
0.36500002 27696.59068633  1520.54290070
0.36600002 27420.82378508  1660.46806296
0.36700002 27152.61495698  1498.82441662
0.36800002 26893.27678673  2232.81441098
0.36900002 26641.83651672  1478.62199672
0.37000002 26397.74910138  1762.84176850
0.37100002 26161.68455758  1897.76868770
0.37200002 25934.26067467  2321.63512557
0.37300002 25714.23114933  2163.85265372
0.37400002 25501.79095854  1721.37097124
0.37500002 25297.35409270  1854.80208994
0.37600002 25100.79144536  1703.33978817
0.37700002 24911.59711731  2259.98019754
0.37800002 24729.76996073  1546.47623775
0.37900002 24556.34954967  1959.59678689
0.38000002 24389.31174965  1812.00400228
0.38100002 24229.03457164  1943.65324541
0.38200002 24077.18897142  1521.55802913
0.38300002 23931.68107703  1378.46489534
0.38400002 23793.73209675  1648.90571242
0.38500002 23662.07945182  1918.04825123
0.38600002 23538.35413614  1776.32197904
0.38700002 23420.51719418  1635.68899833
0.38800002 23309.41953786  1904.14657226
0.38900002 23204.93637550  1357.48884228
0.39000002 23107.66369864  1490.79099415
0.39100002 23015.92193108  1353.33627366
0.39200002 22931.33000905  1757.34255850
0.39300002 22852.28315752  1485.62699845
0.39400002 22780.63935988  1754.67882983
0.39500002 22713.75479549  1484.11680865
0.39600002 22653.11902689  1483.89263216
0.39700002 22597.80423212  1349.08897657
0.39800002 22549.42682043  1349.58325914
0.39900002 22505.54489506  1485.36603345
0.40000002 22467.72322565  1621.72033926
0.40100002 22434.79566261  1893.94553957
0.40200002 22407.84278463  2167.28665681
0.40300002 22385.72905472  1492.23276949
0.40400002 22368.84376832  1494.79805564
0.40500002 22356.46286931  1497.65951857
0.40600002 22349.82672098  2183.13117754
0.40700002 22347.37234862  1641.19110304
0.40800002 22349.43750989  1508.25186182
0.40900002 22355.79978500  2199.81080307
0.41000002 22367.11604292  2068.39915407
0.41100002 22382.48709019  1798.20909803
0.41200002 22401.12585223  1665.29977476
0.41300002 22425.27483452  1671.13155985
0.41400002 22452.43374530  2096.49610031
0.41500002 22483.50889178  1543.26812346
0.41600002 22517.23415174  1690.14367551
0.41700002 22556.09986674  1414.26752866
0.41800002 22598.55800501  1420.31943792
0.41900002 22642.59716733  1711.78042696
0.42000002 22690.34954789  1719.47477022
0.42100002 22742.04866605  2015.40044828
0.42200002 22796.21894224  1591.06217647
0.42300002 22852.80462111  2325.50150844
0.42400002 22912.09246782  1606.71056044
0.42500002 22974.49181920  1761.68411618
0.42600002 23038.07805643  2213.38345415
0.42700002 23105.13847227  2076.68994429
0.42800002 23173.70344176  2236.84183071
0.42900002 23245.31349110  1799.18734947
0.43000002 23318.54294163  1507.54387261
0.43100002 23392.23145836  1970.56167143
0.43200002 23468.89988053  1676.73563142
0.43300002 23546.45511858  1992.73659112
0.43400002 23626.05636204  2620.72042615
0.43500002 23706.36238926  2015.51502585
0.43600002 23788.69429733  2027.15368061
0.43700002 23871.35213493  2195.68707342
0.43800002 23954.69001984  2208.38297758
0.43900002 24039.85908029  2221.28308428
0.44000002 24125.20292410  1755.47047396
0.44100002 24211.46406020  2086.78618624
0.44200002 24298.11624909  1614.60990127
0.44300002 24385.40741751  1624.06821097
0.44400002 24472.75382960  1960.26767465
0.44500002 24559.94813695  2135.97879070
0.44600002 24647.08088791  2148.36290741
0.44700002 24735.32433861  1828.43526176
0.44800002 24822.21838679  2842.02002888
0.44900002 24909.60812122  1681.39862787
0.45000002 24997.03836842  2029.25967092
0.45100002 25083.17277297  2721.02271137
0.45200002 25169.20740992  1881.27249701
0.45300002 25254.27911928  2751.70638325
0.45400002 25338.86847979  2075.25342685
0.45500002 25422.97952796  2434.50463498
0.45600002 25505.69868933  2622.62359203
0.45700002 25587.91928893  1933.67915231
0.45800002 25668.54099530  3004.37452318
0.45900002 25748.11842980  1954.28228144
0.46000002 25826.85902658  2321.70560223
0.46100002 25903.54556171  1974.62737176
0.46200002 25979.43461980  1984.69900184
0.46300002 26053.85330534  2176.01793119
0.46400002 26126.10716717  2186.75527353
0.46500002 26197.89379994  2929.97258145
0.46600002 26266.87388351  2207.99352330
0.46700002 26334.20256313  2218.39332906
0.46800002 26400.49364851  2600.18474268
0.46900002 26464.11043056  2052.29186116
0.47000002 26525.89377363  2061.45993232
0.47100002 26585.92292667  2258.74011891
0.47200002 26644.03108742  2268.47291430
0.47300002 26699.90255749  2088.19947800
0.47400002 26752.93456974  2096.76134628
0.47500002 26804.28348205  2296.59111760
0.47600002 26854.07450116  1921.40912163
0.47700002 26900.30603415  2507.37764429
