# SAXS profile: number of points = 501, q_min = 0, q_max = 0.5, delta_q = 0.001
#    q    intensity    error
0.00000000 1700912.83420644 306.16431016
0.00100000 1700829.73756173 918.44808010
0.00200000 1700580.39435241 841.78732186
0.00300000 1700165.02080755 1530.14857324
0.00400000 1699583.47378619 1402.15641915
0.00500000 1698836.32129333 1987.63857459
0.00600000 1697923.41985358 2139.38359611
0.00700000 1696845.33382903 2443.45738226
0.00800000 1695601.90690110 2746.87520515
0.00900000 1694194.41556709 2795.42090518
0.01000000 1692622.14629520 4189.23999297
0.01100000 1690886.50771572 3956.67460033
0.01200000 1688987.33259437 4610.93562014
0.01300000 1686925.82536344 4605.30770636
0.01400000 1684702.06989365 4548.69579036
0.01500000 1682317.35567937 4441.31801676
0.01600000 1679771.23696088 4711.75853031
0.01700000 1677065.91115829 6339.30942855
0.01800000 1674201.31794942 4771.47397086
0.01900000 1671178.29189591 5013.53510191
0.02000000 1667997.82150395 5779.61271296
0.02100000 1664661.99975414 7690.73878755
0.02200000 1661169.49075311 7450.34550451
0.02300000 1657523.44461902 7160.50160669
0.02400000 1653723.43919648 11162.63372356
0.02500000 1649772.08501229 7077.52256794
0.02600000 1645669.22848355 7997.95281624
0.02700000 1641417.17268978 8962.13817336
0.02800000 1637015.65187963 9257.32393592
0.02900000 1632467.55369831 8815.32519472
0.03000000 1627773.80310981 8326.06338562
0.03100000 1622935.04308045 10127.11513480
0.03200000 1617952.75923814 9610.63983252
0.03300000 1612830.62682956 9047.98023363
0.03400000 1607566.76837841 12659.58888510
0.03500000 1602164.67185358 12977.53444129
0.03600000 1596625.36746712 10633.52543875
0.03700000 1590950.83777236 16323.15635045
0.03800000 1585142.64875696 14836.93587901
0.03900000 1579202.78997595 15160.34748585
0.04000000 1573131.12063047 11609.70820823
0.04100000 1566931.83572527 12833.17232962
0.04200000 1560605.64996235 15098.86036387
0.04300000 1554153.54250946 11283.15524236
0.04400000 1547579.08334896 12535.39115729
0.04500000 1540883.59316502 14884.93620160
0.04600000 1534067.11619782 10815.17367196
0.04700000 1527134.08864262 12094.90254456
0.04800000 1520084.73959154 13407.14802701
0.04900000 1512923.16508991 12481.61669298
0.05000000 1505648.76503682 13821.85630667
0.05100000 1498266.18771890 15192.41985119
0.05200000 1490773.51054578 17777.47494171
0.05300000 1483177.30570423 19221.97877801
0.05400000 1475477.24219797 13389.95659737
0.05500000 1467675.89022615 20958.41269012
0.05600000 1459774.60438719 14977.28813992
0.05700000 1451778.35381564 13893.51949454
0.05800000 1443685.97138922 19164.93216505
0.05900000 1435500.41065643 12919.50429932
0.06000000 1427225.35341438 14365.02385323
0.06100000 1418862.06000059 19793.12666197
0.06200000 1410413.01628804 14661.24398963
0.06300000 1401880.80203264 13458.05632875
0.06400000 1393265.13370427 13584.33568891
0.06500000 1384571.85440294 20560.89299968
0.06600000 1375801.46754136 19357.52755402
0.06700000 1366956.24118535 13942.95431261
0.06800000 1358038.82092530 16866.84294541
0.06900000 1349052.11904876 21247.57186981
0.07000000 1339996.85655116 15698.06390961
0.07100000 1330876.38583980 18685.50533238
0.07200000 1321692.62182163 15919.78837563
0.07300000 1312449.10763154 20395.46008824
0.07400000 1303147.50025867 17592.49207795
0.07500000 1293789.76060191 17699.04475463
0.07600000 1284376.70774362 16318.00683688
0.07700000 1274914.29654541 20883.09715659
0.07800000 1265402.25622807 16494.51918346
0.07900000 1255842.86558024 19591.14962195
0.08000000 1246240.39557129 16656.00366816
0.08100000 1236595.88110268 21294.18207167
0.08200000 1226910.81902942 16802.54445507
0.08300000 1217188.86090444 19937.55447732
0.08400000 1207431.83460843 23092.13492080
0.08500000 1197641.85672707 18539.49681247
0.08600000 1187821.31903317 18601.28272942
0.08700000 1177973.74046361 21768.95574599
0.08800000 1168098.73240297 18712.94257193
0.08900000 1158201.42567762 28144.29596590
0.09000000 1148282.07894578 18808.86133669
0.09100000 1138343.62052903 18850.97124160
0.09200000 1128387.44900322 22037.40791450
0.09300000 1118419.17478669 17346.68221610
0.09400000 1108435.14713181 17374.72174786
0.09500000 1098441.33311753 15817.55594036
0.09600000 1088439.29374096 19004.15096206
0.09700000 1078433.15709395 17438.26497003
0.09800000 1068422.50078605 20625.89734746
0.09900000 1058410.39350980 15876.15664918
0.10000000 1048397.72575118 28589.80732573
0.10100000 1038386.95860789 23830.98182086
0.10200000 1028381.07765380 15888.48839709
0.10300000 1018381.04101637 19064.09398462
0.10400000 1008390.45258127 17470.36541287
0.10500000 998411.53514456 17462.21857126
0.10600001 988441.50216601 22210.28159874
0.10700001 978488.58296687 17436.66736900
0.10800001 968550.56659065 20586.54326172
0.10900001 958631.84161359 20562.65397041
0.11000001 948732.05768744 17376.02845443
0.11100001 938854.54001896 17350.03271627
0.11200001 929000.19634698 18895.86488326
0.11300001 919171.17988439 15717.82791603
0.11400001 909369.68778340 17255.29063815
0.11500001 899597.69496018 17218.30069231
0.11600001 889855.51683088 17178.66156139
0.11700001 880146.93246175 17136.46158207
0.11800001 870470.26208272 23306.84236498
0.11900001 860829.11581785 21692.89474038
0.12000001 851224.08343540 18539.66141053
0.12100001 841660.34006937 23103.57742327
0.12200001 832134.90210717 16888.17863389
0.12300001 822652.59813445 16831.47295084
0.12400001 813211.63712214 15247.71891447
0.12500001 803814.84699959 18230.52158898
0.12600001 794465.58436461 19674.94112394
0.12700001 785162.69781633 19597.66186106
0.12800001 775908.18198199 19517.97123762
0.12900001 766703.81537532 16445.79761493
0.13000001 757550.59993170 22328.80498545
0.13100001 748448.88085675 19265.07510136
0.13200001 739401.25711803 17701.26692985
0.13300001 730408.47173646 16149.33207142
0.13400001 721470.36121331 17531.73060403
0.13500001 712590.26935391 17444.21061625
0.13600001 703767.86863915 23139.88861192
0.13700001 695004.63518181 17263.91595197
0.13800001 686299.39468376 15740.27735932
0.13900001 677657.23910397 22769.28430765
0.14000001 669075.59523753 16981.13940797
0.14100001 660557.79772990 14069.88175522
0.14200001 652102.79831778 16785.12682038
0.14300001 643713.54861810 13904.21330598
0.14400001 635386.09918753 20729.47246380
0.14500001 627127.67162163 15107.50632202
0.14600001 618934.84332666 20471.27090875
0.14700001 610810.72404100 16271.99845611
0.14800001 602752.45796085 17512.97349229
0.14900001 594763.73162908 16058.62151164
0.15000001 586843.66876689 14621.21069720
0.15100001 578993.82470919 14521.16580889
0.15200001 571215.09717436 17042.20322837
0.15300001 563507.39857729 18223.83012995
0.15400001 555868.70781657 14216.34287329
0.15500001 548303.66387140 16679.39824212
0.15600001 540808.78454508 15283.25697254
0.15700001 533389.41630346 13905.46273932
0.15800001 526039.48072511 18819.06331118
0.15900001 518765.28604203 13695.40419794
0.16000001 511561.84398101 12354.21911529
0.16100001 504434.41770109 15935.08400738
0.16200001 497380.41357207 25537.99854041
0.16300001 490399.95529014 13270.22341661
0.16400001 483494.45639929 13163.13719690
0.16500001 476662.33353164 17803.33899793
0.16600001 469905.62575731 14125.36377717
0.16700001 463222.17783977 14007.83931925
0.16800001 456613.64878348 15047.70350616
0.16900001 450081.16095606 13772.48417557
0.17000001 443621.77864329 14792.56890736
0.17100001 437237.56371370 13536.87561181
0.17200001 430927.43997787 13419.08111460
0.17300001 424692.18839779 12192.91330470
0.17400001 418531.81295795 20874.27515709
0.17500001 412444.64341157 15243.95474043
0.17600001 406430.49225441 16186.09511849
0.17700001 400493.14042100 12831.80082514
0.17800001 394627.45550069 13774.47198485
0.17900001 388834.93940990 10498.54385995
0.18000001 383117.36439567 12481.96432160
0.18100001 377473.06533881 11335.51668757
0.18200001 371899.02263438 11229.49151890
0.18300001 366398.56924573 13146.38128556
0.18400001 360969.99363490 15025.37669486
0.18500001 355613.66188720 10913.78379891
0.18600001 350328.86263655 13757.41508569
0.18700001 345114.16458288 17517.99582186
0.18800001 339968.80856033 9638.11617805
0.18900001 334897.20045208 10499.02773023
0.19000001 329891.26118451 9451.38507950
0.19100001 324957.51295138 10294.65449672
0.19200001 320090.66224295 16679.92519763
0.19300001 315294.35490498 10092.57277741
0.19400001 310563.92252497 12717.59322835
0.19500001 305901.81271023 10792.21646240
0.19600001 301305.06438468 11574.63459531
0.19700001 296776.91014969 12339.98450718
0.19800001 292313.19093685 9598.10407801
0.19900001 287914.99812830 11228.68545767
0.20000001 283579.92367462 12824.90265430
0.20100001 279310.73514446 11848.36194481
0.20200001 275103.62839405 8376.90588052
0.20300001 270959.97120421 9949.65061289
0.20400001 266878.56485685 9847.81950868
0.20500001 262858.35964511 9746.78843634
0.20600001 258898.95114654 10450.45665700
0.20700001 255000.09530399 11138.40468938
0.20800001 251160.44715014 11023.43254650
0.20900001 247382.20878805 7792.53994519
0.21000001 243659.31372450 10025.36293712
0.21100001 239995.96544435 9158.24647430
0.21200001 236388.21417042 8307.86417977
0.21300001 232836.96748876 12705.91391654
0.21400001 229341.83354435 9615.15682592
0.21500001 225902.66696652 10246.94545805
0.21600001 222516.22399000 10864.35514996
0.21700001 219184.09874827 7884.05240473
0.21800001 215905.04252758 9220.22527708
0.21900001 212677.05499402 8422.01177597
0.22000001 209500.40973256 7639.43280211
0.22100001 206376.13316076 10308.48833880
0.22200001 203301.55669857 8840.56861106
0.22300001 200275.89243495 6729.27030401
0.22400001 197298.21838515 8656.45974098
0.22500001 194370.86704085 7907.00724512
0.22600001 191488.77576020 7172.21243526
0.22700001 188654.54145283 8387.58130963
0.22800001 185865.27888583 9576.70894748
0.22900001 183121.08142818 8212.98089045
0.23000001 180421.81014986 8127.10082255
0.23100001 177767.51641990 9279.46479597
0.23200001 175154.78546303 7345.99204974
0.23300001 172585.55862028 7269.30407288
0.23400001 170056.92409799 7792.85891536
0.23500001 167569.52772411 6525.15771819
0.23600001 165123.04141913 7044.14928011
0.23700001 162716.09785350 6389.86146493
0.23800001 160347.81845437 6323.31651983
0.23900001 158018.45910479 6826.39775621
0.24000001 155726.08043849 6755.39768895
0.24100001 153472.10332183 8913.66018256
0.24200001 151254.48802148 7167.19425392
0.24300001 149072.05006901 7092.84847779
0.24400001 146924.83855160 5939.43687941
0.24500001 144811.74823998 6412.26451539
0.24600001 142732.83310208 5817.07688825
0.24700001 140688.03885696 7327.03341028
0.24800001 138675.49129439 5697.48282936
0.24900001 136693.79298581 5638.61922741
0.25000001 134745.00133580 6595.09440238
0.25100001 132826.32561561 5522.91888038
0.25200001 130939.99497902 7453.75956682
0.25300001 129081.59716260 5901.61090148
0.25400001 127253.55845344 5354.19372524
0.25500001 125452.48548195 5780.85080451
0.25600001 123681.26039097 5721.49537639
0.25700001 121936.55343144 5190.83932517
0.25800001 120218.84897487 5137.55275402
0.25900001 118528.85482401 4622.62555685
0.26000001 116863.80306050 6405.30534882
0.26100001 115224.16653710 4981.14095509
0.26200001 113610.57696174 4481.93747321
0.26300001 112020.32351141 5323.20602514
0.26400001 110454.91264719 5268.69958258
0.26500001 108913.17772319 5214.76319614
0.26600001 107394.03611582 4731.24448496
0.26700001 105897.97534142 4257.09881017
0.26800001 104424.64139445 4634.88792762
0.26900001 102972.04575574 6255.55207568
0.27000001 101541.60000738 4540.43285919
0.27100001 100131.86318232 4493.91823229
0.27200001 98743.38870459  4447.89615469
0.27300001 97374.96412966  4802.53345815
0.27400001 96024.85365268  4753.23048075
0.27500001 94696.35827101  4704.51530155
0.27600001 93384.67774935  4268.14689853
0.27700001 92093.68604834  3840.30688996
0.27800001 90819.78616054  4180.88905377
0.27900001 89564.44151897  4514.04806620
0.28000001 88326.24895171  4095.24672647
0.28100001 87105.69849330  4789.94258685
0.28200001 85902.52988631  5105.18759277
0.28300001 84716.09366028  4330.68691289
0.28400001 83545.29982863  3571.56173672
0.28500001 82391.41305709  3888.05096619
0.28600001 81253.01700071  4547.32531168
0.28700001 80130.93500810  4153.98786744
0.28800001 79022.54797772  3768.19037868
0.28900001 77931.17161245  4746.00857584
0.29000001 76853.58811464  5702.92077599
0.29100001 75791.11797429  4315.54646173
0.29200001 74742.60799750  3941.92533238
0.29300001 73708.57416765  4225.71275706
0.29400001 72687.73532396  5146.29190454
0.29500001 71681.78607029  4137.47288783
0.29600001 70688.08505931  3778.98520616
0.29700001 69708.19204249  4673.93449770
0.29800001 68741.65287649  4624.59491619
0.29900001 67788.37232737  3965.61996888
0.30000001 66846.72540286  3923.56873326
0.30100001 65918.80177224  3583.34623398
0.30200001 65002.11274400  5317.82309534
0.30300001 64098.71849379  4092.06238237
0.30400001 63207.10587788  2891.72523081
0.30500001 62327.90962437  3719.10654336
0.30600001 61459.24419551  3396.23799503
0.30700001 60603.21871639  3639.82948843
0.30800001 59758.47389558  3323.76647543
0.30900001 58925.35514355  3014.03205829
0.31000001 58103.68936543  4065.80585584
0.31100001 57292.48540477  2949.41728828
0.31200001 56493.25315705  2917.59419743
0.31300001 55704.20290269  2886.03488903
0.31400001 54927.49358302  2854.85661415
0.31500001 54159.79689186  4364.19664018
0.31600002 53404.52963882  3047.26260547
0.31700002 52658.94752622  2763.01510752
0.31800002 51923.69685709  2981.45881470
0.31900002 51199.57876021  3194.85386591
0.32000002 50486.09692849  3646.35852331
0.32100002 49782.10486021  3125.81851218
0.32200002 49089.55622316  2616.22802279
0.32300002 48405.60251003  3293.51735073
0.32400002 47733.02490999  3025.08059691
0.32500002 47069.87570481  3682.74724953
0.32600002 46416.92777291  2959.77553959
0.32700002 45774.21158668  3152.92784339
0.32800002 45142.07381336  2227.76144818
0.32900002 44517.95703804  3525.82236437
0.33000002 43904.94942804  2833.84509503
0.33100002 43300.62837055  2156.37139497
0.33200002 42707.62109756  2773.21950730
0.33300002 42123.34663597  2532.45571968
0.33400002 41549.22666252  2087.84873866
0.33500002 40984.52828597  2272.18235578
0.33600002 40429.02818362  2248.05621861
0.33700002 39882.90095644  2224.26949168
0.33800002 39347.13310609  2200.88199452
0.33900002 38820.01767119  2573.76729349
0.34000002 38302.31073789  2938.74493054
0.34100002 37794.30277517  2908.27173628
0.34200002 37296.21021317  2878.33515952
0.34300002 36806.51713365  1899.21637404
0.34400002 36327.00455432  1879.92257472
0.34500002 35856.24629322  2233.12712490
0.34600002 35395.43158496  2210.79876150
0.34700002 34942.40046734  2188.79206894
0.34800002 34499.64585033  2709.08481870
0.34900002 34065.29427219  1788.42803399
0.35000002 33640.61863541  1948.29652055
0.35100002 33225.50372432  2105.16801568
0.35200002 32817.79933761  2432.78358012
0.35300002 32420.42363939  2582.28686518
0.35400002 32031.11246496  2729.05091127
0.35500002 31651.35842047  1859.20088168
0.35600002 31279.93826166  2345.05708255
0.35700002 30917.21954694  1660.25476831
0.35800002 30563.74551946  1810.44355160
0.35900002 30219.35674915  1631.84534175
0.36000002 29883.40736407  1780.00524395
0.36100002 29555.45097738  1765.34717050
0.36200002 29237.74511595  1751.19482667
0.36300002 28926.87937841  2842.93383997
0.36400002 28625.32308786  1567.23651330
0.36500002 28331.33374248  2022.00738498
0.36600002 28046.71382183  1543.97166903
0.36700002 27769.79596556  1992.76065288
0.36800002 27502.00219695  1826.68307245
0.36900002 27242.16791637  1663.13443008
0.37000002 26989.87493581  2102.78125586
0.37100002 26745.70640316  1940.13363439
0.37200002 26510.31311532  1483.25208906
0.37300002 26282.56269505  1621.89702074
0.37400002 26062.60515690  2785.44105809
0.37500002 25850.60639119  1895.36655039
0.37600002 25646.61354228  1740.37927742
0.37700002 25450.24523058  1731.63476752
0.37800002 25261.21965870  2154.15060844
0.37900002 25080.85763378  1572.56984813
0.38000002 24907.05469187  2135.15736461
0.38100002 24740.06921037  2126.40904937
0.38200002 24581.56270514  1977.09518204
0.38300002 24429.70905830  1688.58157010
0.38400002 24285.27670217  1542.72227559
0.38500002 24147.39061659  1677.76077952
0.38600002 24017.51772065  1533.63866671
0.38700002 23893.60131444  2224.97225981
0.38800002 23776.51913233  2081.03993565
0.38900002 23666.21152472  2215.15750366
0.39000002 23563.18063537  1520.17867071
0.39100002 23465.74712700  1793.72179537
0.39200002 23375.73738798  1377.99978431
0.39300002 23291.12894019  1789.45752125
0.39400002 23214.18755425  1375.44067775
0.39500002 23141.97668967  1649.56017659
0.39600002 23076.09312647  1374.18141079
0.39700002 23015.64826258  1923.64797293
0.39800002 22962.23972796  1374.29011283
0.39900002 22913.36975353  1649.76270042
0.40000002 22870.60635024  1650.80044457
0.40100002 22832.95838420  1789.87569254
0.40200002 22801.21828251  2205.33393677
0.40300002 22774.42218835  2070.19507501
0.40400002 22752.97437807  1520.46758485
0.40500002 22735.94195591  2353.85218222
0.40600002 22724.85945581  2635.97019747
0.40700002 22717.94571810  1529.37217821
0.40800002 22715.60089942  1672.32261745
0.40900002 22717.73241631  1676.56873176
0.41000002 22724.80194202  1541.08251672
0.41100002 22735.97994170  1686.10035237
0.41200002 22750.46534089  2114.08709197
0.41300002 22770.51083130  1838.26342651
0.41400002 22793.61280800  1986.46345034
0.41500002 22820.60881301  1566.40666315
0.41600002 22850.35698006  1572.21888651
0.41700002 22885.24495545  2152.35739005
0.41800002 22923.93406958  2017.07705436
0.41900002 22964.05667680  2459.45058662
0.42000002 23008.03596168  2034.14055576
0.42100002 23055.95844705  1605.38646274
0.42200002 23106.35695447  1612.70826006
0.42300002 23159.26567416  1767.51524001
0.42400002 23214.81347272  1775.93331482
0.42500002 23273.61746383  1635.90264905
0.42600002 23333.59074650  2241.77483720
0.42700002 23397.05789889  1802.50942595
0.42800002 23462.04810749  1962.71772744
0.42900002 23530.05678111  1669.45760773
0.43000002 23599.86518168  2288.59703444
0.43100002 23670.04205207  1840.58255719
0.43200002 23743.20423472  2158.96966337
0.43300002 23817.32625965  2325.76201947
0.43400002 23893.50748499  1714.95658100
0.43500002 23970.40391794  2508.26318484
0.43600002 24049.35136815  2679.93959671
0.43700002 24128.62183416  1902.30063555
0.43800002 24208.59800331  1912.96350488
0.43900002 24290.40682852  2084.11700465
0.44000002 24372.35862747  2257.12423945
0.44100002 24455.30138356  1945.66387028
0.44200002 24538.67460052  2445.89250672
0.44300002 24622.62303863  2623.78683534
0.44400002 24706.68638619  2143.92281276
0.44500002 24790.52501694  1990.18344268
0.44600002 24874.39379527  2501.74227452
0.44700002 24959.36223724  1677.26922183
0.44800002 25042.99609396  1855.31045355
0.44900002 25127.18382107  2374.51898362
0.45000002 25211.31548718  2387.76380295
0.45100002 25294.18393465  2229.42947766
0.45200002 25377.03655607  2069.24365885
0.45300002 25458.71990564  2600.60836161
0.45400002 25540.13264830  2266.04837662
0.45500002 25621.05910294  1752.48052570
0.45600002 25700.50058564  2290.30021823
0.45700002 25779.50016647  2302.36726899
0.45800002 25856.88532548  2492.34529464
0.45900002 25933.19122164  1789.39027910
0.46000002 26008.73952799  2158.20530832
0.46100002 26082.10534423  1988.23898462
0.46200002 26154.75507752  2724.67173934
0.46300002 26225.98708962  3103.05893951
0.46400002 26295.00824216  2751.11536773
0.46500002 26363.56413827  2948.50115297
0.46600002 26429.29405676  1851.37213642
0.46700002 26493.34716016  2231.79967055
0.46800002 26556.38319022  2055.06581058
0.46900002 26616.67928431  2627.06636988
0.47000002 26675.23844664  2073.06625414
0.47100002 26732.06536663  2081.89334943
0.47200002 26786.87819240  2470.68782718
0.47300002 26839.55922285  2480.78057655
0.47400002 26889.30156904  1915.86282760
0.47500002 26937.41154915  2500.33065850
0.47600002 26983.86477517  2316.83473941
0.47700002 27026.81265136  1937.82255895
