# SAXS profile: number of points = 501, q_min = 0, q_max = 0.5, delta_q = 0.001
#    q    intensity    error
0.00000000 1682732.95097188 277.65093691
0.00100000 1682650.30504161 605.75412420
0.00200000 1682402.30602956 984.20538019
0.00300000 1681989.17849830 1412.87096027
0.00400000 1681410.78274368 1765.48138897
0.00500000 1680667.65783138 1663.86104711
0.00600000 1679759.69103469 2292.87207161
0.00700000 1678687.44812050 2417.31002576
0.00800000 1677450.75438981 3170.38205965
0.00900000 1676050.87504261 3771.11463005
0.01000000 1674487.13473302 3315.48466993
0.01100000 1672760.90611225 3312.06673831
0.01200000 1670872.04074629 3258.20062231
0.01300000 1668821.70749474 3854.97831434
0.01400000 1666610.03284668 4124.86001415
0.01500000 1664238.28336491 5591.84088110
0.01600000 1661706.04735687 4237.35061018
0.01700000 1659015.45566888 5375.21031749
0.01800000 1656166.43938786 6608.10439051
0.01900000 1653159.88863188 5951.37586762
0.02000000 1649996.86985968 5197.49037517
0.02100000 1646679.26382941 7064.25436211
0.02200000 1643205.83202698 6235.96641586
0.02300000 1639579.78809475 6492.73625639
0.02400000 1635800.62349366 7361.10314137
0.02500000 1631870.96325188 7000.72675208
0.02600000 1627790.68550299 7911.06309338
0.02700000 1623562.13133184 7500.85739030
0.02800000 1619184.88734062 10565.18187441
0.02900000 1614661.90831897 8719.17470526
0.03000000 1609994.12851591 10481.06225840
0.03100000 1605182.26111134 13098.28785336
0.03200000 1600227.54141937 12673.80271177
0.03300000 1595133.93433354 10575.73847218
0.03400000 1589899.54269976 10016.36758117
0.03500000 1584527.54128926 8556.44911808
0.03600000 1579019.32681412 12268.98073634
0.03700000 1573376.50177730 10761.89576987
0.03800000 1567600.99416701 9170.46624028
0.03900000 1561694.57709873 12181.21826548
0.04000000 1555657.18783532 12437.47979308
0.04100000 1549492.99531153 12690.34822001
0.04200000 1543202.61918405 10949.02309107
0.04300000 1536787.11885367 13185.63409181
0.04400000 1530250.14131291 12395.02672028
0.04500000 1523592.93339818 12615.35007471
0.04600000 1516815.47901566 10693.54962417
0.04700000 1509922.21448028 10871.44044987
0.04800000 1502913.50156878 17674.26360080
0.04900000 1495793.20848918 13462.13950303
0.05000000 1488560.79513347 12526.23967435
0.05100000 1481221.09798099 12708.87761271
0.05200000 1473771.98785435 12888.13663439
0.05300000 1466220.11049941 15439.29848331
0.05400000 1458565.10335149 18049.74399570
0.05500000 1450809.57589046 13405.48110658
0.05600000 1442954.73057398 14804.71622654
0.05700000 1435005.72443472 16229.91550095
0.05800000 1426961.34946986 12628.60853247
0.05900000 1418824.42495899 14046.36246314
0.06000000 1410598.74706995 16779.07288030
0.06100000 1402285.40770746 13041.25490111
0.06200000 1393887.03568172 14489.45641320
0.06300000 1385406.38232983 19949.85283831
0.06400000 1376842.74211468 18793.90430879
0.06500000 1368202.07507725 16254.24141226
0.06600000 1359485.21445949 15029.10974904
0.06700000 1350693.88412223 15154.78608908
0.06800000 1341831.23051657 19443.13544030
0.06900000 1332899.82768121 16794.53861509
0.07000000 1323900.64445451 15509.49677607
0.07100000 1314836.73375283 18460.30860653
0.07200000 1305710.20859287 20016.53843544
0.07300000 1296524.53143262 15830.56527054
0.07400000 1287281.26412777 21722.87235018
0.07500000 1277982.53388845 16025.90172614
0.07600000 1268629.20174593 16117.93476380
0.07700000 1259226.92123402 16206.25123617
0.07800000 1249775.69684362 17771.81124255
0.07900000 1240277.56566666 17859.99778330
0.08000000 1230737.09532505 20934.83897355
0.08100000 1221154.93551308 22530.30961730
0.08200000 1211532.80837151 22625.37625804
0.08300000 1201874.47944199 16657.98106686
0.08400000 1192181.29328485 15200.31220286
0.08500000 1182456.06455675 27456.63110796
0.08600000 1172700.44415301 24485.98642357
0.08700000 1162918.45357815 15350.52430806
0.08800000 1153109.34680443 16933.41155308
0.08900000 1143278.68721141 20064.54190299
0.09000000 1133426.37479314 17018.39781697
0.09100000 1123555.45680641 17055.57263561
0.09200000 1113667.12686232 21749.92000958
0.09300000 1103767.28178123 18675.74328535
0.09400000 1093852.10896706 21822.35059949
0.09500000 1083927.61963988 17169.41430210
0.09600000 1073995.26244187 17189.29498341
0.09700000 1064059.04920058 17205.83563447
0.09800000 1054118.90444503 15653.66646701
0.09900000 1044177.85755358 23494.00289970
0.10000000 1034236.39093994 18802.41847151
0.10100000 1024297.45714624 25074.80293025
0.10200000 1014363.66980588 21940.68720991
0.10300000 1004436.06478813 20369.96435212
0.10400000 994518.31635571 20362.76348535
0.10500000 984612.46449323 29745.14395183
0.10600001 974715.98946518 18773.03084044
0.10700001 964836.88065304 17193.39402232
0.10800001 954973.12968886 21859.33596732
0.10900001 945128.87407013 26510.86616542
0.11000001 935303.79729545 18687.37074957
0.11100001 925501.08243488 18658.10270019
0.11200001 915722.33530932 20177.94260846
0.11300001 905968.90310115 23238.10345861
0.11400001 896243.35907713 18552.23840642
0.11500001 886547.38313665 24681.48030873
0.11600001 876881.82010785 21544.98733464
0.11700001 867249.78415642 15350.32190249
0.11800001 857650.05401860 16839.95960379
0.11900001 848086.07459779 19845.21508033
0.12000001 838558.31116079 22829.75109675
0.12100001 829072.13993249 21240.82922569
0.12200001 819624.60797329 21170.90462134
0.12300001 810220.12070670 19591.12344171
0.12400001 800857.30655582 19520.89776707
0.12500001 791538.81584613 23936.13491907
0.12600001 782268.00629583 14902.20622218
0.12700001 773043.80539053 19295.17429186
0.12800001 763868.08630961 20693.18743338
0.12900001 754742.58204810 17660.97725232
0.13000001 745668.60110208 19048.10531298
0.13100001 736646.05156478 17502.71101022
0.13200001 727677.54443124 20324.03477405
0.13300001 718764.10249637 20226.02279776
0.13400001 709905.61647702 17250.70729369
0.13500001 701105.16499479 21453.81906035
0.13600001 692362.38713815 15650.85249921
0.13700001 683678.90115799 16982.58470555
0.13800001 675053.61174162 23927.27639649
0.13900001 666491.12608757 15395.94573867
0.14000001 657989.43740176 20874.71588603
0.14100001 649551.59823500 13835.44969493
0.14200001 641176.61333086 15128.56290508
0.14300001 632867.32082401 19137.90868441
0.14400001 624619.97545076 19019.67914963
0.14500001 616441.48923088 16200.08310118
0.14600001 608328.77032729 14755.01502035
0.14700001 600284.64523362 14658.95172816
0.14800001 592306.21601423 18533.26237346
0.14900001 584397.51992911 13148.94481878
0.15000001 576557.43433626 19588.53975582
0.15100001 568787.24781301 12968.34986205
0.15200001 561088.48716106 18027.77394316
0.15300001 553460.30409811 14063.42699077
0.15400001 545901.58682489 16499.87624043
0.15500001 538416.07697288 18898.40519362
0.15600001 531000.77200219 13755.57564791
0.15700001 523660.94044494 16133.99433658
0.15800001 516390.35329452 16010.68365958
0.15900001 509195.38228741 13442.75872689
0.16000001 502070.97200912 18187.52181953
0.16100001 495022.71706056 12029.05259239
0.16200001 488047.51359489 19092.41963311
0.16300001 481145.90959272 13019.80892822
0.16400001 474319.04626736 15261.21603413
0.16500001 467565.46335844 12806.61864601
0.16600001 460886.85411709 16163.30273700
0.16700001 454281.87882538 13737.48466429
0.16800001 447751.24922521 14755.64311493
0.16900001 441296.52777452 14628.98058648
0.17000001 434914.63888552 12271.11711559
0.17100001 428607.94296112 12163.89399563
0.17200001 422375.25369084 15344.89369122
0.17300001 416216.77440932 13035.90999011
0.17400001 410133.38123420 11842.60194242
0.17500001 404122.80813475 12802.61116635
0.17600001 398185.13862110 14800.54230156
0.17700001 392323.87360813 15712.57188012
0.17800001 386534.01750369 12454.12663220
0.17900001 380817.39610250 11310.27719847
0.18000001 375175.10819327 12223.20560230
0.18100001 369605.99130915 11099.26844330
0.18200001 364107.01879606 13992.63339332
0.18300001 358681.18002538 11879.52124362
0.18400001 353327.12562057 10785.31101907
0.18500001 348044.79408994 10681.49523524
0.18600001 342833.82728382 13463.08503348
0.18700001 337692.89858394 12379.82224697
0.18800001 332620.81257579 14144.70072307
0.18900001 327622.11339358 11204.67680745
0.19000001 322688.92823388 10169.54205379
0.19100001 317827.39776043 9153.42948800
0.19200001 313032.75534194 10874.75843443
0.19300001 308308.03736919 10766.11717366
0.19400001 303649.07030194 10658.08287123
0.19500001 299057.93733615 9671.53415048
0.19600001 294532.15575430 9573.76817521
0.19700001 290074.32586469 12922.81182797
0.19800001 285680.58487151 11085.83561984
0.19900001 281352.08380506 9284.61920436
0.20000001 277086.49571673 10024.98988882
0.20100001 272886.23055388 9922.14381188
0.20200001 268747.85149283 9001.70971120
0.20300001 264672.40267987 10528.66867624
0.20400001 260659.07928738 8015.26706693
0.20500001 256706.44057006 9518.67526626
0.20600001 252814.03218599 10204.83889155
0.20700001 248982.11950896 10098.71524464
0.20800001 245208.88870415 9993.48873153
0.20900001 241496.71593420 7607.14691153
0.21000001 237839.52812749 8280.38356319
0.21100001 234241.30034831 7448.87370321
0.21200001 230698.37393095 9582.05741421
0.21300001 227211.66937513 9481.54341127
0.21400001 223780.54912652 12268.76918589
0.21500001 220405.07898478 9997.57485541
0.21600001 217081.83085764 9892.41949988
0.21700001 213812.44019356 9788.33397485
0.21800001 210595.77844661 8301.68597887
0.21900001 207429.99909903 6845.19029392
0.22000001 204314.85184172 8804.94895644
0.22100001 201251.82242297 8042.02320428
0.22200001 198237.84274154 9283.47861455
0.22300001 195272.45087720 7217.27012569
0.22400001 192354.65564670 7141.16692856
0.22500001 189486.77816257 7708.32250016
0.22600001 186663.60749417 6355.89613574
0.22700001 183887.91670944 6288.96704886
0.22800001 181156.85078533 8089.55955437
0.22900001 178470.22903722 8620.11247015
0.23000001 175828.20739064 6701.69244163
0.23100001 173230.82571315 6631.27632191
0.23200001 170674.31585006 6561.57438318
0.23300001 168160.91525287 8263.42776634
0.23400001 165687.88766591 7592.64781139
0.23500001 163255.42070987 6935.09059976
0.23600001 160863.40823916 6290.56387672
0.23700001 158510.63062868 7922.36169353
0.23800001 156196.03606495 5599.62815778
0.23900001 153919.78890350 6095.22392888
0.24000001 151680.30631414 6579.89199914
0.24100001 149478.44868521 5426.06794393
0.24200001 147312.68059990 6980.41170041
0.24300001 145181.45371538 7439.09804027
0.24400001 143085.24044401 5784.22111856
0.24500001 141022.59651132 5724.10746317
0.24600001 138993.74105039 8239.54935924
0.24700001 136998.39245874 5096.34044055
0.24800001 135034.85853498 5043.55220488
0.24900001 133101.86880634 5490.45234800
0.25000001 131201.25688081 4939.72755525
0.25100001 129330.17378236 6355.28504033
0.25200001 127491.00877173 6289.76921532
0.25300001 125679.45875760 5267.22636573
0.25400001 123897.69276663 5212.99566979
0.25500001 122142.57220058 6566.38499217
0.25600001 120416.61651227 5570.47294341
0.25700001 118716.82219110 6432.07773064
0.25800001 117043.70545702 5456.57780658
0.25900001 115397.61093390 4950.55774330
0.26000001 113776.20332079 4454.33857077
0.26100001 112179.50363692 7935.57846276
0.26200001 110608.68621027 4799.86416521
0.26300001 109060.46496541 4750.67407868
0.26400001 107536.86672955 5129.50878572
0.26500001 106036.41456585 4653.93845551
0.26600001 104558.11316926 5025.06315670
0.26700001 103102.44126734 7046.02116963
0.26800001 101668.91570839 5333.04322585
0.26900001 100255.90816604 4060.36447287
0.27000001 98864.54650570  5224.49720733
0.27100001 97493.34635716  5966.59307941
0.27200001 96143.04244739  5118.17510690
0.27300001 94812.27023036  5065.81983814
0.27400001 93499.40053119  4242.53549988
0.27500001 92207.80530896  3817.40332045
0.27600001 90932.41394256  4533.89037375
0.27700001 89677.33517659  5235.36307538
0.27800001 88439.03110461  5181.64307765
0.27900001 87218.69514987  3663.18536966
0.28000001 86015.21951147  3988.09584140
0.28100001 84828.81952323  5023.56292993
0.28200001 83659.56407043  4616.75326174
0.28300001 82506.37680118  4920.68054532
0.28400001 81368.53209427  4174.20589400
0.28500001 80247.12074998  4131.12197174
0.28600001 79140.86766526  4429.11886853
0.28700001 78050.45399877  5732.02561298
0.28800001 76973.41046550  4337.83675211
0.28900001 75912.83049883  5943.97490941
0.29000001 74865.66160123  3267.88628358
0.29100001 73833.31028150  3233.89914341
0.29200001 72814.46300930  4480.27412104
0.29300001 71809.63210321  4116.84640335
0.29400001 70817.64711962  3133.68103338
0.29500001 69840.16797379  4031.17468627
0.29600001 68874.46886335  3682.02927973
0.29700001 67922.39032144  3946.97028842
0.29800001 66983.08058415  4806.70609026
0.29900001 66056.66156117  3269.80490207
0.30000001 65141.53380232  3235.25442945
0.30100001 64239.72383286  3492.07155287
0.30200001 63348.85052602  3455.04647125
0.30300001 62470.82447160  2848.66973076
0.30400001 61604.23519569  3382.07267236
0.30500001 60749.63561852  4182.61261035
0.30600001 59905.27695116  2758.63813420
0.30700001 59073.22381041  3002.10137617
0.30800001 58252.03467643  2969.98012859
0.30900001 57442.08674950  2938.16287634
0.31000001 56643.24534363  2906.64827242
0.31100001 55854.56086929  2613.99357244
0.31200001 55077.53710513  2844.47953847
0.31300001 54310.29966871  2558.01523551
0.31400001 53555.08350115  3036.57337829
0.31500001 52808.69047498  2753.44525173
0.31600002 52074.14741975  2723.73840975
0.31700002 51349.01947789  2694.28317957
0.31800002 50633.94135227  3391.96789179
0.31900002 49929.72733998  2396.62702580
0.32000002 49235.62403923  2844.83449169
0.32100002 48550.91553491  3283.01306392
0.32200002 47877.23858542  3711.44371088
0.32300002 47211.79956472  2753.39228099
0.32400002 46557.44986636  3404.51368269
0.32500002 45912.35531621  2694.13713753
0.32600002 45277.10597029  2665.01058361
0.32700002 44651.70665083  2416.55047837
0.32800002 44036.72854669  2390.53392236
0.32900002 43429.29534859  2794.67528802
0.33000002 42832.88839370  2339.31831040
0.33100002 42244.80686853  2103.79148168
0.33200002 41667.78895648  2497.56738832
0.33300002 41099.20846088  2676.79157382
0.33400002 40540.56858273  2037.16366775
0.33500002 39990.89213866  3224.86569478
0.33600002 39450.26749125  2791.89556257
0.33700002 38918.78556199  2170.50077358
0.33800002 38397.39020536  2733.51033817
0.33900002 37884.39511560  2318.52509088
0.34000002 37380.58504551  2485.62212032
0.34100002 36886.10936333  2270.70899994
0.34200002 36401.41794127  2434.70895431
0.34300002 35924.97131386  2039.10146835
0.34400002 35458.29202853  2201.96003926
0.34500002 35000.24019961  2179.81506287
0.34600002 34551.76946737  2337.94559174
0.34700002 34111.02095866  2136.71445405
0.34800002 33680.20171618  1939.47450768
0.34900002 33257.70571219  2095.23555910
0.35000002 32844.52292343  1729.26421382
0.35100002 32440.76232614  1884.15956514
0.35200002 32044.20711678  1866.41493192
0.35300002 31657.67027573  1849.12460839
0.35400002 31279.33235670  2165.31188495
0.35500002 30909.97114975  1980.71104509
0.35600002 30548.89592074  2126.66149025
0.35700002 30196.34923972  2270.16164337
0.35800002 29852.81684685  1768.33168968
0.35900002 29518.26115120  2550.37788426
0.36000002 29191.88792219  1580.74080586
0.36100002 28873.32555395  1881.38598221
0.36200002 28564.75497596  1710.88608032
0.36300002 28263.12465091  1697.48334694
0.36400002 27970.39821169  1684.51731209
0.36500002 27685.17866672  1823.89965696
0.36600002 27409.12114723  1659.75940969
0.36700002 27140.64959508  1647.98032148
0.36800002 26881.08209534  2083.01515024
0.36900002 26629.37855999  1477.93058009
0.37000002 26385.06646064  1761.99482171
0.37100002 26148.71993997  1750.91837012
0.37200002 25921.05846033  2175.42493433
0.37300002 25700.78677376  1585.99562694
0.37400002 25488.18683226  1433.71057723
0.37500002 25283.52560049  1425.99091142
0.37600002 25086.69973096  1844.24881809
0.37700002 24897.22536993  1694.00729442
0.37800002 24715.22748298  1545.56682386
0.37900002 24541.55891640  2238.19027920
0.38000002 24374.40460499  1392.99728917
0.38100002 24213.94055998  1664.95063178
0.38200002 24061.85962280  1382.35390082
0.38300002 23916.24514710  1515.33336431
0.38400002 23778.07328405  1373.18379721
0.38500002 23646.26943682  1779.85478483
0.38600002 23522.36360489  1502.02059915
0.38700002 23404.33036171  1362.13209158
0.38800002 23293.05940241  1630.98009663
0.38900002 23188.43507945  1763.48057134
0.39000002 23091.03128806  1625.14685905
0.39100002 22999.15489510  1622.82044628
0.39200002 22914.47114501  1891.13139319
0.39300002 22835.27049746  1754.43391544
0.39400002 22763.56385762  1753.36358920
0.39500002 22696.51229118  1617.80747276
0.39600002 22635.79998680  2291.53532023
0.39700002 22580.37162221  2291.68202451
0.39800002 22531.87797616  1483.38625684
0.39900002 22487.97085475  1619.13397825
0.40000002 22450.00055271  2160.58815556
0.40100002 22417.09870798  1892.45156259
0.40200002 22390.06626025  1488.82752652
0.40300002 22367.89769987  1491.04413132
0.40400002 22350.94475917  1493.60195430
0.40500002 22338.48620295  1496.45526164
0.40600002 22331.82092215  1499.69350508
0.40700002 22329.39171195  1366.55883752
0.40800002 22331.41223400  1507.03542602
0.40900002 22337.72554819  1373.77018631
0.41000002 22349.08953230  1928.95000893
0.41100002 22364.44230025  2211.39615943
0.41200002 22383.14663439  2079.95399955
0.41300002 22407.28233523  1391.49229895
0.41400002 22434.45420385  1955.16277651
0.41500002 22465.50939262  1542.03263778
0.41600002 22499.30773897  2533.19717836
0.41700002 22538.20559135  2543.66200357
0.41800002 22580.71369081  1844.95729953
0.41900002 22624.81824678  1567.89997880
0.42000002 22672.64594716  1574.95542535
0.42100002 22724.40477422  2013.83684652
0.42200002 22778.63233039  1445.30428985
0.42300002 22835.35340643  2468.95852730
0.42400002 22894.70036565  2481.21326970
0.42500002 22957.16845075  1760.35576022
0.42600002 23020.87009646  2064.28151937
0.42700002 23088.06804068  1778.70484614
0.42800002 23156.76405898  1639.15162159
0.42900002 23228.49241423  1947.70918123
0.43000002 23301.86830722  1506.46585745
0.43100002 23375.68876835  1666.21917437
0.43200002 23452.51828086  2132.53758833
0.43300002 23530.22496953  1531.81771811
0.43400002 23609.93047523  2464.87685842
0.43500002 23690.47035359  1704.29251800
0.43600002 23772.94965234  1714.14861591
0.43700002 23855.79068937  1567.32552257
0.43800002 23939.30010454  1891.68358391
0.43900002 24024.68617857  2378.44404439
0.44000002 24110.16621308  2551.82011292
0.44100002 24196.64702514  1925.08532855
0.44200002 24283.53204762  2743.18932776
0.44300002 24370.99873543  1947.73031124
0.44400002 24458.59266496  1795.87225153
0.44500002 24545.94940494  1970.54891161
0.44600002 24633.33131949  1981.99793190
0.44700002 24721.79734120  1993.56583207
0.44800002 24808.97537267  2506.32685580
0.44900002 24896.64067608  2688.83732045
0.45000002 24984.28182834  1859.20542037
0.45100002 25070.61669256  2719.66062770
0.45200002 25156.95633780  1880.35679058
0.45300002 25242.26197139  2062.79774606
0.45400002 25327.12616981  2420.00702022
0.45500002 25411.52234004  2259.59267357
0.45600002 25494.53810803  1747.65067013
0.45700002 25576.98200673  1757.13874714
0.45800002 25657.92124441  2119.85755368
0.45900002 25737.78138569  1953.49769976
0.46000002 25816.82077046  2142.27988906
0.46100002 25893.79544023  2153.32813087
0.46200002 25969.98109213  2164.33832680
0.46300002 26044.70374357  2175.25375976
0.46400002 26117.26444857  2914.68685060
0.46500002 26189.36468617  2745.95501749
0.46600002 26258.62736138  2207.30032061
0.46700002 26326.28750687  2217.72656469
0.46800002 26392.86037104  2785.10672266
0.46900002 26456.80922715  2051.72565281
0.47000002 26518.90156553  2435.62862973
0.47100002 26579.29165012  1881.81393802
0.47200002 26637.66707588  2078.93682547
0.47300002 26693.88465275  2657.10940427
0.47400002 26747.29369805  2096.31924294
0.47500002 26798.97650748  1913.44701333
0.47600002 26849.02184615  2305.25712497
0.47700002 26895.65190762  1928.41833318
