# SAXS profile: number of points = 501, q_min = 0, q_max = 0.5, delta_q = 0.001
#    q    intensity    error
0.00000000 1664650.74656090 324.60689558
0.00100000 1664568.77524396 549.30770888
0.00200000 1664322.79384958 748.94528095
0.00300000 1663913.03855019 1697.19135978
0.00400000 1663339.37856138 1746.50641385
0.00500000 1662602.30307489 1945.24477159
0.00600000 1661701.74097482 2442.70165868
0.00700000 1660638.25622327 2391.31918835
0.00800000 1659411.67140383 2688.24702117
0.00900000 1658023.20005559 2984.44188768
0.01000000 1656472.25141240 4646.40486584
0.01100000 1654760.09852945 4169.99562985
0.01200000 1652886.65690287 3867.75494673
0.01300000 1650853.10548214 3466.79167441
0.01400000 1648659.46653472 3709.48396415
0.01500000 1646307.16105549 5531.59230746
0.01600000 1643795.57482352 5868.35046446
0.01700000 1641127.00303031 4874.14741765
0.01800000 1638301.32874369 4669.15899702
0.01900000 1635319.40342933 7849.53349065
0.02000000 1632182.24031355 5141.37428956
0.02100000 1628891.89593689 6450.41220036
0.02200000 1625446.93448749 7850.90905026
0.02300000 1621850.62497694 6422.52876725
0.02400000 1618102.48164768 6067.88458286
0.02500000 1614205.01937618 8184.01982201
0.02600000 1610158.32966456 8477.48399343
0.02700000 1605964.50213656 9443.07170507
0.02800000 1601623.32695932 11844.00504603
0.02900000 1597137.51073394 9343.25486678
0.03000000 1592508.25032131 7405.16370437
0.03100000 1587735.94041993 8383.24615116
0.03200000 1582822.05557341 10185.46039674
0.03300000 1577770.44371758 8046.62963391
0.03400000 1572579.27249979 10732.85403003
0.03500000 1567251.68157376 9309.47541844
0.03600000 1561788.98458011 8667.92926500
0.03700000 1556192.95283930 12418.42033798
0.03800000 1550465.28404023 10884.26679768
0.03900000 1544607.78172062 12974.70596731
0.04000000 1538620.52408973 10408.76832780
0.04100000 1532507.38288355 11585.75635179
0.04200000 1526269.33207327 12797.76894316
0.04300000 1519907.20715278 16050.22085255
0.04400000 1513424.64993911 11237.17854767
0.04500000 1506822.92814464 16635.32589968
0.04600000 1500102.07125417 13748.43612217
0.04700000 1493266.23345108 12901.82085705
0.04800000 1486316.15759217 17479.07882655
0.04900000 1479255.41147984 11094.41610252
0.05000000 1472083.58800417 13513.72796716
0.05100000 1464805.31846041 13710.57841948
0.05200000 1457418.80297418 12745.12802595
0.05300000 1449930.45125691 14093.32464322
0.05400000 1442339.72391926 13089.23360497
0.05500000 1434649.63787649 13256.16327237
0.05600000 1426860.84085054 13419.62683441
0.05700000 1418978.93992930 13579.62908900
0.05800000 1411002.60973925 18731.06051889
0.05900000 1402934.46750674 12626.41079729
0.06000000 1394778.33204960 16590.88903484
0.06100000 1386535.72068158 12894.78280493
0.06200000 1378208.55730267 14326.47862283
0.06300000 1369800.32077894 13150.08369431
0.06400000 1361309.53645789 17254.59918154
0.06500000 1352742.40014994 14731.36542673
0.06600000 1344100.04913964 24314.77102659
0.06700000 1335383.70733952 14983.00589754
0.06800000 1326596.98859039 15103.30742207
0.06900000 1317742.12409286 19370.81013109
0.07000000 1308820.23872969 22302.29791234
0.07100000 1299834.28138897 15442.03198617
0.07200000 1290786.56800958 16960.93629821
0.07300000 1281679.87147557 18494.64141197
0.07400000 1272516.58299464 20042.13712142
0.07500000 1263298.09131451 18722.07859083
0.07600000 1254025.87172443 20277.59929641
0.07700000 1244705.17129291 26213.49213654
0.07800000 1235336.03459920 23421.97231440
0.07900000 1225920.66006881 14711.04861083
0.08000000 1216463.43743615 17736.03774984
0.08100000 1206964.88116845 19299.36935538
0.08200000 1197426.78718320 20871.14987999
0.08300000 1187853.21809428 16463.64637546
0.08400000 1178245.17815761 18027.15207198
0.08500000 1168605.39985073 22612.51554866
0.08600000 1158935.89705596 19661.34841668
0.08700000 1149239.89763131 18203.96083330
0.08800000 1139517.61947901 16733.81702793
0.08900000 1129774.13589316 21352.73217131
0.09000000 1120009.06168731 15288.12441020
0.09100000 1110225.70867720 19917.45014941
0.09200000 1100425.59415518 16886.03153573
0.09300000 1090613.88694489 21528.71913997
0.09400000 1080787.53538009 16941.34541328
0.09500000 1070951.80038485 21590.38931056
0.09600000 1061108.40094354 16983.04075544
0.09700000 1051261.52148025 18544.25411073
0.09800000 1041410.81674250 17011.44649133
0.09900000 1031559.53649176 15473.39377497
0.10000000 1021707.86270789 17026.76233275
0.10100000 1011858.85537980 17029.58533697
0.10200000 1002015.16911333 15481.13509098
0.10300000 992178.00258653 15477.97756845
0.10400000 982350.41066502 17019.22166544
0.10500000 972535.02343183 18555.96912013
0.10600001 962729.17117764 16996.98431691
0.10700001 952940.49520800 18525.16409859
0.10800001 943167.15173049 27757.41058174
0.10900001 933413.64729629 21561.85626737
0.11000001 923679.12660678 21530.96145466
0.11100001 913967.00467364 19961.04032171
0.11200001 904278.68648353 21458.53424046
0.11300001 894615.68676552 16827.72186032
0.11400001 884980.70778977 18319.10151379
0.11500001 875374.98298369 18277.83050537
0.11600001 865799.82884798 16714.26648301
0.11700001 856257.68532379 16671.33791839
0.11800001 846748.09453795 19648.79045918
0.11900001 837273.90309760 19592.21025531
0.12000001 827835.98278007 18030.26855426
0.12100001 818439.17353312 19470.66885558
0.12200001 809081.32366231 16420.30623731
0.12300001 799765.62793226 16363.20551844
0.12400001 790491.94607375 19268.24209342
0.12500001 781262.29961018 16242.44397425
0.12600001 772079.94814384 19120.56081681
0.12700001 762944.08888410 21972.79079536
0.12800001 753856.06770955 17504.53871719
0.12900001 744818.42479822 21785.93995216
0.13000001 735831.72868342 18796.82239520
0.13100001 726896.37834477 20149.56855752
0.13200001 718014.59482604 18621.70939465
0.13300001 709187.57198458 15680.13795579
0.13400001 700415.43507882 17020.09587484
0.13500001 691700.59321164 15521.76204349
0.13600001 683043.13207895 16843.84443127
0.13700001 674444.62984451 18149.30584491
0.13800001 665904.16817906 13884.10256125
0.13900001 657425.54622192 22089.49939476
0.14000001 649007.67869610 15099.16435695
0.14100001 640653.24085828 24562.64641295
0.14200001 632361.23526963 13564.14913629
0.14300001 624134.10246003 21570.07559843
0.14400001 615969.03345000 20095.99066423
0.14500001 607871.93528572 18637.35441502
0.14600001 599840.42815322 25130.31592298
0.14700001 591876.78506174 14453.63177308
0.14800001 583978.21675444 20883.06201637
0.14900001 576149.13553756 15556.02739346
0.15000001 568388.26786039 15448.79384936
0.15100001 560696.56149359 15340.65864631
0.15200001 553075.71522990 17770.32356887
0.15300001 545524.92792796 12601.62642979
0.15400001 538043.09708182 15011.40311699
0.15500001 530633.85358321 14900.19931180
0.15600001 523294.54662344 14788.30458551
0.15700001 516029.87186375 17121.87195654
0.15800001 508834.06357521 16989.97018468
0.15900001 501713.08519857 13245.22607442
0.16000001 494662.16226333 13140.70096080
0.16100001 487686.80253510 13035.86884711
0.16200001 480783.96670914 16457.23595733
0.16300001 473954.00040423 16322.97654449
0.16400001 467198.18430765 11563.15560751
0.16500001 460514.96112463 19493.59922472
0.16600001 453905.95805016 17055.51717898
0.16700001 447370.20771160 15783.22167327
0.16800001 440908.41800031 17883.24627847
0.16900001 434521.47787010 15512.41749243
0.17000001 428206.90512517 10983.50763510
0.17100001 421966.59343405 13064.08634962
0.17200001 415800.09998074 12948.01572484
0.17300001 409706.84708775 16040.02382097
0.17400001 403688.18626466 11656.49692888
0.17500001 397741.54992697 10500.37741398
0.17600001 391867.26536713 11444.48402556
0.17700001 386068.69253685 11338.83803535
0.17800001 380340.94187365 12254.58572598
0.17900001 374685.90824005 16186.43200051
0.18000001 369104.11694243 14029.64814767
0.18100001 363594.93642748 12903.98490335
0.18200001 358155.50386904 12780.77975930
0.18300001 352788.21569694 11684.34625584
0.18400001 347492.13357501 10607.19787847
0.18500001 342267.28436575 15278.81229589
0.18600001 337112.90862740 10401.61928711
0.18700001 332028.04882480 10299.51056114
0.18800001 327011.48454983 11124.93123000
0.18900001 322067.45213662 9178.92281957
0.19000001 317188.17320004 11813.67406902
0.19100001 312379.97997840 14394.47015754
0.19200001 307637.95719327 14249.79085051
0.19300001 302965.26559647 9697.91861000
0.19400001 298357.65418041 13090.44269574
0.19500001 293817.13206456 12957.33613635
0.19600001 289341.44025743 10260.04795638
0.19700001 284932.87756346 8462.50686355
0.19800001 280587.73809260 13400.87100461
0.19900001 276307.44815896 12433.83575478
0.20000001 272089.15888681 9023.83738096
0.20100001 267935.69175633 9742.14221270
0.20200001 263843.29344833 8837.43153174
0.20300001 259813.34910710 7950.28885844
0.20400001 255845.02732035 11800.85244293
0.20500001 251936.43793730 7784.83630023
0.20600001 248087.71057729 10014.06091080
0.20700001 244298.63236057 8384.32945893
0.20800001 240567.62122572 10558.51339470
0.20900001 236897.22686361 8954.71559875
0.21000001 233281.16759196 8121.68423365
0.21100001 229723.28331883 9496.76098134
0.21200001 226220.48396956 7227.74480452
0.21300001 222772.95068723 12871.82169923
0.21400001 219380.45919733 8490.02417232
0.21500001 216043.05984217 8399.75456378
0.21600001 212757.30257710 8310.30063156
0.21700001 209524.85259030 6851.46300364
0.21800001 206344.41006650 8134.09702941
0.21900001 203214.61626603 8047.29918462
0.22000001 200134.71448284 6634.46609880
0.22100001 197106.28793427 10501.82351770
0.22200001 194126.44387820 7792.23582572
0.22300001 191194.65115537 7066.55464085
0.22400001 188310.02572860 8897.64913641
0.22500001 185474.55828440 8173.86417011
0.22600001 182683.54138462 7464.44985396
0.22700001 179939.19209402 7384.70479276
0.22800001 177239.18282057 8523.43270491
0.22900001 174583.05225400 6625.42714636
0.23000001 171971.02596267 6554.67596455
0.23100001 169403.11716437 9432.36600979
0.23200001 166875.48153042 6998.75802638
0.23300001 164390.67809700 6924.13568892
0.23400001 161945.79606446 8562.88437189
0.23500001 159540.84217221 6777.29529602
0.23600001 157175.89942237 6705.12418649
0.23700001 154850.03043059 5528.14634784
0.23800001 152561.80468797 6563.20914811
0.23900001 150311.34490764 6493.45040715
0.24000001 148097.29726543 6959.83281419
0.24100001 145920.47727052 8475.06172075
0.24200001 143779.31970968 6288.90774158
0.24300001 141672.39340318 6740.77279698
0.24400001 139600.04404039 7182.42260563
0.24500001 137560.89495515 5583.59699036
0.24600001 135555.09010273 6529.01122365
0.24700001 133582.41642760 4969.26612618
0.24800001 131641.21834679 4916.79973785
0.24900001 129730.46990844 5351.38213688
0.25000001 127851.42081006 4813.60622122
0.25100001 126001.73640595 7620.58537835
0.25200001 124183.50943787 6126.59372796
0.25300001 122392.67089684 6528.42537450
0.25400001 120631.36038251 6921.22462940
0.25500001 118896.42634675 5022.18528650
0.25600001 117190.16190792 4517.68095529
0.25700001 115509.81072283 7152.36781836
0.25800001 113856.02667521 5307.96821474
0.25900001 112228.79405112 4814.61549260
0.26000001 110626.18916680 4764.11706188
0.26100001 109047.81276037 5142.69509311
0.26200001 107495.24525040 4240.68762578
0.26300001 105964.97857391 5455.07735511
0.26400001 104459.13252763 4567.47578590
0.26500001 102976.09850903 4519.62117742
0.26600001 101515.19519890 4065.68376010
0.26700001 100076.54224804 4827.69262649
0.26800001 98659.85985874  5175.20319379
0.26900001 97263.57643507  4333.09253523
0.27000001 95888.70532970  4677.45126733
0.27100001 94533.78779722  5014.07234204
0.27200001 93199.59854799  4198.17611527
0.27300001 91884.86890845  5664.70243628
0.27400001 90587.76776223  4484.09471644
0.27500001 89311.86252037  4067.26241166
0.27600001 88052.00915747  5121.98561509
0.27700001 86812.21827393  4706.09057535
0.27800001 85589.08915607  3940.09390577
0.27900001 84383.96626872  4961.77745143
0.28000001 83195.57704835  3857.36311241
0.28100001 82024.10308932  3469.61972489
0.28200001 80869.61829022  3432.91545890
0.28300001 79731.05711342  3396.54319379
0.28400001 78607.91154197  4368.63489072
0.28500001 77501.03968358  4322.23318773
0.28600001 76409.24770844  3618.36009650
0.28700001 75333.12325796  4556.14751030
0.28800001 74270.41165344  4185.50924684
0.28900001 73223.93754216  4459.33800739
0.29000001 72191.05769301  4411.59574444
0.29100001 71172.84413267  3740.84486469
0.29200001 70168.11173069  3392.27752220
0.29300001 69177.30470503  3050.71928190
0.29400001 68199.30949096  3621.38350539
0.29500001 67235.89782131  3283.80140504
0.29600001 66284.09676100  3248.25231554
0.29700001 65346.00595612  3213.06326496
0.29800001 64420.57261809  3467.11538243
0.29900001 63508.05881211  3143.64906002
0.30000001 62606.80028833  3109.36688352
0.30100001 61718.93490964  3075.45467214
0.30200001 60842.05934985  3318.32607403
0.30300001 59977.87651206  3008.49042827
0.30400001 59125.22813026  3245.97517802
0.30500001 58284.57947665  3210.31478956
0.30600001 57454.19954090  3174.91921694
0.30700001 56636.10127112  3663.22320364
0.30800001 55828.92407269  3105.20490393
0.30900001 55033.06625411  3582.65278276
0.31000001 54248.20540989  2530.67890219
0.31100001 53473.64917398  3753.85034974
0.31200001 52710.79980258  2969.72660148
0.31300001 51957.76424383  3426.09513645
0.31400001 51216.69196217  2903.98657175
0.31500001 50484.82053634  3350.17284941
0.31600002 49764.52755381  2602.93373694
0.31700002 49053.81038750  2573.85355290
0.31800002 48353.07042538  2776.43343529
0.31900002 47663.32805194  2974.19181127
0.32000002 46983.79851507  2940.95100730
0.32100002 46313.79670561  2684.34778416
0.32200002 45654.74536777  2875.56427315
0.32300002 45004.00855230  2624.63390305
0.32400002 44364.38446729  3460.42215230
0.32500002 43734.21941842  3207.90514624
0.32600002 43113.95619295  2749.16154682
0.32700002 42503.47124942  2718.52214984
0.32800002 41903.54000560  2481.52775664
0.32900002 41311.29374089  2658.38187811
0.33000002 40730.08023998  2224.47343764
0.33100002 40157.31477110  2599.78468139
0.33200002 39595.62941051  2571.14231753
0.33300002 39042.52928241  1956.03080968
0.33400002 38499.42747262  2321.51558654
0.33500002 37965.34156423  2296.14396654
0.33600002 37440.31965491  2460.39072264
0.33700002 36924.53382949  1872.07395381
0.33800002 36418.96367977  2222.28526898
0.33900002 35921.84017490  2015.21532925
0.34000002 35433.99933535  2537.42881257
0.34100002 34955.49871759  1793.21716914
0.34200002 34486.90814414  1951.78665885
0.34300002 34026.71771108  2458.09020386
0.34400002 33576.23473289  1911.32725269
0.34500002 33134.41635185  2235.57917714
0.34600002 32702.27993318  2042.58450136
0.34700002 32277.99386259  2190.38476725
0.34800002 31863.67684427  2001.67627416
0.34900002 31457.77307760  2146.99311423
0.35000002 31061.17140481  1962.44490230
0.35100002 30674.12763387  1943.51281893
0.35200002 30294.24747158  2085.30462347
0.35300002 29924.59903328  2383.49442589
0.35400002 29563.17677061  1731.66316136
0.35500002 29210.82666020  2651.75896981
0.35600002 28866.69764242  2164.13642476
0.35700002 28531.19351204  1838.55019700
0.35800002 28204.70814518  1822.58832667
0.35900002 27887.24675684  2560.04937354
0.36000002 27578.02235433  1642.68497934
0.36100002 27276.70900780  1629.23790621
0.36200002 26985.30448157  2350.95983779
0.36300002 26700.99687783  1603.66194844
0.36400002 26425.53779874  1880.83774192
0.36500002 26157.74222654  1436.06011626
0.36600002 25899.02508597  1568.31553837
0.36700002 25648.00541394  1698.92395909
0.36800002 25405.88906720  1687.45923178
0.36900002 25171.66107111  1676.43270675
0.37000002 24944.85450693  1943.45370670
0.37100002 24726.01008450  1655.65371369
0.37200002 24515.82810665  1645.99277705
0.37300002 24313.08917136  2045.94655069
0.37400002 24118.07711168  1627.97028216
0.37500002 23930.96578855  1889.58914818
0.37600002 23751.73324520  1477.47663651
0.37700002 23579.76961128  2272.85410050
0.37800002 23415.38840087  1464.28138301
0.37900002 23259.14413907  1458.34840661
0.38000002 23109.58535309  1848.99801169
0.38100002 22966.64788369  1447.58788469
0.38200002 22832.10291911  1574.04524981
0.38300002 22703.87228084  1961.61465799
0.38400002 22583.13959081  1825.84692242
0.38500002 22468.88591929  1691.23312327
0.38600002 22362.28180419  1427.94357225
0.38700002 22261.70082134  1684.32036394
0.38800002 22167.77267848  1552.18751648
0.38900002 22080.53503532  1679.22476899
0.39000002 22000.38092208  1548.38688265
0.39100002 21925.81015035  1418.16146771
0.39200002 21858.13189635  1417.39062997
0.39300002 21796.10429725  2061.03971999
0.39400002 21741.41356916  1416.99669650
0.39500002 21691.41896984  1417.31738264
0.39600002 21647.76843621  1546.94960574
0.39700002 21609.19713982  1935.10369555
0.39800002 21577.44153485  1807.97391186
0.39900002 21550.35618740  1551.62571901
0.40000002 21529.07313943  1683.46595390
0.40100002 21512.76699673  1686.38588477
0.40200002 21502.31822759  1429.79671829
0.40300002 21496.60392604  1693.50253753
0.40400002 21495.92134471  1567.05274028
0.40500002 21499.79195800  1702.13860996
0.40600002 21509.32902341  1444.45905901
0.40700002 21523.02167815  1975.81348367
0.40800002 21541.00272475  1453.69463776
0.40900002 21563.16084832  1591.36134601
0.41000002 21590.35553545  1464.15003001
0.41100002 21621.36662931  1603.44062520
0.41200002 21655.68643799  1878.19777376
0.41300002 21695.31939213  1616.73527771
0.41400002 21737.84622319  1488.49909066
0.41500002 21784.15703097  1767.13090208
0.41600002 21833.17430888  1638.79814128
0.41700002 21887.02838688  1372.31674488
0.41800002 21944.45814750  1655.05111191
0.41900002 22003.26796768  1940.68832671
0.42000002 22065.81049646  1672.14719866
0.42100002 22131.99811114  1681.14665618
0.42200002 22200.63928919  1690.35675558
0.42300002 22271.62104668  1558.12268226
0.42400002 22345.11703941  1994.30179027
0.42500002 22421.51317918  1719.28171205
0.42600002 22498.98685659  1729.27221174
0.42700002 22579.91631035  1594.59376540
0.42800002 22662.16720934  2041.63474064
0.42900002 22747.32755338  1760.64323606
0.43000002 22833.86113702  2214.31378869
0.43100002 22920.77733853  2227.89966288
0.43200002 23010.61674981  1942.90151734
0.43300002 23101.10453235  1804.65837159
0.43400002 23193.47138433  1664.71148750
0.43500002 23286.45477213  1522.93421427
0.43600002 23381.23983952  2145.69648175
0.43700002 23476.33401751  2467.83234887
0.43800002 23571.78378623  2173.08285023
0.43900002 23669.08631301  2030.80770190
0.44000002 23766.24009211  2043.77791357
0.44100002 23864.26862964  2215.08151918
0.44200002 23962.52010700  1910.77144388
0.44300002 24061.21027501  1762.72434828
0.44400002 24159.81439809  1773.93445625
0.44500002 24258.06519235  1947.43756593
0.44600002 24356.18207944  2123.00671157
0.44700002 24455.19502552  2300.74485704
0.44800002 24552.76898117  1818.99197617
0.44900002 24650.60315064  1663.91579152
0.45000002 24748.34174239  2678.76063715
0.45100002 24844.49779927  2189.79413981
0.45200002 24940.45536671  2033.64482698
0.45300002 25035.32775112  2045.88708078
0.45400002 25129.55649055  1715.09231176
0.45500002 25223.13964820  2587.89425055
0.45600002 25315.14296481  2082.42375898
0.45700002 25406.42473537  2618.13219306
0.45800002 25496.10608191  2106.48838432
0.45900002 25584.44640795  2294.92495156
0.46000002 25671.86226708  1952.73029589
0.46100002 25757.06734185  2855.94376222
0.46200002 25841.26054913  1794.67563020
0.46300002 25923.75522158  1984.72279383
0.46400002 26004.00380619  2539.29109203
0.46500002 26083.64702092  2552.54581845
0.46600002 26160.21675500  2015.77559760
0.46700002 26235.06654079  2210.04211014
0.46800002 26308.65805056  2035.89559974
0.46900002 26379.45362104  2045.72672527
0.47000002 26448.29769152  1868.57232047
0.47100002 26515.15690249  2628.18247674
0.47200002 26579.93849648  1885.84672571
0.47300002 26642.31148352  2462.54896714
0.47400002 26701.80340954  1902.50358310
0.47500002 26759.38801203  3439.11671031
0.47600002 26815.15240391  2877.93636816
0.47700002 26867.38415846  2504.30899611
