# SAXS profile: number of points = 501, q_min = 0, q_max = 0.5, delta_q = 0.001
#    q    intensity    error
0.00000000 1664650.74656090 274.66737318
0.00100000 1664568.77196403 599.24477214
0.00200000 1664322.78448315 898.73433208
0.00300000 1663913.01446543 1198.01741309
0.00400000 1663339.33411740 1497.00545759
0.00500000 1662602.22679430 2244.51309501
0.00600000 1661701.63458116 3838.53093216
0.00700000 1660638.11879166 2192.04240791
0.00800000 1659411.48195269 2688.24671426
0.00900000 1658022.95699848 2735.73799599
0.01000000 1656471.95559452 3279.81461370
0.01100000 1654759.75169331 3574.28121928
0.01200000 1652886.25339023 3867.75400251
0.01300000 1650852.60883752 4853.50688405
0.01400000 1648658.90809922 5193.27579074
0.01500000 1646306.51265082 4346.24938693
0.01600000 1643794.84729576 5449.18016238
0.01700000 1641126.19087032 4431.04091412
0.01800000 1638300.41457752 5136.07203081
0.01900000 1635318.32800087 6377.74176698
0.02000000 1632181.12844201 5141.37078717
0.02100000 1628890.64609557 7525.47512616
0.02200000 1625445.56677839 6729.34495219
0.02300000 1621849.15922615 8174.12013457
0.02400000 1618100.83704994 9101.81762343
0.02500000 1614203.28948394 6295.39311650
0.02600000 1610156.44687516 7825.36068973
0.02700000 1605962.45683670 10117.56394147
0.02800000 1601621.11867835 6967.05218576
0.02900000 1597135.18028934 7905.81950542
0.03000000 1592505.75519064 9626.69773262
0.03100000 1587733.29261146 7621.12015521
0.03200000 1582819.20436429 8618.45096471
0.03300000 1577767.43764461 10460.59859382
0.03400000 1572576.16206622 10732.83280132
0.03500000 1567248.35477707 9309.45565727
0.03600000 1561785.49739912 10401.49189337
0.03700000 1556189.22196713 8870.27897544
0.03800000 1550461.38794059 9977.21949314
0.03900000 1544603.66216542 9267.62240218
0.04000000 1538616.24826889 16086.23362107
0.04100000 1532502.96380643 10620.24603160
0.04200000 1526264.65399691 10828.84822249
0.04300000 1519902.32190404 12037.62694824
0.04400000 1513419.48783452 14301.81482424
0.04500000 1506817.63233752 12476.45057547
0.04600000 1500096.49561146 12690.81694283
0.04700000 1493260.56115820 10751.47654037
0.04800000 1486310.21960987 13109.25674691
0.04900000 1479249.33055577 11094.37049558
0.05000000 1472077.13995327 14639.80783855
0.05100000 1464798.77081926 11425.43094463
0.05200000 1457412.00097763 17379.63892157
0.05300000 1449923.40532544 12918.81814370
0.05400000 1442332.49027169 11899.24359965
0.05500000 1434642.09433956 14461.19298555
0.05600000 1426853.13727999 14639.51387163
0.05700000 1418970.97123835 17283.06723643
0.05800000 1410994.44181990 17482.22195044
0.05900000 1402926.00089061 13888.96805751
0.06000000 1394769.73355973 12762.14365830
0.06100000 1386526.83024980 16763.11016108
0.06200000 1378199.47340684 16931.18132223
0.06300000 1369790.87544338 19724.98952863
0.06400000 1361299.94555936 17254.47761690
0.06500000 1352732.59521742 20088.07997865
0.06600000 1344089.99127668 14858.91554879
0.06700000 1335373.42987732 16344.97154663
0.06800000 1326586.46779669 19222.23881815
0.06900000 1317731.43086245 23521.50714215
0.07000000 1308809.39216199 18120.46688304
0.07100000 1299823.04116055 18249.51635266
0.07200000 1290775.11677367 18374.18464804
0.07300000 1281668.14661241 17071.82051279
0.07400000 1272504.70844901 17178.81436913
0.07500000 1263286.05083126 18721.90015086
0.07600000 1254013.59676066 14483.85772160
0.07700000 1244692.67538954 17475.48598187
0.07800000 1235323.38700409 17566.29938699
0.07900000 1225907.67081063 20595.24983561
0.08000000 1216450.27235515 17735.84580295
0.08100000 1206951.51149589 16330.05471672
0.08200000 1197413.28670922 17889.35534290
0.08300000 1187839.44819231 14966.77774964
0.08400000 1178231.19366781 16524.69326684
0.08500000 1168591.27376101 15074.82813921
0.08600000 1158921.42106950 15123.92525505
0.08700000 1149225.39582091 18203.73112461
0.08800000 1139502.92295814 18254.83768311
0.08900000 1129759.14665695 19827.27395511
0.09000000 1119994.08076785 16816.71191270
0.09100000 1110210.46511195 24513.44822134
0.09200000 1100410.06581955 16885.79325341
0.09300000 1090598.26211196 16915.17984024
0.09400000 1080771.63285094 20021.29543951
0.09500000 1070935.78098651 16963.62356816
0.09600000 1061092.33177574 20070.56239901
0.09700000 1051245.12029028 18543.96479372
0.09800000 1041394.33852430 20104.11865046
0.09900000 1031542.94048749 18567.77380188
0.10000000 1021691.05952375 17026.48230767
0.10100000 1011842.05231028 17029.30254130
0.10200000 1001998.32513236 18577.04982175
0.10300000 992160.76955965 21668.79222650
0.10400000 982333.14029175 24754.79629994
0.10500000 972517.68571251 27833.45747464
0.10600001 962711.75997314 23177.28671193
0.10700001 952922.90020349 23156.02756461
0.10800001 943149.62710524 24672.79540622
0.10900001 933395.95001039 16941.13729003
0.11000001 923661.37166288 19992.65133069
0.11100001 913949.04978542 18425.21371101
0.11200001 904260.73743359 18392.66426527
0.11300001 894597.81959436 15297.62343529
0.11400001 884962.68962967 16792.16782637
0.11500001 875356.94042179 18277.45377666
0.11600001 865781.67506311 15194.46911289
0.11700001 856239.51510232 18186.52815727
0.11800001 846729.89941877 22671.19412471
0.11900001 837255.82481260 16577.66611212
0.12000001 827817.73753432 21034.84970159
0.12100001 818420.93099749 14977.10374280
0.12200001 809063.04774975 16419.93532765
0.12300001 799747.44651780 16362.83352668
0.12400001 790473.81814478 14821.38478856
0.12500001 781243.98555981 16242.06322512
0.12600001 772061.79443141 17649.33345240
0.12700001 762925.78411329 14648.17574529
0.12800001 753837.96821160 17504.11844683
0.12900001 744800.25714622 23237.76911821
0.13000001 735813.76940434 23133.98600049
0.13100001 726878.35037408 15831.41121740
0.13200001 717996.63749141 18621.24367115
0.13300001 709169.72239918 19956.03692910
0.13400001 700397.58443798 17019.66210425
0.13500001 691682.89723838 14110.33176894
0.13600001 683025.46005329 19650.64341228
0.13700001 674427.12174823 13960.64207848
0.13800001 665886.69022310 15272.11196043
0.13900001 657408.37506042 17947.24948551
0.14000001 648990.49668151 20589.22447822
0.14100001 640636.20431853 17739.21733421
0.14200001 632344.32478489 14920.16504701
0.14300001 624117.35922933 16177.12271426
0.14400001 615952.30543458 16076.35593016
0.14500001 607855.33940185 14643.23581694
0.14600001 599824.08657362 19839.18259932
0.14700001 591860.62565545 22336.82106601
0.14800001 583962.26141737 14356.71287428
0.14900001 576133.35673471 18148.20159339
0.15000001 568372.68105897 24459.91948346
0.15100001 560681.10701523 19175.29476471
0.15200001 553060.58604866 13962.01515362
0.15300001 545509.91370933 15121.53552159
0.15400001 538028.26884691 13760.07362511
0.15500001 530619.35371177 17383.09084796
0.15600001 523280.14363561 13555.57276063
0.15700001 516015.71501293 18344.35953451
0.15800001 508820.19632340 14562.43470610
0.15900001 501699.38635312 19265.25734529
0.16000001 494648.72433366 15529.49743349
0.16100001 487673.62178720 15405.61043947
0.16200001 480771.01364289 16456.79257386
0.16300001 473941.31351682 11658.95686291
0.16400001 467185.65300934 16187.98364100
0.16500001 460502.76694951 11466.51943839
0.16600001 453894.19087536 11370.05001824
0.16700001 447358.71183981 15782.81609889
0.16800001 440897.05501242 17882.78539566
0.16900001 434510.40305519 16620.02370163
0.17000001 428196.07941294 15376.52193779
0.17100001 421956.25631356 16329.70789044
0.17200001 415789.93911087 11868.72437240
0.17300001 409697.07789448 13901.02250943
0.17400001 403678.71608618 16954.50687631
0.17500001 397732.38542152 11550.14901813
0.17600001 391858.44433718 13524.99484507
0.17700001 386060.15652916 14430.92933264
0.17800001 380332.71949021 11233.12740071
0.17900001 374677.94721622 14162.82707373
0.18000001 369096.53523056 17035.65138825
0.18100001 363587.66474856 12903.72683145
0.18200001 358148.60191233 10814.29754559
0.18300001 352781.63675784 11684.12836137
0.18400001 347485.99618267 12535.55790448
0.18500001 342261.41237956 17188.36894172
0.18600001 337107.38467565 17966.13891507
0.18700001 332022.94311955 14980.87590132
0.18800001 327006.58314489 12978.89189822
0.18900001 322062.95255025 11014.55349763
0.19000001 317184.01585650 15448.44822221
0.19100001 312376.15299806 8996.43363143
0.19200001 307634.64613998 11577.83045455
0.19300001 302962.28558544 9697.82321984
0.19400001 298355.00569646 17453.76865800
0.19500001 293814.82958835 12093.41895733
0.19600001 289339.53100118 10259.98025415
0.19700001 284931.38189603 9308.70868645
0.19800001 280586.62062144 9213.06212350
0.19900001 276306.57195244 9118.11730535
0.20000001 272088.73588128 10664.51850688
0.20100001 267935.56923059 12989.51701021
0.20200001 263843.62252089 10444.25029112
0.20300001 259813.94697274 10335.39929907
0.20400001 255846.02550346 7867.26565608
0.20500001 251937.83313903 10898.83117675
0.20600001 248089.37046880 13095.39803919
0.20700001 244300.75935632 8384.40245743
0.20800001 240570.12401093 10558.62324195
0.20900001 236900.05034800 11193.52790808
0.21000001 233284.40442380 9598.48727376
0.21100001 229726.87417140 10957.97241600
0.21200001 226224.21604103 7227.86404420
0.21300001 222777.10431303 7866.25992517
0.21400001 219385.02650215 7782.68418310
0.21500001 216048.05414225 8399.94874218
0.21600001 212762.53511923 9003.04709922
0.21700001 209530.40324544 8907.13786309
0.21800001 206350.38882602 8134.33271212
0.21900001 203220.85218774 9388.80381499
0.22000001 200141.26534472 9952.02488982
0.22100001 197113.18759188 7220.25640289
0.22200001 194133.69139781 6493.77228431
0.22300001 191202.17081038 7709.27189161
0.22400001 188317.91714884 8898.02200604
0.22500001 185482.75793609 9431.79868705
0.22600001 182692.02599939 6842.73015739
0.22700001 179947.95554445 8000.48648184
0.22800001 177248.35811960 7306.17766720
0.22900001 174592.44364961 6625.78354984
0.23000001 171980.70468532 5959.13169916
0.23100001 169413.03812487 10022.47580946
0.23200001 166885.70820493 5832.65577761
0.23300001 164401.25495859 7501.62961855
0.23400001 161956.68221011 6279.87064971
0.23500001 159552.00812744 10731.46857421
0.23600001 157187.30309473 8382.01333397
0.23700001 154861.57125040 6081.41419064
0.23800001 152573.62794672 6563.71778472
0.23900001 150323.47794137 5411.64546186
0.24000001 148109.60996951 8031.24398048
0.24100001 145933.09850432 6886.58324416
0.24200001 143792.13420030 7337.71295533
0.24300001 141685.39137310 5704.25412651
0.24400001 139613.31068652 8209.26305670
0.24500001 137574.30032453 5076.49192212
0.24600001 135568.82482992 6027.39023706
0.24700001 133596.28352980 4969.78198241
0.24800001 131655.23598019 4917.32329648
0.24900001 129744.60490172 5351.96520538
0.25000001 127865.84394347 5776.97910266
0.25100001 126016.28208251 6668.78196330
0.25200001 124198.22516509 5655.98744160
0.25300001 122407.54278310 5596.47312081
0.25400001 120646.43179600 5076.19885798
0.25500001 118911.56621484 5479.44523042
0.25600001 117205.39334895 7229.22900380
0.25700001 115525.22664223 6259.15707562
0.25800001 113871.53979849 6193.47334268
0.25900001 112244.47098109 4377.53457538
0.26000001 110641.90645975 6497.44626428
0.26100001 109063.70048865 5572.06472161
0.26200001 107511.22609414 5513.71349113
0.26300001 105981.03114169 6714.95845087
0.26400001 104475.31016602 4983.47253073
0.26500001 102992.29413011 4931.27127629
0.26600001 101531.38891578 5692.86524589
0.26700001 100092.79331528 5633.22267435
0.26800001 98676.21789336  6370.53692865
0.26900001 97279.91652454  5515.77152796
0.27000001 95905.10455585  5847.81402702
0.27100001 94550.21468939  4243.41383607
0.27200001 93216.07456542  4198.91827751
0.27300001 91901.23554498  6043.42553544
0.27400001 90604.26741792  5232.39669101
0.27500001 89328.22574189  5177.46420903
0.27600001 88068.41558712  5122.93997715
0.27700001 86828.64663720  4344.90568336
0.27800001 85605.49529830  3940.84916257
0.27900001 84400.28647985  5671.69951988
0.28000001 83211.81863212  4910.32964988
0.28100001 82040.37921956  4164.36984628
0.28200001 80885.75077751  3776.96031132
0.28300001 79747.18114814  4076.67609324
0.28400001 78623.91385089  3697.28972383
0.28500001 77516.91902309  4655.66637689
0.28600001 76425.08622086  4277.13015280
0.28700001 75348.89174290  5533.62287152
0.28800001 74286.07948250  4508.42237719
0.28900001 73239.51119961  3504.51077678
0.29000001 72206.47113067  3151.81261404
0.29100001 71188.14173407  4365.25705776
0.29200001 70183.25751001  3393.00974493
0.29300001 69192.27923303  4271.93152206
0.29400001 68214.18310844  3320.32551998
0.29500001 67250.57545486  4180.29596816
0.29600001 66298.66857426  3839.68757224
0.29700001 65360.35285461  3798.09028418
0.29800001 64434.83548705  3178.89275924
0.29900001 63522.02650420  3430.18959361
0.30000001 62620.71522285  3392.79051139
0.30100001 61732.56443213  4194.72795174
0.30200001 60855.51819327  3595.64846267
0.30300001 59991.13221460  3009.15533434
0.30400001 59138.23116287  2976.13162417
0.30500001 58297.41115934  2943.43642878
0.30600001 57466.80105262  2646.34631376
0.30700001 56648.52899873  2878.87838001
0.30800001 55841.09261762  3105.88171844
0.30900001 55044.98652234  3839.38799171
0.31000001 54259.84640100  2531.22195445
0.31100001 53485.08632975  3003.72259049
0.31200001 52721.93045416  3465.41265282
0.31300001 51968.65863734  2692.49633148
0.31400001 51227.39479475  3146.64287425
0.31500001 50495.21001984  3111.51498874
0.31600002 49774.67069587  2840.14284438
0.31700002 49063.64874938  3276.47061862
0.31800002 48362.69607918  2545.57062866
0.31900002 47672.64838637  2745.94467707
0.32000002 46992.75046979  2488.97114648
0.32100002 46322.47494586  3356.06346874
0.32200002 45663.14919770  2654.85562006
0.32300002 45012.06625940  2406.34517617
0.32400002 44372.21650852  3244.71848583
0.32500002 43741.75809003  2138.97207189
0.32600002 43121.14648539  2326.60156879
0.32700002 42510.37727769  2509.81279332
0.32800002 41910.14326610  2688.74536856
0.32900002 41317.57918218  2249.74229300
0.33000002 40736.04079242  3033.81678168
0.33100002 40162.94600733  2400.13776705
0.33200002 39600.97022977  3164.90969064
0.33300002 39047.55797261  2543.16757119
0.33400002 38504.07147718  2321.79562002
0.33500002 37969.68915660  1913.67242412
0.33600002 37444.36002238  2460.65623540
0.33700002 36928.29306976  2059.49100203
0.33800002 36422.33119932  2407.69831795
0.33900002 35924.89294436  2565.03747770
0.34000002 35436.74305045  2900.14318859
0.34100002 34957.90024312  2331.34247762
0.34200002 34489.00965709  2129.35155707
0.34300002 34028.45372740  2107.04195459
0.34400002 33577.60857711  2432.69785662
0.34500002 33135.51897360  1719.73351618
0.34600002 32703.02174904  1872.41159892
0.34700002 32278.39768534  1853.42568287
0.34800002 31863.78305332  2335.29677058
0.34900002 31457.56429521  1816.67442409
0.35000002 31060.60795725  1635.34108640
0.35100002 30673.24360783  2105.41154096
0.35200002 30293.03468464  1924.81951503
0.35300002 29923.06984252  1747.80659228
0.35400002 29561.32360350  2203.79677902
0.35500002 29208.65332908  2495.58745864
0.35600002 28864.13022238  2009.37652060
0.35700002 28528.32890410  2757.54840248
0.35800002 28201.50188589  2277.97642273
0.35900002 27883.77660642  1806.86880968
0.36000002 27574.29507193  2090.40740842
0.36100002 27272.65096875  1777.08602130
0.36200002 26980.95282988  1469.11295117
0.36300002 26696.31370175  1457.61879716
0.36400002 26420.64888245  1735.83671380
0.36500002 26152.46086901  2297.23227155
0.36600002 25893.51149536  1567.98166287
0.36700002 25642.15478472  2123.17051675
0.36800002 25399.75878810  1687.05205862
0.36900002 25165.21058609  1676.00310442
0.37000002 24938.15864892  1387.80859455
0.37100002 24719.07577365  1517.25694286
0.37200002 24508.67441087  1919.76455754
0.37300002 24305.63454974  1499.90077912
0.37400002 24110.32062530  1898.68783918
0.37500002 23923.00265340  1349.25741357
0.37600002 23743.49002328  1879.77219419
0.37700002 23571.27219669  1470.14031655
0.37800002 23406.62118738  1330.66647754
0.37900002 23250.20014354  1855.36605935
0.38000002 23100.37298664  1980.27956809
0.38100002 22957.21211569  1446.99314820
0.38200002 22822.44446137  1573.37939570
0.38300002 22694.01010146  1699.32755690
0.38400002 22573.12141712  1564.31738831
0.38500002 22458.54639655  1690.45486735
0.38600002 22351.83275508  1946.28592935
0.38700002 22251.01678935  1683.51201004
0.38800002 22156.93942109  1680.71471941
0.38900002 22069.48111013  1678.38411794
0.39000002 21989.19005726  1418.63266375
0.39100002 21914.39802216  1675.13666418
0.39200002 21846.56087871  2060.56771970
0.39300002 21784.42185947  1802.44315005
0.39400002 21729.55869493  1673.71933777
0.39500002 21679.45685707  1674.08773782
0.39600002 21635.59394498  1803.75955265
0.39700002 21596.93876753  1418.27103606
0.39800002 21565.09430515  1290.67095531
0.39900002 21537.85397469  1421.49842968
0.40000002 21516.48447211  1423.63826255
0.40100002 21500.04815829  1555.74355844
0.40200002 21489.45053130  1558.84481540
0.40300002 21483.69704701  1432.10331301
0.40400002 21482.92911443  2088.14080886
0.40500002 21486.74289239  1570.25124498
0.40600002 21496.22928875  1574.81383231
0.40700002 21509.81298037  1579.68074013
0.40800002 21527.76727800  1452.80144359
0.40900002 21549.84092635  1457.84680774
0.41000002 21577.00190258  1596.26667639
0.41100002 21607.99350772  2003.06109308
0.41200002 21642.28871104  1877.03578885
0.41300002 21681.88578500  1885.02323947
0.41400002 21724.41913783  1487.57967095
0.41500002 21770.70689726  1630.19060971
0.41600002 21819.68413668  1637.78556890
0.41700002 21873.58470052  1645.76859085
0.41800002 21931.00526992  2343.21836910
0.41900002 21989.83535973  1523.89566264
0.42000002 22052.36847210  2228.17141600
0.42100002 22118.60077945  1960.15049396
0.42200002 22187.35749328  1689.34547959
0.42300002 22258.33210599  2972.82297694
0.42400002 22331.89051678  1850.75551428
0.42500002 22408.33882901  1718.27150283
0.42600002 22485.91659287  2016.31223643
0.42700002 22566.88711774  1738.55306593
0.42800002 22649.23367036  1603.22608133
0.42900002 22734.49946530  1759.65034200
0.43000002 22821.11696991  1770.46233842
0.43100002 22908.14112152  1781.33713802
0.43200002 22998.05726320  1493.72389003
0.43300002 23088.66578042  2104.30109895
0.43400002 23181.14245942  1815.08354059
0.43500002 23274.23778262  1978.77579005
0.43600002 23369.17059272  1685.03412544
0.43700002 23464.34715089  2004.08998513
0.43800002 23559.98763217  1861.71031092
0.43900002 23657.43573229  2185.94716525
0.44000002 23754.77370014  2514.20536757
0.44100002 23852.91010158  2214.02722055
0.44200002 23951.37886276  1750.72612094
0.44300002 24050.24415619  2082.27023772
0.44400002 24149.00202151  2095.52974972
0.44500002 24247.44555374  1946.58502130
0.44600002 24345.72344606  1958.85700130
0.44700002 24444.96866583  2628.32315551
0.44800002 24542.67579129  1818.24422217
0.44900002 24640.70979908  2162.22238734
0.45000002 24738.69909853  2008.28768800
0.45100002 24835.06928355  2357.34488811
0.45200002 24931.27403477  2032.89618114
0.45300002 25026.35456951  2556.44224043
0.45400002 25120.81168102  1885.94502633
0.45500002 25214.60113784  1897.14667952
0.45600002 25306.83044457  2081.73997103
0.45700002 25398.36330102  1919.35440562
0.45800002 25488.24977130  2105.83929591
0.45900002 25576.85648934  2117.76381769
0.46000002 25664.49242711  1774.69973545
0.46100002 25749.92292000  2498.25764010
0.46200002 25834.42911457  2153.04142445
0.46300002 25917.16809318  2344.98548021
0.46400002 25997.69062731  1994.67290792
0.46500002 26077.56972973  2187.38665260
0.46600002 26154.46373205  2015.33229839
0.46700002 26229.57392311  2025.44779434
0.46800002 26303.41333344  3330.80138828
0.46900002 26374.53402623  2417.22615807
0.47000002 26443.58554298  1868.23940716
0.47100002 26510.76601387  2064.65855502
0.47200002 26575.83903406  2451.22262949
0.47300002 26638.45709549  2083.39382819
0.47400002 26698.23531897  3424.04884195
0.47500002 26756.10629033  2292.46329561
0.47600002 26812.21431839  1918.41402541
0.47700002 26864.70759354  2118.81958833
