# SAXS profile: number of points = 501, q_min = 0, q_max = 0.5, delta_q = 0.001
#    q    intensity    error
0.00000000 1682732.95097188 328.13292544
0.00100000 1682650.46115225 807.67224053
0.00200000 1682402.93626360 908.49761435
0.00300000 1681990.59927748 1513.79159328
0.00400000 1681413.32593095 1387.16604660
0.00500000 1680671.61594651 1815.12541707
0.00600000 1679765.38100341 2822.00595498
0.00700000 1678695.18726434 2618.76460097
0.00800000 1677460.87469321 3623.31564231
0.00900000 1676063.65508360 3268.32426713
0.01000000 1674502.91934930 3315.51592347
0.01100000 1672779.96188536 3613.20487499
0.01200000 1670894.69237902 3909.89375159
0.01300000 1668848.30002539 4205.49790155
0.01400000 1666640.78926465 3749.94194208
0.01500000 1664273.62773793 6790.23670353
0.01600000 1661746.15751779 5084.94346932
0.01700000 1659060.66732800 5823.30320355
0.01800000 1656217.09431518 5192.24082432
0.01900000 1653216.28097587 5455.61397339
0.02000000 1650059.19584669 5717.45537224
0.02100000 1646747.96585294 6521.12224044
0.02200000 1643281.11642458 6236.25212016
0.02300000 1639661.90252304 7083.33974132
0.02400000 1635889.88078364 7974.96353246
0.02500000 1631967.64150700 8274.07632032
0.02600000 1627895.05788124 9230.16540036
0.02700000 1623674.46212966 8183.31966394
0.02800000 1619305.51226954 11974.76481239
0.02900000 1614790.96555603 7993.21564650
0.03000000 1610132.03635197 8235.82574450
0.03100000 1605329.05293063 9246.69577035
0.03200000 1600383.59875145 10298.46893229
0.03300000 1595299.58491177 9763.23390975
0.03400000 1590074.80360031 9182.68241448
0.03500000 1584712.88339236 8557.44996549
0.03600000 1579214.87145850 8764.64294164
0.03700000 1573582.59302535 15248.01603160
0.03800000 1567817.75452861 11006.08114615
0.03900000 1561922.22226428 10308.68714434
0.04000000 1555895.97713030 10525.63677303
0.04100000 1549743.03902152 10739.71975838
0.04200000 1543464.26838419 10950.87949223
0.04300000 1537060.55704598 11159.06016213
0.04400000 1530535.56581318 16529.78487846
0.04500000 1523890.43840533 11566.32896492
0.04600000 1517125.39054083 11765.30795058
0.04700000 1510244.51124244 15223.26538133
0.04800000 1503248.58643184 15468.42867410
0.04900000 1496141.06418403 11221.05850369
0.05000000 1488921.72789880 15946.35244836
0.05100000 1481595.08389732 13867.73063129
0.05200000 1474159.44885295 16407.39543034
0.05300000 1466621.07684673 14255.55753151
0.05400000 1458979.54695878 13240.24000609
0.05500000 1451237.86367802 14628.47834828
0.05600000 1443396.86730752 17277.46130791
0.05700000 1435461.87441705 13737.37077941
0.05800000 1427431.62895171 17685.87870851
0.05900000 1419308.92301198 21715.42753632
0.06000000 1411097.36561241 12911.54149857
0.06100000 1402798.68335348 16959.83687430
0.06200000 1394414.83111888 14494.94284703
0.06300000 1385948.96221950 17296.64385721
0.06400000 1377399.93198667 14772.61496142
0.06500000 1368774.03865302 14905.94997820
0.06600000 1360071.90837452 16402.46798244
0.06700000 1351295.53570031 17918.17964194
0.06800000 1342447.78843313 22230.93641706
0.06900000 1333531.42815476 21003.12097678
0.07000000 1324547.26528253 14106.42903584
0.07100000 1315498.43782965 21311.07569100
0.07200000 1306387.16363919 17165.92813439
0.07300000 1297216.39714920 14399.10268303
0.07400000 1287988.38271739 18836.83098001
0.07500000 1278704.74604419 18950.40522463
0.07600000 1269366.49748956 19059.53885333
0.07700000 1259979.30821304 14741.75859731
0.07800000 1250543.22548047 22228.40687534
0.07900000 1241060.21494859 16381.99560570
0.08000000 1231534.92416457 16459.46503359
0.08100000 1221967.70245055 18036.24413440
0.08200000 1212360.55584346 21131.44547995
0.08300000 1202717.11245258 22731.35449218
0.08400000 1193039.04045616 19774.62302376
0.08500000 1183328.44739328 18317.92522559
0.08600000 1173587.87596693 16846.85475049
0.08700000 1163820.35682902 16898.67237468
0.08800000 1154026.06340551 20028.12327100
0.08900000 1144209.96451685 15446.83524651
0.09000000 1134372.12371037 21677.85230243
0.09100000 1124515.41169343 23277.47011566
0.09200000 1114641.48327443 17104.17436452
0.09300000 1104755.67755684 17134.76136411
0.09400000 1094854.68387405 18722.01597413
0.09500000 1084944.07914357 20310.15411620
0.09600000 1075025.30241872 17205.78077402
0.09700000 1065102.92011623 21919.81912650
0.09800000 1055176.30720092 25070.99023787
0.09900000 1045248.67235596 21950.22315163
0.10000000 1035320.37863665 18822.12536877
0.10100000 1025394.39070310 23532.80237343
0.10200000 1015473.36966040 23533.59644881
0.10300000 1005558.69019238 20392.73119639
0.10400000 995653.37650004 20386.00384290
0.10500000 985759.91258912 25077.73335616
0.10600001 975875.63590960 15662.80469334
0.10700001 966008.55732033 23474.00904752
0.10800001 956156.36044907 18759.78867488
0.10900001 946323.70801941 26544.38125927
0.11000001 936510.06057032 17152.18256669
0.11100001 926718.69090376 20239.53716208
0.11200001 916950.68509952 20205.00929736
0.11300001 907207.93034126 17064.58197313
0.11400001 897492.90179244 21674.45459882
0.11500001 887807.32524657 15447.84818670
0.11600001 878151.69809854 21576.18823834
0.11700001 868529.44191425 19984.86339963
0.11800001 858939.13356802 19931.68353319
0.11900001 849384.28710434 18346.70146561
0.12000001 839865.64885008 15243.56224468
0.12100001 830388.08451469 15196.10266248
0.12200001 820949.36218347 22719.77466879
0.12300001 811552.91091237 16604.37333957
0.12400001 802198.06485898 15041.21442481
0.12500001 792887.30640598 14985.57079720
0.12600001 783623.91340250 19406.44712991
0.12700001 774406.96343807 19329.19871833
0.12800001 765237.81418267 19249.55812298
0.12900001 756118.91393058 20642.04732321
0.13000001 747051.12285125 14679.55525595
0.13100001 738034.54301057 17535.70156852
0.13200001 729071.81041817 17453.97996420
0.13300001 720163.84940721 18817.88227214
0.13400001 711310.44491799 17284.84462641
0.13500001 702514.63960335 14331.29932360
0.13600001 693776.25317678 24237.07454753
0.13700001 685096.88358795 15599.65677487
0.13800001 676475.42983032 14104.51337707
0.13900001 667916.59103204 16831.49888775
0.14000001 659417.92467301 25104.04157622
0.14100001 650982.97805053 15252.53189508
0.14200001 642610.56668493 15162.39703607
0.14300001 634303.48560347 16441.14712233
0.14400001 626058.06625324 21786.82173329
0.14500001 617881.14520364 17591.07703376
0.14600001 609769.66119249 17479.04816265
0.14700001 601726.42524730 17365.82545190
0.14800001 593748.61240322 15924.33853594
0.14900001 585840.02325665 14499.54125970
0.15000001 578000.01683463 14400.87109891
0.15100001 570229.66993742 13001.23708804
0.15200001 562530.00565284 15492.07708670
0.15300001 554900.92301612 17945.49669717
0.15400001 547340.78950806 19088.51093490
0.15500001 539853.55327386 18948.86061417
0.15600001 532436.26433495 20062.19938697
0.15700001 525093.98700907 16178.14650331
0.15800001 517820.86715906 13585.03109111
0.15900001 510622.71391945 17156.92399751
0.16000001 503495.14176530 13375.34907234
0.16100001 496443.20890674 13269.92760047
0.16200001 489464.17345109 15557.61948756
0.16300001 482558.12881505 15432.20968803
0.16400001 475726.65724541 14129.08238722
0.16500001 468968.03787117 15180.49610258
0.16600001 462284.30301336 12738.24457094
0.16700001 455673.56449056 13779.56924079
0.16800001 449137.09543542 11385.62590688
0.16900001 442676.11071813 18061.18617011
0.17000001 436287.78746531 14548.01695998
0.17100001 429974.23942192 12202.66949102
0.17200001 423734.27482681 15394.26693142
0.17300001 417568.46529639 19617.36742604
0.17400001 411477.28430442 11881.40714540
0.17500001 405458.70094962 11774.52123166
0.17600001 399512.61672235 10607.06047494
0.17700001 393642.80332573 12612.31601424
0.17800001 387843.99808573 11454.97302450
0.17900001 382118.18680759 11348.91068424
0.18000001 376466.36230056 12265.27466310
0.18100001 370887.46927230 12150.27406730
0.18200001 365378.41974050 13038.52952435
0.18300001 359942.22957675 10927.84660617
0.18400001 354577.52820085 9839.52687240
0.18500001 349284.37539094 9745.03453378
0.18600001 344062.31781993 11581.13816495
0.18700001 338909.86218419 10512.98442164
0.18800001 333826.11684759 10410.36794574
0.18900001 328815.47639838 10308.36567213
0.19000001 323870.07556479 12062.54153435
0.19100001 318996.15630639 13780.63460357
0.19200001 314188.80230115 10005.34288205
0.19300001 309451.34312800 14408.05521686
0.19400001 304779.15323401 10697.74878402
0.19500001 300174.79063913 11472.68104037
0.19600001 295635.42073172 12230.43793364
0.19700001 291163.71278986 12106.58774993
0.19800001 286755.93168367 10271.59795833
0.19900001 282413.36441206 10166.88159932
0.20000001 278133.30798681 13417.15141139
0.20100001 273918.45499281 14939.51324138
0.20200001 269765.22546329 9857.22180432
0.20300001 265674.87462194 8942.61670244
0.20400001 261646.39259462 10459.31503834
0.20500001 257678.32081590 11147.16468539
0.20600001 253770.56534043 8667.53406890
0.20700001 249922.81959001 10136.87004173
0.20800001 246133.83408969 7716.29606346
0.20900001 242405.62743934 9162.93315035
0.21000001 238732.33088959 9067.05435581
0.21100001 235117.71679570 8972.09249707
0.21200001 231558.61927309 9617.78770618
0.21300001 228055.21895789 8784.68744956
0.21400001 224607.36603132 9416.66426605
0.21500001 221215.10829609 7167.36984765
0.21600001 217874.95170803 7091.83001339
0.21700001 214588.61639133 7718.75289654
0.21800001 211354.77099475 12497.40819980
0.21900001 208171.80268769 10304.50472025
0.22000001 205039.34237630 8156.46542539
0.22100001 201958.84596401 9415.32184403
0.22200001 198927.39273805 9315.77024241
0.22300001 195944.45819918 6583.73410681
0.22400001 193009.07493150 9119.67922175
0.22500001 190123.41519367 9023.25771178
0.22600001 187282.66687413 7014.67261948
0.22700001 184489.10444104 10095.24427241
0.22800001 181740.15094057 8115.60682404
0.22900001 179035.71187569 8029.75205736
0.23000001 176375.86808056 9167.13617702
0.23100001 173760.38033056 7860.91997792
0.23200001 171185.93660573 6581.24364406
0.23300001 168654.58491074 6511.75383137
0.23400001 166163.55298667 7028.71862376
0.23500001 163713.09420546 6954.53257077
0.23600001 161303.01995720 5734.32263069
0.23700001 158932.28699558 11347.76582821
0.23800001 156599.85107726 6175.51541933
0.23900001 154305.69387296 6666.00629061
0.24000001 152048.20102119 10993.08545381
0.24100001 149828.50599341 5438.77502482
0.24200001 147644.93460471 6457.98974509
0.24300001 145495.99873950 5857.66918634
0.24400001 143381.94969903 7377.00166097
0.24500001 141301.65097645 8863.85298505
0.24600001 139255.07998751 6707.22124488
0.24700001 137242.23230797 6126.49354005
0.24800001 135261.15973423 7578.00683260
0.24900001 133310.78671600 6498.90115985
0.25000001 131392.78280508 7420.40775996
0.25100001 129504.63007596 5384.80277331
0.25200001 127648.23513736 5813.10090317
0.25300001 125819.49134387 5752.46741639
0.25400001 124020.82623713 7590.07492481
0.25500001 122248.83604944 5163.79107904
0.25600001 120506.14521173 4645.51211770
0.25700001 118789.68590413 5516.59327440
0.25800001 117100.08568419 5914.14010730
0.25900001 115437.68495151 5852.69090396
0.26000001 113799.99277073 5346.32391333
0.26100001 112187.17142586 4849.85165022
0.26200001 110600.33616817 6981.09354926
0.26300001 109036.41412004 5613.19486450
0.26400001 107497.02278676 5127.60822956
0.26500001 105981.06043153 7188.69566923
0.26600001 104487.45369952 5021.66726242
0.26700001 103016.62913277 4555.39555581
0.26800001 101568.04521247 4098.27081826
0.26900001 100140.09077215 4866.80864183
0.27000001 98734.08093650  6421.66492800
0.27100001 97348.35047745  5163.35675367
0.27200001 95983.71912697  4323.58683268
0.27300001 94638.74313551  3889.65252694
0.27400001 93311.97837821  5388.76700636
0.27500001 92006.43683296  3809.06666515
0.27600001 90717.53994333  3769.31396303
0.27700001 89449.09884095  4103.03035802
0.27800001 88197.54605256  4798.38772008
0.27900001 86964.27803090  5113.49979023
0.28000001 85748.03193351  4698.56363217
0.28100001 84549.16726195  4291.71593334
0.28200001 83367.46882306  4954.52890665
0.28300001 82202.22789486  3501.81507406
0.28400001 81052.49375019  5197.49140773
0.28500001 79919.31296255  3771.39255721
0.28600001 78801.63477481  4070.89264515
0.28700001 77699.91819926  3692.30028759
0.28800001 76611.84788748  3321.12376312
0.28900001 75540.47498880  3286.01081755
0.29000001 74482.73911172  3901.40605934
0.29100001 73440.01678916  3538.34017639
0.29200001 72411.12052009  6046.69090525
0.29300001 71396.48424298  4093.16063540
0.29400001 70394.78424889  3426.46628551
0.29500001 69407.95193098  4622.56981742
0.29600001 68433.15975157  3353.56715238
0.29700001 67471.95378325  3619.19577226
0.29800001 66523.99547889  2983.60133847
0.29900001 65589.23774912  3246.66742228
0.30000001 64665.79920931  3211.62706977
0.30100001 63756.02523628  4332.22211989
0.30200001 62857.61307740  3142.56651458
0.30300001 61972.01793639  3108.51656685
0.30400001 61098.19355190  3074.76673606
0.30500001 60236.66203940  4700.26696146
0.30600001 59385.56205533  3281.64631454
0.30700001 58546.96742095  2975.35702520
0.30800001 57719.55415436  4280.48233874
0.30900001 56903.67656193  2646.02108540
0.31000001 56098.99807226  3402.12389917
0.31100001 55304.79272937  3364.74374896
0.31200001 54522.52557832  3071.79923652
0.31300001 53750.29253042  3291.13056746
0.31400001 52990.21826985  2754.16672498
0.31500001 52239.36554196  3218.98985711
0.31600002 51500.47541313  2693.73249403
0.31700002 50771.33958463  2663.97231414
0.31800002 50052.34582611  2634.50534730
0.31900002 49344.47409372  3789.65578983
0.32000002 48646.99636857  2576.58828466
0.32100002 47959.23399138  2548.07422261
0.32200002 47282.67422877  2290.84567486
0.32300002 46614.53821338  2265.46666444
0.32400002 45957.80041965  2240.44287655
0.32500002 45310.38636780  3101.94919762
0.32600002 44673.21716606  2191.22140575
0.32700002 44046.01400511  2600.47679000
0.32800002 43429.54659627  2357.57304862
0.32900002 42820.84472545  2543.55829714
0.33000002 42223.24831480  2515.66125372
0.33100002 41634.30219148  2073.38834732
0.33200002 41056.50681019  2255.84987351
0.33300002 40487.45508451  2434.10591495
0.33400002 39928.63477676  2407.69679106
0.33500002 39379.04063198  2183.17411602
0.33600002 38838.41566037  3141.25120737
0.33700002 38307.31906639  1942.18116864
0.33800002 37786.42040532  3842.87913721
0.33900002 37274.11906805  2471.27421125
0.34000002 36771.28805841  2821.27720989
0.34100002 36277.90013715  1861.05636517
0.34200002 35794.49146007  2209.95200741
0.34300002 35319.44790827  2186.98031805
0.34400002 34854.46211668  2164.46219995
0.34500002 34398.13340365  2320.84217066
0.34600002 33951.72401304  2827.49970972
0.34700002 33513.19190715  2799.02192065
0.34800002 33084.72830673  2424.77985244
0.34900002 32664.68472917  2400.85444130
0.35000002 32254.11282991  2377.45076929
0.35100002 31853.20541684  1850.03425823
0.35200002 31459.58059877  2332.09882024
0.35300002 31076.25229903  1980.17889028
0.35400002 30701.05125208  1634.83105660
0.35500002 30335.18161028  2429.84816207
0.35600002 29977.63226236  2568.48365389
0.35700002 29628.77568941  1750.17186287
0.35800002 29288.99408842  1734.93364700
0.35900002 28958.31096196  1876.49863922
0.36000002 28635.96860374  1705.70155067
0.36100002 28321.58888153  1999.22105384
0.36200002 28017.27111036  2593.41882317
0.36300002 27719.91205404  1513.50726984
0.36400002 27431.69641315  1652.07399474
0.36500002 27150.99246900  1490.58955715
0.36600002 26879.64701177  2367.55942094
0.36700002 26615.93403659  1616.11959125
0.36800002 26361.31110756  1896.82823059
0.36900002 26114.51539700  2318.96907710
0.37000002 25875.21974433  1871.94286108
0.37100002 25643.97232887  1430.93372373
0.37200002 25421.40263314  2560.18958046
0.37300002 25206.46890447  1838.30786428
0.37400002 24999.23987408  1687.44877144
0.37500002 24799.91050258  2377.81553163
0.37600002 24608.54040564  2644.06474914
0.37700002 24424.59511512  1661.84953036
0.37800002 24248.10073190  1792.05596948
0.37900002 24079.94225944  1784.32380595
0.38000002 23918.50773513  1640.33133818
0.38100002 23763.66531563  1633.98970451
0.38200002 23617.34612056  1492.49825879
0.38300002 23477.40757612  1487.52861449
0.38400002 23344.93510775  1348.17006634
0.38500002 23218.96085932  2151.00463591
0.38600002 23100.81080580  1609.20255697
0.38700002 22988.65028970  1471.73346127
0.38800002 22883.21589578  1468.75928185
0.38900002 22784.51372005  1732.76235050
0.39000002 22692.83605227  2395.68281554
0.39100002 22606.86838806  1728.06910145
0.39200002 22528.02494876  1593.63256038
0.39300002 22454.59296213  1857.89310971
0.39400002 22388.71428420  1857.14393786
0.39500002 22327.58751807  1326.25876141
0.39600002 22272.62616666  1458.96844617
0.39700002 22222.99894272  1326.71309974
0.39800002 22180.23555850  1991.23074161
0.39900002 22142.03974417  1992.78367139
0.40000002 22109.78196351  1462.89379293
0.40100002 22082.57999336  1997.36945503
0.40200002 22061.15885140  1333.59711575
0.40300002 22044.59347824  1469.49267088
0.40400002 22033.19690681  1472.36845306
0.40500002 22026.19617841  1341.39541082
0.40600002 22025.09431835  1748.02169340
0.40700002 22027.97147809  1887.35668567
0.40800002 22035.36726746  1757.43079969
0.40900002 22046.98553108  1627.06760929
0.41000002 22063.62223904  1496.24461304
0.41100002 22084.15891401  2593.12206255
0.41200002 22107.91480697  1780.46100334
0.41300002 22137.20740331  1512.19270937
0.41400002 22169.38777691  1794.05779085
0.41500002 22205.34831383  1524.17518048
0.41600002 22244.07961453  1669.64069498
0.41700002 22287.61441073  1676.92018772
0.41800002 22334.97913231  1544.12885548
0.41900002 22383.58966240  1551.18283711
0.42000002 22436.06276427  1558.52117377
0.42100002 22492.22584115  2705.14013010
0.42200002 22550.81438452  1573.93416455
0.42300002 22611.80589821  1725.73310793
0.42400002 22675.37247062  1734.66607620
0.42500002 22742.03079548  1598.53742036
0.42600002 22809.72287489  1753.15538324
0.42700002 22880.88404799  2056.53395569
0.42800002 22953.39081446  1772.46092268
0.42900002 23028.76365772  1633.89085894
0.43000002 23105.84176118  1643.17201471
0.43100002 23183.17412668  2253.40463190
0.43200002 23263.47803377  1662.05926688
0.43300002 23344.52059648  1519.72836285
0.43400002 23427.58651799  2140.11012983
0.43500002 23511.16132979  1845.15602860
0.43600002 23596.79240549  2010.80076012
0.43700002 23682.54733637  1711.53777711
0.43800002 23768.88195164  1878.21714083
0.43900002 23857.06783960  2361.84982805
0.44000002 23945.15076564  1742.36897803
0.44100002 24034.19055983  2071.50698252
0.44200002 24123.54990955  2244.21395444
0.44300002 24213.33626545  1612.60827170
0.44400002 24303.15300478  2271.12975593
0.44500002 24392.59258949  1795.05097373
0.44600002 24482.03388466  2298.12862966
0.44700002 24572.39062161  2311.77061924
0.44800002 24661.40757038  1993.13505430
0.44900002 24750.80266792  2004.81511111
0.45000002 24840.05396647  2016.51567656
0.45100002 24927.85704333  2028.13054516
0.45200002 25015.54422131  1869.78694144
0.45300002 25102.09123458  1880.39774350
0.45400002 25188.16451206  2750.54769507
0.45500002 25273.70658400  2247.33809596
0.45600002 25357.67787796  3128.88402165
0.45700002 25441.01735777  1922.57777284
0.45800002 25522.75937510  1932.96627288
0.45900002 25603.26211278  2473.27523731
0.46000002 25682.95601822  2486.36708996
0.46100002 25760.40902346  2142.23571592
0.46200002 25837.02865970  1973.81989801
0.46300002 25912.01927783  2344.51961538
0.46400002 25984.79065656  2356.17100445
0.46500002 26057.01548665  2003.52401573
0.46600002 26126.29952291  2013.16210515
0.46700002 26193.90838546  2022.69370139
0.46800002 26260.35944230  2216.89964919
0.46900002 26324.02356862  2041.42812450
0.47000002 26385.85710507  2050.57698211
0.47100002 26445.77098699  2246.83280955
0.47200002 26503.75559901  2632.61816843
0.47300002 26559.33871392  2266.04288648
0.47400002 26612.09004252  2654.55610756
0.47500002 26663.06535057  2284.49154752
0.47600002 26712.36015304  2484.65029740
0.47700002 26758.04096865  2494.11711690
