# SAXS profile: number of points = 501, q_min = 0, q_max = 0.5, delta_q = 0.001
#    q    intensity    error
0.00000000 1682732.95097188 328.13292544
0.00100000 1682650.44598750 605.75417494
0.00200000 1682402.87089474 757.08131588
0.00300000 1681990.44733209 1009.19430435
0.00400000 1681413.05322896 1891.58975676
0.00500000 1680671.19597320 1966.38537712
0.00600000 1679764.77892772 2292.87901658
0.00700000 1678694.35958202 2215.87664674
0.00800000 1677459.78512835 3170.39912775
0.00900000 1676062.29355969 3016.91225737
0.01000000 1674501.23069135 3591.80529493
0.01100000 1672777.94576351 6323.10091029
0.01200000 1670892.27347445 3909.88809135
0.01300000 1668845.44161688 3855.03314016
0.01400000 1666637.52020049 4874.91496270
0.01500000 1664269.84268409 4793.09736036
0.01600000 1661741.85017921 6356.16286108
0.01700000 1659055.82646404 5375.34111887
0.01800000 1656211.67655221 7080.30523586
0.01900000 1653210.25796166 5455.59409744
0.02000000 1650052.51977912 8316.26507588
0.02100000 1646740.59757790 5434.24421839
0.02200000 1643273.00363707 7370.07975615
0.02300000 1639653.06300489 8854.12694325
0.02400000 1635880.29111412 7974.91678282
0.02500000 1631957.23670563 12729.26702766
0.02600000 1627883.84753699 7911.51586089
0.02700000 1623662.33502581 6819.38211944
0.02800000 1619292.53236868 8452.70740660
0.02900000 1614777.02719958 9446.44604284
0.03000000 1610117.13523370 9733.15852988
0.03100000 1605313.23412298 10017.15504185
0.03200000 1600366.76470920 8713.99743519
0.03300000 1595281.65852288 16271.87366707
0.03400000 1590055.80381222 8347.79335518
0.03500000 1584692.75074071 9413.07537408
0.03600000 1579193.59228285 9640.97732643
0.03700000 1573560.21301313 8969.29362898
0.03800000 1567794.20016061 14674.55439264
0.03900000 1561897.42517595 12182.80048056
0.04000000 1555869.97375114 11482.32093836
0.04100000 1549715.63647644 12692.17165123
0.04200000 1543435.61732577 9955.16019360
0.04300000 1537030.62327036 16231.04413515
0.04400000 1530504.28155426 12397.08525633
0.04500000 1523857.78676324 15771.92882584
0.04600000 1517091.35804472 16043.24185712
0.04700000 1510209.03885532 13048.20670255
0.04800000 1503211.56911372 12153.46610176
0.04900000 1496102.60189146 11220.77003648
0.05000000 1488881.83704044 17084.91987562
0.05100000 1481553.70351036 13867.34331085
0.05200000 1474116.49852575 12891.14938035
0.05300000 1466576.51870170 14255.12442632
0.05400000 1458933.53237648 13239.82242374
0.05500000 1451190.18519168 15846.99756154
0.05600000 1443347.47270148 12340.62146746
0.05700000 1435410.92957621 17483.30593833
0.05800000 1427378.99196213 20211.68746992
0.05900000 1419254.61675128 15327.95057682
0.06000000 1411041.46345375 20657.64799006
0.06100000 1402740.96494148 14350.04074195
0.06200000 1394355.31778859 13176.65836903
0.06300000 1385887.68055055 13304.52235534
0.06400000 1377336.90511474 18800.64963406
0.06500000 1368709.24518014 14905.24437725
0.06600000 1360005.26035057 15034.85885663
0.06700000 1351227.06624405 15160.76839277
0.06800000 1342377.49839476 16672.32931048
0.06900000 1333459.25475629 16801.58739656
0.07000000 1324473.15728553 22569.02365702
0.07100000 1315422.52751523 14206.56396257
0.07200000 1306309.37964552 20025.72372811
0.07300000 1297136.70536253 21597.32715624
0.07400000 1287906.79630574 15937.84735120
0.07500000 1278621.15920664 20406.79465746
0.07600000 1269281.01142084 17592.23564303
0.07700000 1259891.97173409 14740.73676046
0.07800000 1250453.85505241 19263.24254046
0.07900000 1240968.87214859 17869.95259711
0.08000000 1231441.48759771 19450.61920906
0.08100000 1221872.42695202 18034.83786797
0.08200000 1212263.31565021 21129.75058330
0.08300000 1202617.85310852 19698.88135843
0.08400000 1192937.78475145 16730.95321647
0.08500000 1183225.27341136 18316.32809227
0.08600000 1173482.65706537 21439.52915120
0.08700000 1163713.10596005 26113.72332398
0.08800000 1153916.75792382 23107.18416263
0.08900000 1144098.63130755 20078.93192255
0.09000000 1134258.72263960 15482.63229133
0.09100000 1124399.98291925 18620.06459194
0.09200000 1114524.08744858 17102.37292548
0.09300000 1104636.29014524 21805.52139216
0.09400000 1094733.24410984 20279.93430024
0.09500000 1084820.67328934 20307.84395850
0.09600000 1074899.98495168 18767.75461949
0.09700000 1064975.45408123 23482.70986648
0.09800000 1055046.95023128 21934.42712661
0.09900000 1045117.20738176 15676.75884789
0.10000000 1035187.02424990 26661.24306336
0.10100000 1025258.92597308 23529.69345773
0.10200000 1015335.92698273 17255.63489071
0.10300000 1005419.33439117 15684.54235431
0.10400000 995511.95700777 21951.03968471
0.10500000 985616.66423190 21939.82797806
0.10600001 975730.40339237 21924.66319586
0.10700001 965861.37424376 18776.34599887
0.10800001 956007.22446727 18756.86262678
0.10900001 946172.75397340 17173.03629288
0.11000001 936357.15805077 18708.41689845
0.11100001 926563.94898333 21792.78510595
0.11200001 916794.02600833 18647.59136688
0.11300001 907049.39939923 21714.76364397
0.11400001 897332.56912912 18574.78505556
0.11500001 887645.03463511 21623.03406190
0.11600001 877987.75757447 16949.55445815
0.11700001 868363.55521956 19981.04634661
0.11800001 858771.54835295 18394.88743209
0.11900001 849214.99597932 19871.63184190
0.12000001 839694.59516237 19812.59490613
0.12100001 830215.38991873 15192.94235122
0.12200001 820774.74639499 16657.62426285
0.12300001 811376.65834793 18109.92786756
0.12400001 802020.18296049 21053.03079468
0.12500001 792707.88511660 17978.61568161
0.12600001 783442.82969116 22386.87991337
0.12700001 774224.26159235 17838.12782773
0.12800001 765053.65407225 14803.78890399
0.12900001 755933.27060591 16214.76941873
0.13000001 746863.84968915 16143.46287195
0.13100001 737845.84631871 17531.21813491
0.13200001 728881.70429332 20357.66696058
0.13300001 719972.30059000 14471.44392409
0.13400001 711117.44555577 18720.16763683
0.13500001 702320.27016963 15760.06760567
0.13600001 693580.71986645 17103.70135836
0.13700001 684899.89354551 14177.42846490
0.13800001 676277.30924130 15510.42081885
0.13900001 667717.02344509 14022.05815360
0.14000001 659217.37312845 15336.69290912
0.14100001 650781.27254825 16633.97011084
0.14200001 642407.74112846 13779.64669713
0.14300001 634099.32748821 16435.85534373
0.14400001 625852.90389714 16334.76156222
0.14500001 617675.01491006 20290.62519695
0.14600001 609562.52854282 14784.93982728
0.14700001 601518.35743354 16024.44979801
0.14800001 593539.67551568 13265.61237363
0.14900001 585630.23725936 18447.35334403
0.15000001 577789.41418078 17013.01010328
0.15100001 570018.02461471 16895.33504679
0.15200001 562317.76188709 15486.23189312
0.15300001 554687.91760752 21782.59555235
0.15400001 547127.06674048 15264.84588242
0.15500001 539639.28270686 12627.55981127
0.15600001 532221.44139400 16293.96019727
0.15700001 524878.58399643 13683.58533061
0.15800001 517604.89625513 13579.36509418
0.15900001 510406.32325403 22049.55420533
0.16000001 503278.28472713 19446.67383979
0.16100001 496226.00746510 13264.12180566
0.16200001 489246.56224925 14354.49481401
0.16300001 482340.32900540 18984.91624589
0.16400001 475508.67051485 12945.72416593
0.16500001 468749.80192034 14006.24474263
0.16600001 462065.76163720 16204.64702569
0.16700001 455455.01478989 17216.20037192
0.16800001 448918.55552603 11380.08591991
0.16900001 442457.51410185 14667.46728505
0.17000001 436069.23644862 14540.72937599
0.17100001 429755.75229668 14414.00861268
0.17200001 423516.01725722 17584.38586691
0.17300001 417350.32947881 11982.12852519
0.17400001 411259.40738275 15113.78393508
0.17500001 405241.03754572 16047.54584470
0.17600001 399295.31197996 13781.67834388
0.17700001 393425.84965940 12605.36481845
0.17800001 387627.55202107 11448.58028968
0.17900001 381902.15411698 14435.90210748
0.18000001 376250.87236579 10215.21166725
0.18100001 370672.55455634 12143.23346087
0.18200001 365164.16124456 12028.50803960
0.18300001 359728.58677905 11914.21135694
0.18400001 354364.64724473 10816.98136815
0.18500001 349072.26685774 10713.02837597
0.18600001 343851.07383829 13503.03230756
0.18700001 338699.34187346 9551.32189208
0.18800001 333616.64165352 11349.63868528
0.18900001 328606.95244168 13111.41802190
0.19000001 323662.64553304 11127.52227919
0.19100001 318789.78058287 10099.26072606
0.19200001 313983.52211028 11816.77041298
0.19300001 309247.22477512 10798.91359942
0.19400001 304576.34257055 11581.51597352
0.19500001 299973.14077693 9701.13183115
0.19600001 295435.10349760 12222.15080927
0.19700001 290964.73236573 9505.81825561
0.19800001 286558.41709984 10264.52298561
0.19900001 282217.40537041 12699.78384186
0.20000001 277938.84191224 10893.81342360
0.20100001 273725.55823670 10782.05024853
0.20200001 269573.93077124 11491.93721193
0.20300001 265485.25314331 11373.38878222
0.20400001 261458.51911544 8843.83482709
0.20500001 257492.24468460 15117.37039998
0.20600001 253586.31179413 9448.62642407
0.20700001 249740.36919759 8571.08987601
0.20800001 245953.28486526 11565.95376751
0.20900001 242227.09908699 8393.16938012
0.21000001 238555.69209440 9815.37441522
0.21100001 234943.24676107 8965.43472023
0.21200001 231386.32812631 13307.02835963
0.21300001 227884.99250316 8046.61946569
0.21400001 224439.37907640 9409.62141263
0.21500001 221049.28832118 7161.99728021
0.21600001 217711.38322216 9212.45761660
0.21700001 214427.39034217 8414.13119484
0.21800001 211195.90216946 8325.34285715
0.21900001 208015.31646469 7550.95634469
0.22000001 204885.35144058 9508.72960995
0.22100001 201807.30359503 7392.20188022
0.22200001 198778.38488540 7978.96474658
0.22300001 195798.08771470 10526.10569327
0.22400001 192865.32122279 7160.12538897
0.22500001 189982.37510046 7728.48338455
0.22600001 187144.19114868 7009.48601094
0.22700001 184353.35560771 9457.32758990
0.22800001 181607.23311429 10604.95487922
0.22900001 178905.63054032 6172.24454553
0.23000001 176248.61314664 6107.01473434
0.23100001 173635.96602352 6646.78509372
0.23200001 171064.40337878 7772.31153510
0.23300001 168535.99173162 7098.73630747
0.23400001 166047.94033983 7023.82820857
0.23500001 163600.48373880 6949.74887792
0.23600001 161193.48096580 9741.72848292
0.23700001 158825.84256899 6804.09941747
0.23800001 156496.46349540 6171.43832984
0.23900001 154205.37793911 6661.67264206
0.24000001 151951.07907176 6042.33494509
0.24100001 149734.56943677 5435.36512765
0.24200001 147554.20944082 6454.02142623
0.24300001 145408.51423818 7450.73262200
0.24400001 143297.76430024 5792.81239586
0.24500001 141220.77409411 5732.15149164
0.24600001 139177.40388351 7734.78458672
0.24700001 137167.91935030 7143.70557770
0.24800001 135190.23726028 6059.22672065
0.24900001 133243.27008953 5995.94743768
0.25000001 131328.58785791 4944.52156677
0.25100001 129443.88442258 5871.57487519
0.25200001 127590.89343728 6778.90448903
0.25300001 125765.57702844 7187.50306722
0.25400001 123970.32907618 6638.61143611
0.25500001 122201.89248335 7038.82934006
0.25600001 120462.62591878 5108.21789377
0.25700001 118749.73730507 5974.29956648
0.25800001 117063.55904170 5457.50338074
0.25900001 115404.73413318 4950.86332856
0.26000001 113770.55487903 4899.52917769
0.26100001 112161.22317658 6611.90441911
0.26200001 110578.02245326 5670.99414985
0.26300001 109017.60768157 5612.22670900
0.26400001 107481.76520550 6408.60055362
0.26500001 105969.31483265 5919.44620665
0.26600001 104479.35540920 4602.83822036
0.26700001 103011.95701797 5383.40512850
0.26800001 101566.98698738 4098.22811887
0.26900001 100142.62558584 4461.35418097
0.27000001 98740.12541636  4013.78628812
0.27100001 97357.99782943  5561.08909918
0.27200001 95996.94408893  3931.07504647
0.27300001 94655.52219277  4668.41057548
0.27400001 93332.25870533  3849.95585379
0.27500001 92030.30887019  4572.06596105
0.27600001 90744.90392609  5655.67640485
0.27700001 89479.92245931  4104.44423746
0.27800001 88231.92084778  4800.25788091
0.27900001 87002.12165091  3654.08928228
0.28000001 85789.38586842  5785.63645679
0.28100001 84593.93714107  3936.15608147
0.28200001 83415.75079040  4957.39830411
0.28300001 82253.87023213  5956.82556415
0.28400001 81107.59525080  4507.55481941
0.28500001 79977.87311642  4117.26110291
0.28600001 78863.56889797  3395.07680175
0.28700001 77765.23905326  5039.18772917
0.28800001 76680.49965895  3656.50979931
0.28900001 75612.47192261  4604.79975805
0.29000001 74558.04586671  3905.35062735
0.29100001 73518.55462901  3542.12412969
0.29200001 72492.95236739  4141.88502957
0.29300001 71481.51135754  4413.26872012
0.29400001 70483.01062754  4366.42271507
0.29500001 69499.43653328  4011.50766659
0.29600001 68527.72643051  4274.07449979
0.29700001 67569.65962986  3926.47310696
0.29800001 66624.79345002  2988.12212769
0.29900001 65693.07308666  3251.80727173
0.30000001 64772.57236079  3216.92995859
0.30100001 63865.90522383  2893.12564360
0.30200001 62970.36656541  3434.40395506
0.30300001 62087.63750907  3680.55532578
0.30400001 61216.71478367  3640.86428412
0.30500001 60358.07939412  2770.43597535
0.30600001 59509.72546103  3014.46528594
0.30700001 58673.93578371  3523.95675000
0.30800001 57849.25249695  2949.44427819
0.30900001 57036.06303427  2917.39476232
0.31000001 56233.97702985  3672.64121370
0.31100001 55442.45408066  2594.70697382
0.31200001 54662.62402637  3079.69238346
0.31300001 53892.97741965  3807.53903497
0.31400001 53135.31682651  3765.96575838
0.31500001 52386.89245049  3228.08046564
0.31600002 51650.37187640  3683.96294851
0.31700002 50923.59484332  2914.86670684
0.31800002 50206.83434871  2642.63685107
0.31900002 49501.20866183  2613.66394110
0.32000002 48805.97688179  2350.00789813
0.32100002 48120.29274741  3253.89434965
0.32200002 47445.75783464  3218.24590631
0.32300002 46779.69306603  2273.49319066
0.32400002 46124.93892991  3148.02723103
0.32500002 45479.45226830  2891.12891760
0.32600002 44844.08309469  2639.52285594
0.32700002 44218.73705921  2175.56196633
0.32800002 43603.95585656  2151.85532342
0.32900002 42997.00095762  2341.18681301
0.33000002 42401.08938551  3157.82128152
0.33100002 41813.74760668  2915.25462119
0.33200002 41237.46658909  3089.71733050
0.33300002 40669.91408189  2037.56279199
0.33400002 40112.43168160  2015.64978745
0.33500002 39564.30710756  2392.84940718
0.33600002 39024.96836852  2367.25469334
0.33700002 38495.07936746  2537.21080126
0.33800002 37975.41470882  2510.36490821
0.33900002 37464.25724444  2292.81265194
0.34000002 36962.51286528  2268.75914712
0.34100002 36470.09841445  2619.28259217
0.34200002 35987.66518373  2777.34819209
0.34300002 35513.59232657  2199.00174100
0.34400002 35049.40786931  1995.18763745
0.34500002 34593.81591115  1795.41913082
0.34600002 34148.15280422  2132.89372517
0.34700002 33710.32559618  2639.51861919
0.34800002 33282.43506468  2439.26978142
0.34900002 32862.93077125  1725.30394720
0.35000002 32452.81378048  1879.50479911
0.35100002 32052.32732737  1861.59925934
0.35200002 31659.04926857  2011.61608580
0.35300002 31276.01710893  2158.98356329
0.35400002 30901.07254178  2303.67506710
0.35500002 30535.37104710  1793.64778026
0.35600002 30177.99234677  2262.44419340
0.35700002 29829.16135232  1922.19124859
0.35800002 29489.41158241  1905.60586671
0.35900002 29158.66005408  1732.02448925
0.36000002 28836.14294474  1873.77265730
0.36100002 28521.63264016  1703.59719829
0.36200002 28217.04904979  1843.70207224
0.36300002 27919.40884345  1524.39979506
0.36400002 27630.74001420  2269.17463115
0.36500002 27349.73041135  2102.10037899
0.36600002 27077.83494674  1788.76186131
0.36700002 26813.65450566  2368.18207812
0.36800002 26558.41895282  2940.01711734
0.36900002 26310.96955442  1606.28476739
0.37000002 26071.01476527  1595.93724445
0.37100002 25838.99278135  1730.17903860
0.37200002 25615.61194271  1719.83226730
0.37300002 25399.77924545  1567.42045149
0.37400002 25191.63057140  1842.13807280
0.37500002 24991.36613695  1973.31836365
0.37600002 24798.89351451  1402.37749468
0.37700002 24613.90367108  1674.73008512
0.37800002 24436.29010297  1944.88442143
0.37900002 24266.91667562  1659.85717924
0.38000002 24104.28093692  1790.82763704
0.38100002 23948.14124889  1372.22855857
0.38200002 23800.46440726  1777.53776846
0.38300002 23659.17637638  1907.87607337
0.38400002 23525.21439232  1358.58119552
0.38500002 23397.77233186  1490.20419041
0.38600002 23278.07545784  1351.29234434
0.38700002 23164.33819081  1752.61391055
0.38800002 23057.26368873  1883.54795997
0.38900002 22956.91363181  1477.27746219
0.39000002 22863.50097125  1609.13327459
0.39100002 22775.79178454  1607.05994445
0.39200002 22695.15384558  1605.45525910
0.39300002 22619.84627096  2005.24946692
0.39400002 22552.11017410  1737.07636846
0.39500002 22489.03376988  1469.43353614
0.39600002 22432.12879581  1335.83333308
0.39700002 22380.48788364  1870.56126594
0.39800002 22335.69296965  1604.14954508
0.39900002 22295.43109627  1471.49852207
0.40000002 22260.99436045  1606.79864907
0.40100002 22231.64393962  1608.68183169
0.40200002 22208.07376267  1342.47812256
0.40300002 22189.30905620  1479.13941177
0.40400002 22175.67110243  1886.04091662
0.40500002 22166.38779768  2024.89962126
0.40600002 22162.91966548  1488.35094065
0.40700002 22163.47044321  1763.32579201
0.40800002 22168.47830587  2312.06155446
0.40900002 22177.71276796  1363.92939985
0.41000002 22191.94063836  1504.94652570
0.41100002 22210.03819275  2196.12868056
0.41200002 22231.28749142  1928.11965549
0.41300002 22258.11568451  1520.45195445
0.41400002 22287.75515265  1526.15410639
0.41500002 22321.21782195  1532.12846390
0.41600002 22357.37491912  1398.45386745
0.41700002 22398.31620337  1404.37449250
0.41800002 22443.05799077  1551.60088771
0.41900002 22489.10953700  1841.85815836
0.42000002 22538.95972526  1708.00244891
0.42100002 22592.46882005  1716.12401289
0.42200002 22648.42259842  2442.97221934
0.42300002 22706.72430382  1877.39205440
0.42400002 22767.60402971  2177.15223851
0.42500002 22831.59011606  1604.83254530
0.42600002 22896.54100985  2053.13292964
0.42700002 22965.03230036  1474.35514355
0.42800002 23034.82090890  2075.20711402
0.42900002 23107.46573696  2086.60425493
0.43000002 23181.77864037  1798.44247214
0.43100002 23256.39598194  1657.71598415
0.43200002 23333.98674599  1667.09676207
0.43300002 23412.29786691  2133.79692871
0.43400002 23492.62004933  1839.47223703
0.43500002 23573.46294332  2004.21591442
0.43600002 23656.32203635  2015.87357786
0.43700002 23739.40449806  2339.51842415
0.43800002 23822.94817365  2039.36357505
0.43900002 23908.42336456  1577.95601684
0.44000002 23993.80922696  2222.06677781
0.44100002 24080.13545574  1915.81566765
0.44200002 24166.77127472  2408.82304096
0.44300002 24253.84477326  1938.36736614
0.44400002 24340.97387942  1787.23609179
0.44500002 24427.75585312  1961.06033282
0.44600002 24514.53571467  1808.06966732
0.44700002 24602.24615081  2149.25232559
0.44800002 24688.61262739  2660.44502281
0.44900002 24775.37921464  1839.57199387
0.45000002 24862.03926747  1850.10873977
0.45100002 24947.22829972  1691.42215888
0.45200002 25032.31157636  2551.41847834
0.45300002 25116.27351337  2052.50196879
0.45400002 25199.81296270  2235.85351108
0.45500002 25282.86849632  2075.21794453
0.45600002 25364.28484631  2260.33835120
0.45700002 25445.16903439  2272.50815416
0.45800002 25524.47539797  2636.04032166
0.45900002 25602.50782188  2649.85968515
0.46000002 25679.78395644  1953.33285922
0.46100002 25754.87126468  1784.81266323
0.46200002 25829.11607568  2331.98185542
0.46300002 25901.76392004  1983.03913970
0.46400002 25972.25436712  2717.34724195
0.46500002 26042.19358658  2002.38435978
0.46600002 26109.22403786  1828.95123054
0.46700002 26174.60442869  2204.94878158
0.46800002 26238.82380401  2953.44214736
0.46900002 26300.34479069  2039.59183519
0.47000002 26360.07901400  1862.33967061
0.47100002 26417.88787816  2805.57982564
0.47200002 26473.77480414  2066.14585252
0.47300002 26527.34663874  3772.18887082
0.47400002 26578.05270368  2272.42361387
0.47500002 26627.09289393  2281.40942729
0.47600002 26674.44874828  2671.97965776
0.47700002 26718.21178716  1915.69587594
