# SAXS profile: number of points = 501, q_min = 0, q_max = 0.5, delta_q = 0.001
#    q    intensity    error
0.00000000 1682732.95097188 429.09690250
0.00100000 1682650.44272165 504.79514480
0.00200000 1682402.86161171 908.49757404
0.00300000 1681990.42415142 1110.11371949
0.00400000 1681413.00767430 2143.80166624
0.00500000 1680671.11972898 1815.12488115
0.00600000 1679764.67194147 1940.12827508
0.00700000 1678694.22213374 3021.64972542
0.00800000 1677459.59151522 2264.57054416
0.00900000 1676062.05027096 3519.73045603
0.01000000 1674500.93039276 2762.92665445
0.01100000 1672777.59680442 4817.59968855
0.01200000 1670891.86011219 3258.23927007
0.01300000 1668844.93483346 4205.48942126
0.01400000 1666636.95113673 4124.92663693
0.01500000 1664269.18661672 4793.09547089
0.01600000 1661741.11209644 5932.41603538
0.01700000 1659055.00174726 5823.28331736
0.01800000 1656210.74834542 7080.30126777
0.01900000 1653209.16512632 4959.62771917
0.02000000 1650051.38827644 7276.72695147
0.02100000 1646739.32681935 7064.51203235
0.02200000 1643271.62124611 8503.93102630
0.02300000 1639651.57333090 8263.84430574
0.02400000 1635878.63008234 7974.90868529
0.02500000 1631955.47916982 8274.01465727
0.02600000 1627881.94360131 7252.21439045
0.02700000 1623660.26222184 9547.12277913
0.02800000 1619290.28860041 8452.69569413
0.02900000 1614774.67686479 7993.13501748
0.03000000 1610114.60247476 10481.84654391
0.03100000 1605310.54794211 10787.68737855
0.03200000 1600363.87635578 13467.06263980
0.03300000 1595278.61140510 8135.92129324
0.03400000 1590052.65119397 10017.33216473
0.03500000 1584689.38253117 12835.98459124
0.03600000 1579190.05275710 13146.75779676
0.03700000 1573556.41923780 9866.19920491
0.03800000 1567790.24742505 11005.88804627
0.03900000 1561893.24057065 13119.90382838
0.04000000 1555865.64589153 9568.57416563
0.04100000 1549711.14760565 11715.81681912
0.04200000 1543430.88426674 15928.20746459
0.04300000 1537025.67167885 11158.80689436
0.04400000 1530499.03742453 11363.95588064
0.04500000 1523852.42270566 12617.49864627
0.04600000 1517085.71665442 11765.00027957
0.04700000 1510203.29033278 14135.50345493
0.04800000 1503205.54924679 13258.27356124
0.04900000 1496096.43607945 13464.86855147
0.05000000 1488875.30017293 12528.88623438
0.05100000 1481547.05816755 12711.67435124
0.05200000 1474109.58109803 11719.17171586
0.05300000 1466569.39288443 11879.21263615
0.05400000 1458926.18582523 13239.75575378
0.05500000 1451182.51576775 15846.91381143
0.05600000 1443339.67171967 16042.72119978
0.05700000 1435402.84248995 12488.00531258
0.05800000 1427370.69679679 15158.67750778
0.05900000 1419246.00329087 16605.17901406
0.06000000 1411032.72815691 23239.71011848
0.06100000 1402731.90693906 19568.11101624
0.06200000 1394346.07284728 15811.88520519
0.06300000 1385878.09779451 13304.43036088
0.06400000 1377327.16454321 13428.94048232
0.06500000 1368699.28882405 17615.16067116
0.06600000 1359995.05256484 19135.13128489
0.06700000 1351216.62908300 24808.33847097
0.06800000 1342366.78902871 16672.19630015
0.06900000 1333448.39002605 16801.45050095
0.07000000 1324462.13126886 21158.28353783
0.07100000 1315411.10446329 15627.08465296
0.07200000 1306297.73500259 20025.54521572
0.07300000 1297124.81864407 18717.51201005
0.07400000 1287894.72854070 14488.81637509
0.07500000 1278608.89595989 27694.66998461
0.07600000 1269268.49621377 20524.07254596
0.07700000 1259879.24340357 26533.05811017
0.07800000 1250440.95999951 19263.04389216
0.07900000 1240955.66315442 16380.61552195
0.08000000 1231428.08501393 20946.59270871
0.08100000 1221858.83386863 16531.75079788
0.08200000 1212249.57011595 21129.51099863
0.08300000 1202603.84482689 16668.09007157
0.08400000 1192923.50300789 16730.75291500
0.08500000 1183210.88436829 19842.44746236
0.08600000 1173467.93039417 19907.88437384
0.08700000 1163698.36118492 21505.14672453
0.08800000 1153901.77349669 16945.04833960
0.08900000 1144083.38130899 16989.63901044
0.09000000 1134243.45201840 17030.66623208
0.09100000 1124384.43700865 20171.45774761
0.09200000 1114508.27872564 23321.08682812
0.09300000 1104620.38385405 17132.66295868
0.09400000 1094717.00364843 18719.66164217
0.09500000 1084804.33694702 26556.01141667
0.09600000 1074883.57733196 23459.33517804
0.09700000 1064958.69385532 21916.85094991
0.09800000 1055030.09512819 15667.19764929
0.09900000 1045100.27005901 18811.80574564
0.10000000 1035169.87701114 17251.10681166
0.10100000 1025241.75638806 25097.91937678
0.10200000 1015318.67855881 17255.34175373
0.10300000 1005401.71617531 17252.69426115
0.10400000 995494.29972413 18814.84314993
0.10500000 985598.90283817 18805.22795093
0.10600001 975712.59596966 20358.24427283
0.10700001 965843.37715171 18775.99613538
0.10800001 955989.29187895 17193.46822360
0.10900001 946154.60934180 17172.70696780
0.11000001 936338.95907473 17149.04884265
0.11100001 926545.55717012 20235.75592116
0.11200001 916775.65519084 18647.21770444
0.11300001 907031.11071437 17061.25599580
0.11400001 897314.09135587 21670.13632657
0.11500001 887626.52910206 21622.58326709
0.11600001 877969.14392250 15408.35920144
0.11700001 868344.88463245 18443.64621820
0.11800001 858752.86250589 16861.61324946
0.11900001 849196.39307868 24456.85727262
0.12000001 839675.81431160 15240.11674764
0.12100001 830196.65980339 19750.37946713
0.12200001 820755.93358951 15142.94768813
0.12300001 811357.96387486 19618.63649081
0.12400001 802001.52093413 21052.54091646
0.12500001 792689.05962788 17978.18871950
0.12600001 783424.13334897 16416.65348794
0.12700001 774205.40408447 17837.69335073
0.12800001 765034.99529019 19244.45621350
0.12900001 755914.53704406 20636.46783394
0.13000001 746845.30948485 17610.61322773
0.13100001 737827.24689167 20452.57224792
0.13200001 728863.12829706 15994.90210448
0.13300001 719953.83359463 17365.28728495
0.13400001 711099.01601754 17279.70690389
0.13500001 702301.96829983 14326.96082881
0.13600001 693562.40333442 19953.79128477
0.13700001 684881.75911297 18430.16900677
0.13800001 676259.21844874 16920.00644346
0.13900001 667699.18512287 15423.85190370
0.14000001 659199.49398155 20913.10493284
0.14100001 650763.54273014 15247.39052528
0.14200001 642390.15044134 15157.19631456
0.14300001 634081.90173183 17805.02064045
0.14400001 625835.52322838 13611.92327229
0.14500001 617657.70861516 18937.38623946
0.14600001 609545.46719745 18816.66946005
0.14700001 601501.51851266 18694.66807732
0.14800001 593522.99476744 14591.76351478
0.14900001 585613.72399419 13176.30941154
0.15000001 577773.04639880 17012.52815391
0.15100001 570001.84648354 15595.25125565
0.15200001 562301.91504358 15485.79547103
0.15300001 554672.13279569 25625.85374442
0.15400001 547111.47892357 12720.34248526
0.15500001 539623.97379365 13889.92174096
0.15600001 532206.23045125 17546.84024610
0.15700001 524863.62263427 17414.97582094
0.15800001 517590.18255674 14813.43172395
0.15900001 510391.83799443 13474.34515905
0.16000001 503264.02174317 14584.59203855
0.16100001 496212.00715740 21704.31421760
0.16200001 489232.74296666 15550.26346926
0.16300001 482326.78952831 13051.76354078
0.16400001 475495.26493209 16475.91170772
0.16500001 468736.73124158 12838.69967484
0.16600001 462053.08765284 12731.87343138
0.16700001 455442.57762896 11477.15349814
0.16800001 448906.34107731 15931.68679707
0.16900001 442445.55826955 12410.59849547
0.17000001 436057.49165521 13421.85022692
0.17100001 429744.47582390 12196.14879980
0.17200001 423504.89598410 14286.93834069
0.17300001 417339.62339793 13071.07762210
0.17400001 411249.00596774 16192.93037471
0.17500001 405230.92080800 12837.71617749
0.17600001 399285.50210313 11661.13363967
0.17700001 393416.30029371 14705.90199955
0.17800001 387618.35590810 15611.33002155
0.17900001 381893.22549935 11342.22933306
0.18000001 376242.27673543 10214.97829587
0.18100001 370664.25277704 15178.70186821
0.18200001 365156.23787257 11025.89312340
0.18300001 359720.96787104 10921.12910047
0.18400001 354357.43014708 10816.76106623
0.18500001 349065.33819865 14608.38509374
0.18600001 343844.48556860 12538.28975861
0.18700001 338693.16367527 10506.26243357
0.18800001 333610.66909062 9457.86291557
0.18900001 328601.35918616 10301.65309721
0.19000001 323657.42220488 12981.89981802
0.19100001 318784.85805352 12853.40608404
0.19200001 313979.03602364 10907.63222686
0.19300001 309243.08626012 10798.76908247
0.19400001 304572.51653798 9799.62118268
0.19500001 299969.72547297 10582.93241478
0.19600001 295432.05052144 10476.02100655
0.19700001 290962.14593518 8641.57614265
0.19800001 286556.13652619 10264.44129545
0.19900001 282215.36436638 9313.10746423
0.20000001 277937.21623959 11731.73045193
0.20100001 273724.27466742 10781.99968873
0.20200001 269573.07117262 11491.90056724
0.20300001 265484.65053998 10560.97989764
0.20400001 261458.29550645 8843.82726352
0.20500001 257492.42680915 8752.16800093
0.20600001 253586.70846838 10236.02797116
0.20700001 249741.27656806 9350.31383669
0.20800001 245954.54604609 9252.81045964
0.20900001 242228.64684122 9919.26355704
0.21000001 238557.65929949 10570.49038325
0.21100001 234945.56692612 11954.03101031
0.21200001 231388.74275649 9610.73188473
0.21300001 227887.86014807 8046.72072224
0.21400001 224442.61320248 11581.23938877
0.21500001 221052.94880652 8594.53905593
0.21600001 217715.30654883 11338.61370114
0.21700001 214431.62511065 8414.29736717
0.21800001 211200.48658977 8325.52357500
0.21900001 208020.22195119 8237.60117875
0.22000001 204890.57775454 10867.39675794
0.22100001 201812.87308629 10080.55348730
0.22200001 198784.28477594 7979.20156820
0.22300001 195804.20584220 9210.63027835
0.22400001 192871.78652254 11066.01927500
0.22500001 189989.16073316 7728.75942410
0.22600001 187151.26328783 6372.50081629
0.22700001 184360.73301461 6305.13736726
0.22800001 181614.95837405 7486.16893820
0.22900001 178913.55693345 9258.77700916
0.23000001 176256.83282414 7328.75945542
0.23100001 173644.44610612 7251.39241233
0.23200001 171073.20830159 6576.90980420
0.23300001 168545.11899023 6507.52735198
0.23400001 166057.29676029 6438.87198641
0.23500001 163610.15017592 6950.15950819
0.23600001 161203.37610444 6303.85832072
0.23700001 158835.88931914 7938.61812365
0.23800001 156506.82066368 6732.92374341
0.23900001 154216.04122760 7217.31107083
0.24000001 151961.90166038 7141.44990632
0.24100001 149745.64935778 5979.34406169
0.24200001 147565.45032430 5916.63701062
0.24300001 145419.94518135 5322.37024540
0.24400001 143309.49218044 8426.59853882
0.24500001 141232.62131174 9380.67115127
0.24600001 139189.59209887 6704.06702058
0.24700001 137180.19327323 8675.27583299
0.24800001 135202.72247181 5554.80411553
0.24900001 133255.77401991 4997.09176215
0.25000001 131341.35901530 5934.00288104
0.25100001 129456.79534389 6361.50722415
0.25200001 127603.93216200 4842.56945465
0.25300001 125778.79285371 6229.82390478
0.25400001 123983.73843527 5216.61604147
0.25500001 122215.40058057 5162.37876477
0.25600001 120476.23774746 7430.97469584
0.25700001 118763.50648796 6894.22187781
0.25800001 117077.46648683 5912.99772469
0.25900001 115418.67915391 7202.12591997
0.26000001 113784.55000929 5345.59841237
0.26100001 112175.43771581 4849.34440191
0.26200001 110592.32466386 5235.44089731
0.26300001 109031.92303424 5181.19722775
0.26400001 107496.21167559 4272.97461629
0.26500001 105983.77660326 4651.62817523
0.26600001 104493.76795769 4184.97560474
0.26700001 103026.51184339 5384.16576372
0.26800001 101581.57674224 4508.69849706
0.26900001 100157.23171251 6084.55211447
0.27000001 98754.78417474  4014.38216667
0.27100001 97372.67853175  5561.92766094
0.27200001 96011.65773805  5111.18084156
0.27300001 94670.14897519  5058.22629912
0.27400001 93346.95708740  4620.67459450
0.27500001 92044.90539042  4953.85704256
0.27600001 90759.50881483  4525.26932367
0.27700001 89494.57310953  5597.88581293
0.27800001 88246.49657170  4431.73926757
0.27900001 87016.65904487  5482.04977928
0.28000001 85803.80505406  3978.29360962
0.28100001 84608.36677001  4294.72090051
0.28200001 83430.03116687  3895.76548972
0.28300001 82268.16484264  4906.47358344
0.28400001 81121.74649869  5201.93224044
0.28500001 79991.92965166  3774.81933893
0.28600001 78877.57184434  4414.38351721
0.28700001 77779.15124482  4704.08328994
0.28800001 76694.25680605  3657.16580890
0.28900001 75626.12958819  3947.68415136
0.29000001 74571.52400785  3906.05661242
0.29100001 73531.98157900  4186.91122930
0.29200001 72506.15515000  3505.31023665
0.29300001 71494.60201145  4098.78572734
0.29400001 70495.97122698  3743.33624935
0.29500001 69512.19228024  4938.14637334
0.29600001 68540.35455605  3053.47294002
0.29700001 67582.09917585  3927.19596901
0.29800001 66637.08212905  2988.67327497
0.29900001 65705.08837030  3252.40202830
0.30000001 64784.50760830  4095.02891978
0.30100001 63877.57169018  2893.65413455
0.30200001 62981.83329919  3721.28179665
0.30300001 62098.96873646  3398.05573013
0.30400001 61227.72944259  3641.51938099
0.30500001 60368.93408955  3879.30788825
0.30600001 59520.33176074  3563.18482955
0.30700001 58684.35922311  2711.21752447
0.30800001 57859.43229549  2949.96329525
0.30900001 57045.98954435  2917.90250334
0.31000001 56243.63241916  2623.76557658
0.31100001 55451.87706482  2854.66276645
0.31200001 54671.78555547  2566.84045336
0.31300001 53901.83486565  2538.77654237
0.31400001 53144.01177152  2762.16014260
0.31500001 52395.25769018  2731.88886531
0.31600002 51658.49533278  2701.99772631
0.31700002 50931.36502255  2915.31147193
0.31800002 50214.40659833  2883.31136340
0.31900002 49508.45636992  3802.24962924
0.32000002 48812.92056986  2820.41068407
0.32100002 48126.91499230  3951.70117713
0.32200002 47452.10969229  2299.05482345
0.32300002 46785.71012864  2728.54274390
0.32400002 46130.65504831  2248.86954009
0.32500002 45484.91311156  2669.05482777
0.32600002 44849.22300980  3299.78173920
0.32700002 44223.59207399  2175.80083307
0.32800002 43608.52051855  2797.70476635
0.32900002 43001.19203789  3618.55048134
0.33000002 42404.93826888  2526.48634170
0.33100002 41817.28545085  2499.00109688
0.33200002 41240.73814115  2265.97246447
0.33300002 40672.86234008  2241.48154971
0.33400002 40114.99398561  2217.35639756
0.33500002 39566.51050712  2193.56744639
0.33600002 39026.90987029  2170.09142611
0.33700002 38496.70845319  2537.31817431
0.33800002 37976.67791688  2124.22557988
0.33900002 37465.17845715  2675.01386852
0.34000002 36963.14238981  2268.79778733
0.34100002 36470.38877288  2432.21034245
0.34200002 35987.60703934  2221.87496383
0.34300002 35513.18954229  1832.48066717
0.34400002 35048.66318732  2720.65260877
0.34500002 34592.82220320  2872.58809180
0.34600002 34146.75721069  2310.54043609
0.34700002 33708.58951675  2463.42383855
0.34800002 33280.32788585  2090.67029681
0.34900002 32860.58056362  1897.69861743
0.35000002 32450.13213023  2050.19944509
0.35100002 32049.27037119  1861.42171132
0.35200002 31655.71469548  1843.78718977
0.35300002 31272.31562963  2324.78405402
0.35400002 30897.08481735  1974.32381334
0.35500002 30531.00683275  1793.39142630
0.35600002 30173.26187222  1777.35607477
0.35700002 29824.11421245  1601.55500907
0.35800002 29484.05514077  1746.48808899
0.35900002 29153.02396334  1574.26336859
0.36000002 28830.20809733  1873.38701090
0.36100002 28515.40892311  1858.06413344
0.36200002 28210.49056889  1843.27354108
0.36300002 27912.56103473  1676.42849515
0.36400002 27623.67110277  1814.87527742
0.36500002 27342.29206989  1801.31028689
0.36600002 27070.12825699  2086.29488359
0.36700002 26805.63091576  1775.60507597
0.36800002 26550.10636788  1469.54845707
0.36900002 26302.31138796  1751.73402142
0.37000002 26062.12823788  1595.39325565
0.37100002 25829.88032929  2017.83034691
0.37200002 25606.27615360  2149.00682799
0.37300002 25390.15729406  2563.89820501
0.37400002 25181.65932814  1558.11524474
0.37500002 24981.19616326  1690.72743642
0.37600002 24788.45640108  1401.78727589
0.37700002 24603.19409365  1813.50152255
0.37800002 24425.34080635  1527.43875968
0.37900002 24255.81196519  1520.83948226
0.38000002 24092.87129085  1927.67072330
0.38100002 23936.53803853  1920.18917242
0.38200002 23788.64660255  1639.98937447
0.38300002 23647.12995559  1906.90464996
0.38400002 23513.01681709  1765.23982117
0.38500002 23385.26966806  1489.40789572
0.38600002 23265.46615375  2025.84056131
0.38700002 23151.45408591  1482.15616080
0.38800002 23044.22896430  1882.48315328
0.38900002 22943.65817318  2281.74691342
0.39000002 22850.14819574  1608.19350621
0.39100002 22762.17115889  1739.94044582
0.39200002 22681.38133279  2406.72148724
0.39300002 22606.00227076  1336.01479750
0.39400002 22538.11748897  1735.99858183
0.39500002 22474.87620934  2136.01233613
0.39600002 22417.77478496  1735.47211720
0.39700002 22366.03972270  1602.30316165
0.39800002 22321.13595799  2137.47208061
0.39900002 22280.76813299  1604.21538158
0.40000002 22246.25563691  1873.35727594
0.40100002 22216.74742681  1741.57091330
0.40200002 22193.04764782  1878.19771142
0.40300002 22174.24964953  1343.75959243
0.40400002 22160.48610902  1884.74943287
0.40500002 22151.17896835  1483.90754940
0.40600002 22147.65098503  1487.32557237
0.40700002 22148.08734427  1491.00931066
0.40800002 22153.10775142  1766.82119243
0.40900002 22162.24073961  1362.97787007
0.41000002 22176.41745757  2324.19954177
0.41100002 22194.52242876  2331.75663685
0.41200002 22215.76024439  1513.89305359
0.41300002 22242.56810192  1657.51625349
0.41400002 22272.17847790  1525.08749354
0.41500002 22305.63367715  1948.62025037
0.41600002 22341.72378378  1397.47488889
0.41700002 22382.74436706  2245.43702130
0.41800002 22427.45982198  1409.56591660
0.41900002 22473.58807045  2123.75417329
0.42000002 22523.41877474  1422.35396302
0.42100002 22576.96842934  2000.77103701
0.42200002 22633.01413365  1866.88425928
0.42300002 22691.35962625  1587.48759468
0.42400002 22752.27298412  1595.50321862
0.42500002 22816.27832160  2186.94038076
0.42600002 22881.34730890  1465.55036458
0.42700002 22949.89933245  1620.72196766
0.42800002 23019.77924784  2073.85201071
0.42900002 23092.55242222  1638.41667200
0.43000002 23166.96183791  1647.51856917
0.43100002 23241.68693088  1957.87979984
0.43200002 23319.36275457  1968.97048749
0.43300002 23397.78755253  1980.15485441
0.43400002 23478.20608368  2297.92952934
0.43500002 23559.18998607  2157.07953735
0.43600002 23642.19021353  1549.74564194
0.43700002 23725.40155182  2182.26253815
0.43800002 23809.10757099  1881.39576942
0.43900002 23894.73851360  1892.46337996
0.44000002 23980.29565246  1744.92629584
0.44100002 24066.74529189  1914.75034616
0.44200002 24153.57865042  2407.50806607
0.44300002 24240.82857181  2098.77103721
0.44400002 24328.15268545  1623.90426871
0.44500002 24415.11379467  1633.37119027
0.44600002 24502.06585370  1971.43631202
0.44700002 24590.02739865  2313.42988730
0.44800002 24676.55073805  2991.53838775
0.44900002 24763.48490039  2172.99590299
0.45000002 24850.37314942  2521.69173485
0.45100002 24935.79788307  1690.64717660
0.45200002 25021.13727201  1870.20499403
0.45300002 25105.33911051  2222.57577679
0.45400002 25189.12431983  1891.07359794
0.45500002 25272.40672060  1901.49597178
0.45600002 25354.03004374  2780.83014699
0.45700002 25435.14011465  1922.13362956
0.45800002 25514.68359410  2459.36046819
0.45900002 25592.98103180  1942.50735238
0.46000002 25670.53962893  1952.62968942
0.46100002 25745.83105785  2141.02341224
0.46200002 25820.37738685  1972.54782396
0.46300002 25893.26687480  1982.38860589
0.46400002 25964.02221870  2354.28782626
0.46500002 26034.23939360  2183.75210384
0.46600002 26101.59620751  2011.25859109
0.46700002 26167.24623851  2020.63485031
0.46800002 26231.74878207  1845.40361428
0.46900002 26293.58272263  2780.54650471
0.47000002 26353.50908975  2420.43815707
0.47100002 26411.64356695  2430.92778912
0.47200002 26467.83542962  2065.68231401
0.47300002 26521.67929629  1885.69148734
0.47400002 26572.68615752  2082.63437631
0.47500002 26622.00159204  2090.89210414
0.47600002 26669.70211289  2289.86073195
0.47700002 26713.77765820  2298.45353865
