# SAXS profile: number of points = 501, q_min = 0, q_max = 0.5, delta_q = 0.001
#    q    intensity    error
0.00000000 1682732.95097188 353.37391970
0.00100000 1682650.51377443 605.75419934
0.00200000 1682403.13963098 984.20586785
0.00300000 1681991.05985757 1009.19467187
0.00400000 1681414.13328099 2269.90916618
0.00500000 1680672.88122126 1663.86621827
0.00600000 1679767.20274260 1940.13119815
0.00700000 1678697.68726430 2417.32477013
0.00800000 1677464.11751933 2717.49198511
0.00900000 1676067.76023523 3268.33227217
0.01000000 1674507.98385999 3591.81978047
0.01100000 1672786.08844257 3312.11659932
0.01200000 1670902.00408337 3584.08495590
0.01300000 1668856.82826617 5957.81913968
0.01400000 1666650.70132130 5249.94994190
0.01500000 1664284.93538264 4793.14082734
0.01600000 1661759.04963964 4661.23434261
0.01700000 1659075.23026173 4479.50332265
0.01800000 1656233.37559554 6608.37146599
0.01900000 1653234.38154324 5455.67370527
0.02000000 1650079.26769357 6237.29991403
0.02100000 1646770.02506304 6521.20959491
0.02200000 1643305.29580676 7937.16493935
0.02300000 1639688.33399723 8264.02957951
0.02400000 1635918.51152690 7975.10310734
0.02500000 1631998.73816558 8910.71351734
0.02600000 1627928.64666981 8571.04471674
0.02700000 1623710.52216076 7501.54295596
0.02800000 1619344.24912758 7748.56258742
0.02900000 1614832.42971391 7266.74626736
0.03000000 1610176.33801781 10482.24844232
0.03100000 1605376.29650742 9246.96789336
0.03200000 1600433.80255414 12675.43630004
0.03300000 1595352.80250816 9763.55960145
0.03400000 1590131.20327682 11687.46488335
0.03500000 1584772.46892975 9413.54890014
0.03600000 1579277.83615911 10517.99087490
0.03700000 1573648.81972418 9866.77855598
0.03800000 1567887.43271703 11923.78447764
0.03900000 1561995.39692830 11246.36737870
0.04000000 1555972.78539338 14353.84961040
0.04100000 1549823.46822247 14645.83245378
0.04200000 1543548.46068158 16925.00965657
0.04300000 1537148.47161679 13188.73449867
0.04400000 1530627.33021511 11364.90845466
0.04500000 1523986.14986419 11567.05541493
0.04600000 1517225.00986412 10696.43681679
0.04700000 1510348.21488211 14136.85994877
0.04800000 1503356.44899801 12154.63745568
0.04900000 1496253.01781610 11221.89815597
0.05000000 1489037.82302401 13669.36785189
0.05100000 1481715.50613062 13868.85778345
0.05200000 1474284.10373923 15236.72692220
0.05300000 1466750.02797910 13068.74335853
0.05400000 1459112.97012882 14445.21907791
0.05500000 1451375.64853078 14629.86721966
0.05600000 1443539.23507035 20981.84376085
0.05700000 1435608.75596919 17485.71546391
0.05800000 1427582.95929954 13897.52075769
0.05900000 1419464.90173754 14052.70318354
0.06000000 1411258.06428946 14204.31308068
0.06100000 1402964.01770870 16961.83576675
0.06200000 1394584.75854408 17132.47455955
0.06300000 1386123.58052368 13306.78699519
0.06400000 1377579.37666888 13431.39955066
0.06500000 1368958.21665511 18973.76177039
0.06600000 1360260.91785001 21872.99658243
0.06700000 1351489.32643537 16542.23012973
0.06800000 1342646.40351788 22234.22548302
0.06900000 1333734.94380737 19605.90459190
0.07000000 1324755.59129084 16930.37724952
0.07100000 1315711.58257527 18472.59148457
0.07200000 1306605.17470388 18599.52553324
0.07300000 1297439.31261087 18722.05015821
0.07400000 1288216.16053248 17390.91898220
0.07500000 1278937.46044368 16037.87650570
0.07600000 1269604.19202903 19063.10783701
0.07700000 1260221.89146082 20642.43555002
0.07800000 1250790.62728102 19268.43051688
0.07900000 1241312.56017186 14895.75142073
0.08000000 1231792.02757492 19456.15598825
0.08100000 1222229.72814710 19543.45427002
0.08200000 1212627.49427508 19626.37691581
0.08300000 1202988.86719702 19704.95856948
0.08400000 1193315.61169596 21300.68466860
0.08500000 1183609.88282310 19849.13866676
0.08600000 1173874.00585484 16850.96214522
0.08700000 1164111.42982030 21512.78023327
0.08800000 1154321.67503298 18492.23410249
0.08900000 1144510.25722026 20086.15595766
0.09000000 1134677.21541640 15488.34471801
0.09100000 1124825.21464267 18627.10642961
0.09200000 1114955.77778188 15553.63383087
0.09300000 1105074.55955382 21814.17283069
0.09400000 1095177.95495024 23409.42988725
0.09500000 1085271.91479806 25004.66609223
0.09600000 1075357.64762005 20340.39086089
0.09700000 1065439.53793088 17228.15813829
0.09800000 1055517.42578817 31348.86901986
0.09900000 1045593.98205860 17252.30151521
0.10000000 1035670.03374215 20397.52227379
0.10100000 1025748.19472333 21971.52736433
0.10200000 1015831.55075067 21972.43747624
0.10300000 1005920.76195313 25107.78339944
0.10400000 996019.53776975 18824.77014946
0.10500000 986130.08591031 21951.25674516
0.10600001 976249.72190874 21936.33228347
0.10700001 966386.50477660 25048.73938254
0.10800001 956538.25575774 20331.22158295
0.10900001 946709.20818709 18744.84320434
0.11000001 936899.24144271 15599.37310428
0.11100001 927111.30582735 20248.11187242
0.11200001 917346.91766370 21768.64338096
0.11300001 907607.71831261 24832.14834215
0.11400001 897895.98829047 17037.57718002
0.11500001 888213.70433047 17000.41110140
0.11600001 878561.32761828 18502.50243095
0.11700001 868942.12229886 15380.27628902
0.11800001 859354.87814212 16873.43382703
0.11900001 849803.05674141 16826.10131602
0.12000001 840287.29652217 16776.33666531
0.12100001 830812.56241653 16724.25766929
0.12200001 821376.32073036 16669.83321456
0.12300001 811982.64876746 19633.74137223
0.12400001 802630.29375588 18059.18246041
0.12500001 793321.86525476 16493.16235581
0.12600001 784060.85616425 19417.26801792
0.12700001 774846.16964612 20827.86602163
0.12800001 765679.06226936 14815.89055317
0.12900001 756562.39225548 14752.96734432
0.13000001 747496.49828985 16157.13757210
0.13100001 738481.86261183 21932.91235344
0.13200001 729520.77518564 20375.51621144
0.13300001 720614.33966728 15932.78380116
0.13400001 711762.51183293 21619.78731620
0.13500001 702968.16473040 15774.60636029
0.13600001 694231.17769134 18546.38678650
0.13700001 685552.96794675 18448.23123734
0.13800001 676932.64319755 16936.85553147
0.13900001 668374.78376304 19650.21956930
0.14000001 659877.07141299 22330.24114972
0.14100001 651442.94011154 16650.88233456
0.14200001 643071.21910129 19311.42962044
0.14300001 634764.65417914 13710.91717698
0.14400001 626519.70398368 20440.20630663
0.14500001 618343.19394862 20312.57487940
0.14600001 610231.96303957 16146.73850374
0.14700001 602188.87956538 17379.17188415
0.14800001 594211.18273238 13280.62056063
0.14900001 586302.42081355 17149.34661792
0.15000001 578462.05445123 14412.38276667
0.15100001 570691.39118556 18216.47006619
0.15200001 562991.58266420 12920.65743183
0.15300001 555361.76310936 14111.74306653
0.15400001 547800.87838505 16557.28233054
0.15500001 540313.06071309 12643.32621736
0.15600001 532894.79574182 13804.64033520
0.15700001 525551.52443714 14946.68606043
0.15800001 518277.22103262 12360.91230505
0.15900001 511077.87237124 13492.45646745
0.16000001 503948.98972513 13387.40554397
0.16100001 496895.39973422 13282.01466186
0.16200001 489914.71976732 14374.09855652
0.16300001 483007.06445247 13070.17178110
0.16400001 476173.78042633 12963.83178412
0.16500001 469413.23501981 16363.74614534
0.16600001 462727.50672892 15068.72196807
0.16700001 456114.66169359 12643.49901911
0.16800001 449575.89445464 22793.49892508
0.16900001 443112.57782454 15819.11977528
0.17000001 436721.57408986 14562.48157566
0.17100001 430405.51296847 11104.46275895
0.17200001 424162.91654613 12107.73102457
0.17300001 417994.23529438 12000.61506202
0.17400001 411900.07877332 11893.61533627
0.17500001 405878.38857856 10715.18996453
0.17600001 399929.33446563 13803.56163101
0.17700001 394056.19858856 12625.56119909
0.17800001 388254.05008798 16679.39477958
0.17900001 382524.71867021 11360.98468113
0.18000001 376869.41632855 17394.40873227
0.18100001 371286.73938303 12163.35415674
0.18200001 365773.95132649 17068.84224495
0.18300001 360333.90837462 10939.73797504
0.18400001 354965.14229741 9850.28316409
0.18500001 349667.87551428 17560.32153791
0.18600001 344441.66051939 14492.38355102
0.18700001 339284.87299025 14351.75080553
0.18800001 334196.78869922 11369.37528871
0.18900001 329181.73409004 10319.84785131
0.19000001 324231.93561019 9289.24539414
0.19100001 319353.18057207 10117.10923856
0.19200001 314541.16955290 11837.75747547
0.19300001 309798.79380426 13522.71798854
0.19400001 305121.75187723 10709.77399697
0.19500001 300512.33100307 9718.56924389
0.19600001 295967.84902900 12244.19049295
0.19700001 291491.01533043 11254.46863377
0.19800001 287078.04638237 11140.06411633
0.19900001 282729.97324264 11026.46947757
0.20000001 278444.54085733 10074.12396433
0.20100001 274224.28336199 14125.29350357
0.20200001 270065.56546011 8223.49685693
0.20300001 265969.48962735 8952.53344399
0.20400001 261935.24113020 8054.50904546
0.20500001 257961.48364300 10362.31328773
0.20600001 254047.81913604 8677.00367274
0.20700001 250194.23536789 10147.87866620
0.20800001 246399.15871031 10041.99818793
0.20900001 242664.86297683 9937.12660864
0.21000001 238985.47437626 8320.27968373
0.21100001 235364.78580897 9729.98070531
0.21200001 231799.34642661 11108.98420267
0.21300001 228289.71702180 8793.72031541
0.21400001 224835.55259005 7250.94691383
0.21500001 221436.95862686 9326.92513832
0.21600001 218090.44244621 8518.61308470
0.21700001 214797.41441443 10535.81367516
0.21800001 211557.07989521 7644.61544346
0.21900001 208367.55753622 9626.58161333
0.22000001 205228.46253720 6803.32385479
0.22100001 202141.39967734 8077.57071304
0.22200001 199103.20786503 7326.00287980
0.22300001 196113.50811620 9225.17985800
0.22400001 193171.41421245 9779.30330693
0.22500001 190279.07041694 6450.46079216
0.22600001 187431.37493042 7020.24247999
0.22700001 184631.04870669 6945.82038081
0.22800001 181875.24859882 6872.15659329
0.22900001 179163.83213425 8653.61350132
0.23000001 176497.11298553 9785.00040667
0.23100001 173874.72167605 8471.17684068
0.23200001 171293.33398006 7184.04276688
0.23300001 168755.08326453 7107.96444327
0.23400001 166257.01264512 8204.78396208
0.23500001 163799.60434393 6378.35689482
0.23600001 161382.63208750 8032.01397889
0.23700001 159004.81585423 8514.70829172
0.23800001 156665.41906224 7863.03775465
0.23900001 154364.22018753 6668.53462752
0.24000001 152099.75562215 6048.24706840
0.24100001 149873.15106186 5984.43520497
0.24200001 147682.55386664 6459.63521168
0.24300001 145526.61520993 6924.15667922
0.24400001 143405.60574287 5797.17188638
0.24500001 141318.39618856 5214.64906603
0.24600001 139264.88538479 7739.64637138
0.24700001 137245.09383244 7147.72482492
0.24800001 135257.22865986 6062.22927532
0.24900001 133299.85656213 4998.74485756
0.25000001 131375.06613907 5440.89862155
0.25100001 129480.07132020 6362.65100569
0.25200001 127616.83296615 5327.36494421
0.25300001 125781.32184100 6229.94916553
0.25400001 123975.94519122 5216.28814071
0.25500001 122197.29622955 6569.32695611
0.25600001 120447.88010075 5107.59259733
0.25700001 118724.85568961 5973.04777235
0.25800001 117028.62813250 5455.87490168
0.25900001 115359.72088672 5848.73812569
0.26000001 113715.40634104 6677.93755335
0.26100001 112096.32863450 5727.00170092
0.26200001 110503.01826550 5231.21313221
0.26300001 108932.71006284 6039.22973165
0.26400001 107387.00117895 4695.49684873
0.26500001 105864.75362714 5491.20503048
0.26600001 104364.95105202 4179.81648742
0.26700001 102888.05669229 4549.71008223
0.26800001 101433.35644109 4911.40335129
0.26900001 99999.47781755  5669.97066057
0.27000001 98587.44754537  4809.09591884
0.27100001 97195.81597230  4362.14842727
0.27200001 95825.34479453  5101.26247155
0.27300001 94474.70526250  4659.49268405
0.27400001 93142.22080390  3842.11678999
0.27500001 91831.04301455  4181.98589680
0.27600001 90536.67096611  4137.97874234
0.27700001 89262.74225399  4466.70783378
0.27800001 88005.84340830  4787.95813723
0.27900001 86767.19134911  4737.48887188
0.28000001 85545.71609337  4687.47773519
0.28100001 84341.74920437  5351.48424030
0.28200001 83154.98775854  5294.89409613
0.28300001 81984.71972251  4540.31399313
0.28400001 80830.04897137  4146.58170849
0.28500001 79692.18844736  4102.55405545
0.28600001 78569.78352139  4058.91520883
0.28700001 77463.40081382  4684.98670297
0.28800001 76370.82602477  3972.81055785
0.28900001 75294.96331473  5895.59590660
0.29000001 74232.81209024  3888.31488134
0.29100001 73185.89509618  3526.09659264
0.29200001 72152.77064685  3488.22586204
0.29300001 71134.07652663  4078.11680031
0.29400001 70128.47463387  4034.14069428
0.29500001 69137.67245881  3990.62664323
0.29600001 68159.13716773  3643.78764547
0.29700001 67194.36669700  3303.94716689
0.29800001 66242.82135721  3268.08974636
0.29900001 65304.50207418  4408.05409868
0.30000001 64377.78197411  3197.32269310
0.30100001 63464.72328197  3449.94252093
0.30200001 62563.13467930  3127.84406637
0.30300001 61674.45159590  3937.29717628
0.30400001 60797.65375271  3615.94062813
0.30500001 59933.33625680  2750.94026442
0.30600001 59079.51397246  4625.03997030
0.30700001 58238.31340486  4035.91531003
0.30800001 57408.34498935  2660.87691623
0.30900001 56590.09732493  2894.58361521
0.31000001 55783.15639215  2602.28436890
0.31100001 54986.74730486  3345.39386442
0.31200001 54202.34133939  2799.28005101
0.31300001 53428.15652836  4026.34606661
0.31400001 52666.19615577  2737.32567480
0.31500001 51913.62257772  2460.70582669
0.31600002 51173.09768328  2919.93709206
0.31700002 50442.43177545  2646.71452057
0.31800002 49721.97813071  3806.71482593
0.31900002 49012.86377922  3058.40284464
0.32000002 48314.16602065  3256.85808566
0.32100002 47625.28915307  3220.42220502
0.32200002 46947.80166136  2502.08320802
0.32300002 46278.87534465  2249.15344825
0.32400002 45621.34503016  2668.84881064
0.32500002 44973.27852450  2639.03210878
0.32600002 44335.59515464  3261.99156797
0.32700002 43708.02270205  2580.52178252
0.32800002 43091.18533617  3189.82514556
0.32900002 42482.29578596  2944.02323738
0.33000002 41884.63670425  2495.48677301
0.33100002 41295.62674714  2467.82677127
0.33200002 40718.08918598  2440.64238138
0.33300002 40149.32372536  2614.92557806
0.33400002 39590.77600306  2188.38024720
0.33500002 39041.56302046  2361.23384330
0.33600002 38501.59939987  1946.25594183
0.33700002 37971.11913169  2117.64941426
0.33800002 37451.02106000  3427.89211996
0.33900002 36939.62746782  3202.66585313
0.34000002 36437.74695792  2422.92809871
0.34100002 35945.51959824  2212.80629126
0.34200002 35463.25112952  2189.50122843
0.34300002 34989.54481365  1986.00665768
0.34400002 34525.92910376  2144.06029889
0.34500002 34071.15288010  1945.12221005
0.34600002 33626.31625923  1750.24984419
0.34700002 33189.43225245  2945.23035757
0.34800002 32762.74738828  2572.69486051
0.34900002 32344.62325694  1698.09280141
0.35000002 31936.01746771  2522.14709897
0.35100002 31537.19431956  2497.74590841
0.35200002 31145.71216035  1814.08209070
0.35300002 30764.62348317  1796.96174276
0.35400002 30391.85185864  1942.03942575
0.35500002 30028.35301182  2725.97401553
0.35600002 29673.33008807  1747.90759163
0.35700002 29327.12005590  1574.86642159
0.35800002 28990.04275114  1561.11387609
0.35900002 28662.16577032  2012.08413238
0.36000002 28342.68508815  2148.65905831
0.36100002 28031.22825606  2435.35322624
0.36200002 27730.01408792  1509.89933861
0.36300002 27435.76468796  1647.79210521
0.36400002 27150.71827578  1783.80227521
0.36500002 26873.32001865  2213.01800836
0.36600002 26605.28014521  1464.62074137
0.36700002 26345.02017537  1890.51873734
0.36800002 26093.85248553  2022.01272488
0.36900002 25850.65668095  1578.18266513
0.37000002 25614.94387005  1853.11320206
0.37100002 25387.38730840  1699.93953470
0.37200002 25168.66634949  1549.00564386
0.37300002 24957.55759004  1400.11904713
0.37400002 24754.08901386  2088.62635948
0.37500002 24558.82557160  2354.70030735
0.37600002 24371.42025561  1791.66504497
0.37700002 24191.55749416  1371.66137490
0.37800002 24019.16426287  1638.58746364
0.37900002 23855.22141735  1903.64675929
0.38000002 23697.99843151  1625.20880942
0.38100002 23547.45662795  1484.19626157
0.38200002 23405.42540557  1479.10592858
0.38300002 23269.91800337  1742.45154264
0.38400002 23141.88066354  1737.37677312
0.38500002 23020.36312442  1599.45490566
0.38600002 22906.73128338  1595.68297680
0.38700002 22799.12281920  1592.29081313
0.38800002 22698.23923447  1854.21925091
0.38900002 22604.18091878  1983.51696959
0.39000002 22517.18042162  1320.63269429
0.39100002 22435.86271393  1978.84318512
0.39200002 22361.81775160  1318.22921891
0.39300002 22293.17112824  1712.78441893
0.39400002 22232.06972361  1448.97521288
0.39500002 22175.66331899  1580.68135627
0.39600002 22125.61379207  1712.85447286
0.39700002 22080.83681699  1977.33903064
0.39800002 22042.92575527  1319.26916896
0.39900002 22009.72068272  1452.64163388
0.40000002 21982.31902663  1983.35482815
0.40100002 21959.99599694  2118.70051417
0.40200002 21943.57972767  1724.43629460
0.40300002 21932.01192374  1461.98798411
0.40400002 21925.50460161  1864.76425472
0.40500002 21923.60868789  1335.14783235
0.40600002 21927.39292536  1606.40088182
0.40700002 21935.31356507  1879.41775530
0.40800002 21947.68228293  1615.78844623
0.40900002 21964.25667174  1620.96221918
0.41000002 21985.90464202  1897.60351956
0.41100002 22011.47508357  1632.37106954
0.41200002 22040.25711132  1911.55158984
0.41300002 22074.49264221  1507.90866384
0.41400002 22111.65243415  1789.38555802
0.41500002 22152.55965631  1520.55176686
0.41600002 22196.19877632  1527.20952917
0.41700002 22244.77040073  1534.22188724
0.41800002 22296.95154908  1821.77251264
0.41900002 22350.55321693  1830.51039520
0.42000002 22407.87797830  1698.06907366
0.42100002 22469.00823666  1564.51711765
0.42200002 22532.37529541  1572.64720826
0.42300002 22598.30054346  1868.42757747
0.42400002 22666.68932729  1734.00181570
0.42500002 22738.08740674  2324.74216663
0.42600002 22810.51289312  1753.21610404
0.42700002 22886.38970053  1616.23691724
0.42800002 22963.60869271  2068.79160516
0.42900002 23043.74461889  1783.58591802
0.43000002 23125.36713101  1943.57157263
0.43100002 23207.35589103  2105.37142620
0.43200002 23292.24903782  1966.68114070
0.43300002 23377.86841365  1674.08923643
0.43400002 23465.31086325  1837.33392766
0.43500002 23553.46828029  2310.59534779
0.43600002 23643.47967009  1859.79619898
0.43700002 23733.60341980  2027.08716415
0.43800002 23824.26359579  1882.59339855
0.43900002 23916.72745543  1578.50408686
0.44000002 24009.09105031  1905.84173789
0.44100002 24102.29737212  1917.57886980
0.44200002 24195.78478251  1607.80997499
0.44300002 24289.68728930  2264.77055018
0.44400002 24383.51967350  1627.60001534
0.44500002 24476.99071242  1637.51075626
0.44600002 24570.32776228  1812.18460999
0.44700002 24664.66363033  1823.21202196
0.44800002 24757.48922666  1667.41697844
0.44900002 24850.61324592  1677.41647360
0.45000002 24943.62884990  2193.66754317
0.45100002 25035.09262853  2036.85523279
0.45200002 25126.40986247  2731.74340971
0.45300002 25216.55925555  2575.87165003
0.45400002 25306.07344270  2763.42335091
0.45500002 25395.04109320  2258.12716103
0.45600002 25482.40682285  1921.50097754
0.45700002 25569.01609787  2283.56893593
0.45800002 25653.99029331  2826.04370465
0.45900002 25737.68802442  2131.08066942
0.46000002 25820.51150734  2142.58614643
0.46100002 25900.99327029  2153.92670244
0.46200002 25980.60985639  2345.65947206
0.46300002 26058.48379309  2176.40466955
0.46400002 26134.11816008  2369.71127648
0.46500002 26209.15114226  2381.62567718
0.46600002 26281.11781715  2025.09162938
0.46700002 26351.39080664  2404.82803899
0.46800002 26420.39110317  2788.01190330
0.46900002 26486.61222102  2054.03687509
0.47000002 26550.82286664  2250.97886932
0.47100002 26613.19011140  2826.32092379
0.47200002 26673.40523917  2649.46946798
0.47300002 26731.23447329  2660.82720559
0.47400002 26786.17016197  2099.36618595
0.47500002 26839.18918845  2682.84547844
0.47600002 26890.44247200  1924.01125007
0.47700002 26938.15505012  2124.61238951
