# SAXS profile: number of points = 501, q_min = 0, q_max = 0.5, delta_q = 0.001
#    q    intensity    error
0.00000000 1664650.74656090 249.69761198
0.00100000 1664568.76539733 599.24476977
0.00200000 1664322.75845202 748.94526502
0.00300000 1663912.95463619 998.34780835
0.00400000 1663339.22885560 1372.25491595
0.00500000 1662602.07931207 1945.24450979
0.00600000 1661701.41081531 1919.26520763
0.00700000 1660637.80313921 2192.04199125
0.00800000 1659411.08072933 3136.28707499
0.00900000 1658022.45303364 3730.55067880
0.01000000 1656471.32801451 3553.13115201
0.01100000 1654758.98864814 3276.42294018
0.01200000 1652885.34199433 4190.06452566
0.01300000 1650851.53785348 4160.14605887
0.01400000 1648657.65767274 4080.42788363
0.01500000 1646305.08514438 5531.58533240
0.01600000 1643793.24698663 6287.50945080
0.01700000 1641124.36114502 5317.24316863
0.01800000 1638298.37598103 7003.72587247
0.01900000 1635316.09741624 5396.54336498
0.02000000 1632178.61449246 5141.36286822
0.02100000 1628887.89409718 5375.33029423
0.02200000 1625442.51361514 6168.55461942
0.02300000 1621845.85533956 5838.64534499
0.02400000 1618097.25187867 7281.43796547
0.02500000 1614199.44312856 9443.06717357
0.02600000 1610152.24098256 9129.56362394
0.02700000 1605957.97564088 7419.52618728
0.02800000 1601616.35311862 9057.14089224
0.02900000 1597130.00830929 8624.50244086
0.03000000 1592500.26538335 7405.12657441
0.03100000 1587727.42046487 12955.85634713
0.03200000 1582812.95540289 9401.90938813
0.03300000 1577760.92781768 8851.23921310
0.03400000 1572569.12909334 9081.58713954
0.03500000 1567241.07479581 12694.65329206
0.03600000 1561777.78193047 9534.65379932
0.03700000 1556181.08876128 11531.30240102
0.03800000 1550452.84920069 9977.16454635
0.03900000 1544594.67113422 13901.35268398
0.04000000 1538606.79781320 16086.13481655
0.04100000 1532493.06614176 12551.11879365
0.04200000 1526254.32894208 9844.34087838
0.04300000 1519891.54443320 15046.92698834
0.04400000 1513408.40514521 11237.05793007
0.04500000 1506805.97623263 13516.05023483
0.04600000 1500084.40349121 10575.59553624
0.04700000 1493247.88301791 11826.52378353
0.04800000 1486297.22827527 12016.71364972
0.04900000 1479235.64346760 13313.12141090
0.05000000 1472063.14678662 13513.54031677
0.05100000 1464784.12563529 13710.38005463
0.05200000 1457396.98044483 11586.30653447
0.05300000 1449907.79966418 12918.67909725
0.05400000 1442316.43791540 11899.11116770
0.05500000 1434625.54785694 13255.94068058
0.05600000 1426836.07581952 17079.22862455
0.05700000 1418953.42380708 13579.38489970
0.05800000 1410976.36228723 13735.85552823
0.05900000 1402907.47328183 12626.16784925
0.06000000 1394750.56621500 12761.96827709
0.06100000 1386507.15458477 14183.96885424
0.06200000 1378179.29792556 15628.55396901
0.06300000 1369770.25101051 22354.65154169
0.06400000 1361278.79588295 17254.20954474
0.06500000 1352710.91906234 14731.02259767
0.06600000 1344067.66449696 17560.24485827
0.06700000 1335350.68115334 16344.69310223
0.06800000 1326563.14960173 15102.92216517
0.06900000 1317707.68113181 22137.49007947
0.07000000 1308784.90471259 19513.98384307
0.07100000 1299798.24571745 19652.95039575
0.07200000 1290749.77876158 18373.82396143
0.07300000 1281642.28468341 15648.85302922
0.07400000 1272478.28620770 15746.91952979
0.07500000 1263259.22344346 27362.19606232
0.07600000 1253986.24835936 17380.25021706
0.07700000 1244664.83000372 17475.09503263
0.07800000 1235294.98321162 17565.89548504
0.07900000 1225878.81056789 23536.87426687
0.08000000 1216420.95635776 16257.46684438
0.08100000 1206921.64897438 17814.16437467
0.08200000 1197382.89683371 17888.90131814
0.08300000 1187808.64571709 28436.14031303
0.08400000 1178199.95092729 19528.66510327
0.08500000 1168559.57146456 18089.30301548
0.08600000 1158889.31097044 15123.50621824
0.08700000 1149192.74237342 16686.27940281
0.08800000 1139469.79107333 16733.11466776
0.08900000 1129725.64525318 19826.68600545
0.09000000 1119960.11502221 19873.69317465
0.09100000 1110176.20419656 16852.47557145
0.09200000 1100375.25733895 18420.28267336
0.09300000 1090563.22609766 21527.71909480
0.09400000 1080736.11526710 21560.68651288
0.09500000 1070899.99062350 26215.63300267
0.09600000 1061055.90581150 24701.38264845
0.09700000 1051208.50666893 15452.76577451
0.09800000 1041357.43384621 20103.40620562
0.09900000 1031505.55433263 18567.10085106
0.10000000 1021653.48615910 20121.46635616
0.10100000 1011804.00222444 18576.72235454
0.10200000 1001959.92438832 18576.33787192
0.10300000 992122.25075968 17024.81862390
0.10400000 982294.28588296 21659.59002270
0.10500000 972478.53003673 23193.61403262
0.10600001 962672.26268929 18541.06865182
0.10700001 952883.25505037 21611.39324152
0.10800001 943109.63569370 21587.78057699
0.10900001 933355.68246164 21560.51727962
0.11000001 923620.81564106 16916.11603470
0.11100001 913908.48528391 16889.02960307
0.11200001 904219.86616903 21457.13843433
0.11300001 894556.64047002 21415.68698112
0.11400001 884921.39704727 16791.38429958
0.11500001 875315.43891773 22845.73403151
0.11600001 865740.03874936 28868.10295154
0.11700001 856197.92018434 19701.11507126
0.11800001 846688.00649117 18136.05795322
0.11900001 837213.75018000 18083.81785567
0.12000001 827775.65481852 21033.78037973
0.12100001 818378.79115690 19469.23235878
0.12200001 809020.83112768 22389.65255626
0.12300001 799705.13171293 19336.87099586
0.12400001 790431.37711052 19266.76572487
0.12500001 781201.57729054 17717.65260781
0.12600001 772019.27563767 20589.75505152
0.12700001 762883.42498027 14647.36244990
0.12800001 753795.44203474 17503.13098896
0.12900001 744757.78290220 14522.77745108
0.13000001 735771.17266284 17349.48506916
0.13100001 726836.16968999 14391.35683824
0.13200001 717954.34731506 17187.82788496
0.13300001 709127.54391509 15678.81073511
0.13400001 700355.44030754 18436.85783531
0.13500001 691640.70924088 16931.36536050
0.13600001 682983.47757896 15438.84223863
0.13700001 674385.19705173 16751.72908466
0.13800001 665844.85210425 16659.43898524
0.13900001 657366.74062055 15185.17242444
0.14000001 648948.97170117 15097.79853865
0.14100001 640594.82960616 15009.13756555
0.14200001 632303.17469235 13562.90373685
0.14300001 624076.51463147 26960.10670372
0.14400001 615911.60139211 14735.68575839
0.14500001 607814.96573703 19966.72256633
0.14600001 599783.79629615 15870.27999867
0.14700001 591820.52348817 17079.94111364
0.14800001 583922.50929203 14355.73556823
0.14900001 576093.72874660 15554.53141003
0.15000001 568333.36175014 14160.02637612
0.15100001 560642.12210114 16617.43328317
0.15200001 553021.82146218 13961.03654159
0.15300001 545471.53717065 17640.55034454
0.15400001 537990.25837786 12508.27409756
0.15500001 530581.69345336 13657.17343401
0.15600001 523242.83314247 14786.84316247
0.15700001 515978.57546433 17120.16994192
0.15800001 508783.46475344 15774.83206923
0.15900001 501663.02312963 13243.90443574
0.16000001 494612.83061194 13139.39046542
0.16100001 487638.07279689 16589.44801964
0.16200001 480736.05853471 11753.99718603
0.16300001 473906.68101457 12823.91539364
0.16400001 467151.50136237 13874.40024547
0.16500001 460469.08428708 12612.24881406
0.16600001 453860.86077668 13643.05811908
0.16700001 447325.94772057 13527.13729775
0.16800001 440864.69212238 16763.88070948
0.16900001 434478.45439251 14402.96144319
0.17000001 428164.53093852 15375.38903202
0.17100001 421925.29235456 13062.80766814
0.17200001 415759.51400834 11867.85588780
0.17300001 409667.00766794 11761.54034558
0.17400001 403649.20094614 11655.37122776
0.17500001 397703.42025591 14699.11910686
0.17600001 391829.94174860 13524.01107818
0.17700001 386032.30731774 13399.18201985
0.17800001 380305.37407562 12253.43973147
0.17900001 374651.08252687 14161.81158843
0.18000001 369070.15045614 10020.25505819
0.18100001 363562.06636054 14887.86732071
0.18200001 358123.39887893 9830.48776360
0.18300001 352756.98584435 16551.35855769
0.18400001 347462.00395270 13498.89949126
0.18500001 342237.92943391 11458.12641875
0.18600001 337084.54504617 11346.26632229
0.18700001 332000.60387495 14979.86795456
0.18800001 326984.89139912 10197.02432005
0.18900001 322041.74310428 12849.46615697
0.19000001 317163.42671418 9086.73260470
0.19100001 312356.19054270 11694.61632649
0.19200001 307615.26817954 9796.00867805
0.19300001 302943.43309313 9697.21975153
0.19400001 298336.69490692 8726.34873838
0.19500001 293797.23500482 10365.16694078
0.19600001 289322.48686333 11114.32385808
0.19700001 284914.88220117 9308.16964139
0.19800001 280570.78746603 9212.54224182
0.19900001 276291.31577335 9117.61385142
0.20000001 272073.97528608 9023.33381682
0.20100001 267921.46866918 11365.22923809
0.20200001 263830.13642128 8836.99083710
0.20300001 259801.04869824 7949.91246592
0.20400001 255833.68181315 11013.64052262
0.20500001 251926.16468447 8562.97074237
0.20600001 248078.16128770 13865.08908974
0.20700001 244290.19978307 10670.59643091
0.20800001 240560.17995574 9049.87439772
0.20900001 236890.68934484 9700.67418723
0.21000001 233275.52926765 8859.80502041
0.21100001 229718.60171593 9496.56744387
0.21200001 226216.59562962 9395.90674366
0.21300001 222770.05012428 9296.19463117
0.21400001 219378.50650471 7782.45288618
0.21500001 216041.99462182 7699.73705235
0.21600001 212757.15806710 6925.24582250
0.21700001 209525.57244646 9592.08116011
0.21800001 206346.04394819 12879.08894196
0.21900001 203217.12703504 10059.24826385
0.22000001 200138.05268555 9951.86514034
0.22100001 197110.57614904 8532.91724496
0.22200001 194131.48231440 9740.54758570
0.22300001 191200.45581792 8351.63630504
0.22400001 188316.70894249 6991.25815008
0.22500001 185482.06716005 6916.62661147
0.22600001 182691.82447668 9330.98537639
0.22700001 179948.31192671 8615.92558249
0.22800001 177249.08855445 6697.35712775
0.22900001 174593.65494005 7830.52579437
0.23000001 171982.36650172 8342.86499355
0.23100001 169415.20152268 6485.21422099
0.23200001 166888.38959914 6416.02444158
0.23300001 164404.22399266 8655.88280259
0.23400001 161960.11796795 6850.91331406
0.23500001 159555.87702268 6777.93397649
0.23600001 157191.57778144 8382.24128165
0.23700001 154866.30317610 5528.72728488
0.23800001 152578.75756783 6016.94358928
0.23900001 150328.94736208 5411.84236101
0.24000001 148115.45807815 6425.24887535
0.24100001 145939.26406306 5827.35508968
0.24200001 143798.69768091 7338.04788976
0.24300001 141692.29182843 6741.71956410
0.24400001 139620.48452631 6670.36896378
0.24500001 137581.91418710 7107.48202312
0.24600001 135576.64236600 5525.42632101
0.24700001 133604.50606644 7455.13179118
0.24800001 131663.74316969 5901.16924803
0.24900001 129753.38286826 6325.47771407
0.25000001 127874.85160859 5777.38606899
0.25100001 126025.59684206 5240.14456460
0.25200001 124207.79051879 5656.42304783
0.25300001 122417.30261015 5130.50939512
0.25400001 120656.38018307 6922.66014052
0.25500001 118921.77784925 7763.21402529
0.25600001 117215.82970696 6778.00567349
0.25700001 115535.87265353 5365.48617989
0.25800001 113882.33800673 7078.92646543
0.25900001 112255.44998553 4815.75903224
0.26000001 110653.01061898 4332.06557071
0.26100001 109074.97435885 6858.63471221
0.26200001 107522.64450058 5090.12223151
0.26300001 105992.49266210 4617.03319883
0.26400001 104486.95305357 7476.04184474
0.26500001 103004.09082081 4931.83610187
0.26600001 101543.26682895 6506.89284630
0.26700001 100104.76210286 5633.89627775
0.26800001 98688.18455870  4778.48212245
0.26900001 97291.99077898  5516.45613822
0.27000001 95917.29381400  4288.94199585
0.27100001 94562.37538381  4243.95960806
0.27200001 93228.26008395  4199.46717422
0.27300001 91913.48944510  4910.93797346
0.27400001 90616.51306657  4859.31074316
0.27500001 89340.44810302  6657.65050771
0.27600001 88080.59288623  5123.64833067
0.27700001 86840.80103727  5431.89236195
0.27800001 85617.65491453  4299.71883330
0.27900001 84412.38652506  3899.85244203
0.28000001 83223.83244314  4209.46164420
0.28100001 82052.31451580  4164.97568195
0.28200001 80897.67708067  6524.80245376
0.28300001 79759.05182085  4417.05649890
0.28400001 78635.63561299  4034.00829788
0.28500001 77528.52281886  3991.16854362
0.28600001 76436.56918195  3290.59445903
0.28700001 75360.27088436  4883.34578445
0.28800001 74297.30763262  3864.94612599
0.28900001 73250.61718002  4779.60299723
0.29000001 72217.45581103  3782.75051444
0.29100001 71198.90834856  3430.36356661
0.29200001 70193.91612101  5244.53869123
0.29300001 69202.81336376  3357.02863518
0.29400001 68224.47170801  4226.50622238
0.29500001 67260.68184747  3583.64929847
0.29600001 66308.57309944  3544.85648570
0.29700001 65370.03214954  3214.24463295
0.29800001 64444.25802789  3468.39013125
0.29900001 63531.31862638  3716.58231558
0.30000001 62629.74389366  3393.27968480
0.30100001 61741.35753934  3635.94871762
0.30200001 60864.08469933  3042.90005860
0.30300001 59999.45490222  3009.57280037
0.30400001 59146.28768551  4870.69702149
0.30500001 58305.19104671  3746.69175404
0.30600001 57474.37257209  3176.03397870
0.30700001 56655.78328536  2617.49731170
0.30800001 55848.07745146  2847.41436367
0.30900001 55051.75269177  3071.88794564
0.31000001 54266.32774622  2784.67674014
0.31100001 53491.18972396  4255.75925593
0.31200001 52727.82210137  2970.68563784
0.31300001 51974.23141598  4895.97283119
0.31400001 51232.61895556  2904.88963232
0.31500001 50500.20920173  3590.56504425
0.31600002 49779.29474961  3077.10725064
0.31700002 49068.00429470  2574.59830725
0.31800002 48366.71649853  3471.52124105
0.31900002 47676.35541018  3203.85123526
0.32000002 46996.13004250  2941.72289930
0.32100002 46325.56165572  3580.03957427
0.32200002 45665.94347495  2876.26958596
0.32300002 45014.53875230  2625.24802434
0.32400002 44374.31262495  2163.24784290
0.32500002 43743.47064027  2780.77256028
0.32600002 43122.63329691  2326.68178971
0.32700002 42511.51703036  2719.03675802
0.32800002 41910.97555295  2481.96808977
0.32900002 41318.06047144  2454.29290822
0.33000002 40736.16882118  2224.80596552
0.33100002 40162.74751246  2600.13639708
0.33200002 39600.42620597  2373.64965919
0.33300002 39046.67431071  2738.73386585
0.33400002 38502.99725138  1934.77570350
0.33500002 37968.21368613  2487.67747852
0.33600002 37442.52940893  2460.53593663
0.33700002 36926.17722353  2433.80445606
0.33800002 36419.85941433  2037.14493281
0.33900002 35922.06873909  2564.83582944
0.34000002 35433.66925706  1993.67549517
0.34100002 34954.48876845  2510.43150224
0.34200002 34485.24098628  2661.39859916
0.34300002 34024.41853775  2106.79209563
0.34400002 33573.31405391  2258.64480995
0.34500002 33130.87185192  1719.49233055
0.34600002 32698.08995223  2382.70992767
0.34700002 32273.19415868  2190.05905933
0.34800002 31858.28249296  2001.33740099
0.34900002 31451.75423313  2146.58232808
0.35000002 31054.52352026  2452.53111117
0.35100002 30666.89750326  1943.05471783
0.35200002 30286.42387977  2405.49933058
0.35300002 29916.19438821  1588.54999725
0.35400002 29554.17810551  1888.51207039
0.35500002 29201.26418883  1559.34758154
0.35600002 28856.50877950  2008.84595383
0.35700002 28520.51569064  1837.86211815
0.35800002 28193.39889538  1973.67898315
0.35900002 27875.45341091  1655.80201104
0.36000002 27565.73271022  2388.29519514
0.36100002 27263.81677864  1480.42532120
0.36200002 26971.94914193  1909.20951044
0.36300002 26687.13049197  1748.54087266
0.36400002 26411.17773735  1446.01204961
0.36500002 26142.82977648  1578.76556498
0.36600002 25883.69798824  2137.34646262
0.36700002 25632.18117533  1556.38611469
0.36800002 25389.61714669  1545.84691320
0.36900002 25154.95295138  1675.31994592
0.37000002 24927.71022097  1387.22713951
0.37100002 24708.44460898  1792.35065684
0.37200002 24497.86126883  1918.91756409
0.37300002 24294.73561417  1908.10862552
0.37400002 24099.32438162  1491.14576675
0.37500002 23911.86721298  1888.08112458
0.37600002 23732.22293784  1342.05727071
0.37700002 23559.92390912  1469.43252382
0.37800002 23395.16708273  1463.01684282
0.37900002 23238.66954723  1589.52507233
0.38000002 23088.76930233  1715.38019658
0.38100002 22945.53627805  1577.73514922
0.38200002 22810.72801296  1310.47638643
0.38300002 22682.16222379  1698.44038778
0.38400002 22561.23709195  2084.65840606
0.38500002 22446.70703030  1819.53015808
0.38600002 22339.90182819  1685.88077133
0.38700002 22239.12214023  1682.61206084
0.38800002 22145.00561946  1550.59336693
0.38900002 22057.56880312  1806.51497056
0.39000002 21977.24264443  2062.34454746
0.39100002 21902.46267738  1416.65135309
0.39200002 21834.72284976  1415.87267027
0.39300002 21772.51707559  1801.45814818
0.39400002 21717.72291144  1544.13017216
0.39500002 21667.65963772  1930.58856519
0.39600002 21623.88007386  1802.78296717
0.39700002 21585.24886108  1417.50335987
0.39800002 21553.49572282  1676.96981417
0.39900002 21526.34780238  1291.58092934
0.40000002 21505.02126164  1422.87979919
0.40100002 21488.73359078  1425.34776661
0.40200002 21478.26143283  1558.03315816
0.40300002 21472.53722565  1691.60656278
0.40400002 21471.93601037  1826.18824421
0.40500002 21475.87839523  1831.03347873
0.40600002 21485.45944629  1574.02483361
0.40700002 21499.20502360  1710.47683272
0.40800002 21517.31077476  1980.13061787
0.40900002 21539.54775118  1589.61869936
0.41000002 21566.87510814  1462.55770476
0.41100002 21598.02063833  1735.18506030
0.41200002 21632.47531173  2010.19786359
0.41300002 21672.24745576  1480.43129385
0.41400002 21714.99226345  1486.93416570
0.41500002 21761.46109346  1629.49828389
0.41600002 21810.71213695  1909.96415233
0.41700002 21864.80925567  1782.20068688
0.41800002 21922.42821955  1653.38961466
0.41900002 21981.49243039  1384.83408873
0.42000002 22044.25679219  1531.30437063
0.42100002 22110.75882889  1399.61110019
0.42200002 22179.65898113  1970.21920065
0.42300002 22250.92543897  1981.22249497
0.42400002 22324.73322092  1707.84217233
0.42500002 22401.44463805  2004.03333228
0.42600002 22479.27715173  2159.69665469
0.42700002 22560.53114143  1448.38616791
0.42800002 22643.13846776  1602.79463239
0.42900002 22728.63663062  2345.59541143
0.43000002 22815.55586935  2065.03605959
0.43100002 22902.84093456  2226.15624433
0.43200002 22993.07793308  2986.80096504
0.43300002 23083.97917927  2103.87396210
0.43400002 23176.75191215  2268.42470090
0.43500002 23270.16380163  2130.61629864
0.43600002 23365.44113736  1837.92568696
0.43700002 23460.86753534  1541.37907012
0.43800002 23556.83984728  1706.33977520
0.43900002 23654.56439129  1717.32145619
0.44000002 23752.22162725  1885.45144212
0.44100002 23850.70314793  1739.43186301
0.44200002 23949.44878707  1750.58504205
0.44300002 24048.63583988  1761.80314512
0.44400002 24147.73257272  1934.23347074
0.44500002 24246.50049290  2270.92734379
0.44600002 24345.09980065  1795.57292089
0.44700002 24444.64614561  2628.28847813
0.44800002 24542.73339153  1818.24848948
0.44900002 24641.10528750  2494.91202860
0.45000002 24739.36465637  2175.70352782
0.45100002 24836.07058434  1683.88566542
0.45200002 24932.60456463  1694.17056046
0.45300002 25028.01702940  2045.28964857
0.45400002 25122.77370330  1714.62938651
0.45500002 25216.90696755  1724.83651833
0.45600002 25309.50846925  2428.95364291
0.45700002 25401.35842586  2268.59542853
0.45800002 25491.55524762  1930.60302818
0.45900002 25580.50643775  2647.58254179
0.46000002 25668.47988564  2484.96565550
0.46100002 25754.24179471  2498.67665735
0.46200002 25839.05510796  2153.42695476
0.46300002 25922.11656317  1804.17939831
0.46400002 26002.93766786  2357.81648478
0.46500002 26083.14098715  1823.21164141
0.46600002 26160.30543563  2565.54127567
0.46700002 26235.75694440  2578.45031470
0.46800002 26309.90999052  1850.90225556
0.46900002 26381.33536284  2417.84950060
0.47000002 26450.72130654  2242.49225865
0.47100002 26518.18793815  2440.73413351
0.47200002 26583.54253640  2263.32291882
0.47300002 26646.44524323  2652.38728523
0.47400002 26706.53950709  2283.40923608
0.47500002 26764.68719149  2484.29838286
0.47600002 26821.02014529  1919.04408235
0.47700002 26873.80163886  2312.22200260
