# SAXS profile: number of points = 501, q_min = 0, q_max = 0.5, delta_q = 0.001
#    q    intensity    error
0.00000000 1664650.74656090 324.60689558
0.00100000 1664568.75311607 499.37063779
0.00200000 1664322.69763472 823.83976142
0.00300000 1663912.83070062 1198.01728078
0.00400000 1663338.99895631 1497.00515594
0.00500000 1662601.71937885 1945.24408867
0.00600000 1661700.87490518 2093.74318762
0.00700000 1660637.08603011 1992.76458606
0.00800000 1659410.14528143 3360.30568607
0.00900000 1658021.27754921 2984.43842717
0.01000000 1656469.85545320 3826.44553132
0.01100000 1654757.23131577 3574.27577526
0.01200000 1652883.26159738 4512.37150200
0.01300000 1650849.12454710 3466.78331445
0.01400000 1648654.86374134 4822.31569022
0.01500000 1646301.85495090 4346.23709060
0.01600000 1643789.55567136 5029.99626521
0.01700000 1641120.24290553 4431.02485461
0.01800000 1638293.75094072 5136.05114031
0.01900000 1635310.99399310 6377.71316435
0.02000000 1632172.88231277 7712.01721779
0.02100000 1628881.56672161 6450.37129667
0.02200000 1625435.63420142 7290.07915060
0.02300000 1621838.33261999 10509.51287375
0.02400000 1618089.15433462 9101.75190815
0.02500000 1614190.50813362 6924.87759616
0.02600000 1610142.58659437 8477.40110616
0.02700000 1605947.66712957 10117.47076631
0.02800000 1601605.18686675 6966.98288237
0.02900000 1597118.01554520 8624.43767993
0.03000000 1592487.45780894 10367.09382686
0.03100000 1587713.90841435 11431.54066658
0.03200000 1582798.73331711 10185.31031801
0.03300000 1577745.43277807 10460.45270155
0.03400000 1572552.92023485 10732.67417581
0.03500000 1567223.74569287 11001.91120281
0.03600000 1561759.56777725 9534.54260191
0.03700000 1556161.98327956 10644.14845790
0.03800000 1550432.54484557 13605.04621066
0.03900000 1544573.52078609 15754.65064162
0.04000000 1538584.60118454 11354.75488291
0.04100000 1532469.80469899 16412.75236933
0.04200000 1526229.90899703 10828.60170670
0.04300000 1519866.03013522 18056.00927613
0.04400000 1513381.55962779 14301.45640267
0.04500000 1506778.01895857 14555.47633946
0.04600000 1500055.26195710 13748.00711494
0.04700000 1493217.57914719 12901.40048385
0.04800000 1486265.41541656 12016.45644275
0.04900000 1479202.81875349 12203.42382276
0.05000000 1472029.05854460 13513.22738670
0.05100000 1464748.64209046 11425.03994053
0.05200000 1457360.24680338 16220.42030281
0.05300000 1449869.76210816 16441.52386878
0.05400000 1442276.91639766 14278.54213820
0.05500000 1434584.70328026 16870.71689758
0.05600000 1426793.89641108 13418.99722193
0.05700000 1418909.81399653 14813.41914959
0.05800000 1410931.21172264 14984.09016814
0.05900000 1402860.88956354 13888.32345534
0.06000000 1394702.67343247 17866.14208135
0.06100000 1386457.60818637 12894.05635869
0.06200000 1378128.28823095 18232.63810555
0.06300000 1369717.72111904 17094.07795880
0.06400000 1361224.49733624 13271.93946971
0.06500000 1352655.28533855 18747.80313177
0.06600000 1344010.64910989 14858.03842110
0.06700000 1335291.87366875 19067.96884835
0.06800000 1326502.90209141 15102.23624723
0.06900000 1317645.51890264 16602.33431548
0.07000000 1308721.36874487 15331.67155280
0.07100000 1299733.02550664 19651.96426611
0.07200000 1290682.88486118 15546.27607645
0.07300000 1281574.05774622 18493.11451978
0.07400000 1272408.26887843 22903.34991316
0.07500000 1263187.36920390 17280.40402068
0.07600000 1253912.79855213 20275.77090313
0.07700000 1244589.59846737 14561.69898484
0.07800000 1235217.80327340 19028.53115179
0.07900000 1225800.12935020 16180.56246635
0.08000000 1216340.43730877 17734.24440789
0.08100000 1206839.50539519 22266.18991923
0.08200000 1197298.94412598 19378.28432001
0.08300000 1187722.96243142 19454.90303768
0.08400000 1178112.45412682 18025.12139422
0.08500000 1168470.32980498 19595.24835073
0.08600000 1158798.30389471 22683.47786376
0.08700000 1149099.95266580 18201.74410494
0.08800000 1139375.13911871 21294.92235022
0.08900000 1129629.55314560 16774.99965213
0.09000000 1119861.58381044 16814.72247079
0.09100000 1110075.87035962 16850.95250374
0.09200000 1100273.55592421 16883.69850897
0.09300000 1090459.45103007 23063.21847308
0.09400000 1080630.67609454 20018.68421548
0.09500000 1070792.61477478 24671.06300402
0.09600000 1060946.88474506 16980.45568856
0.09700000 1051097.62846471 23176.70379725
0.09800000 1041244.65198160 23193.72571341
0.09900000 1031390.74016516 26300.46511092
0.10000000 1021537.04693486 18571.54438664
0.10100000 1011685.48810864 20122.42530487
0.10200000 1001839.67151716 26313.32021008
0.10300000 992000.13114465 17022.72305120
0.10400000 982170.25960560 21656.85524315
0.10500000 972352.60269423 20098.52924331
0.10600001 962544.59735039 16993.72566584
0.10700001 952753.52943266 15434.60790313
0.10800001 942978.15739222 15417.69359895
0.10900001 933222.40558531 20017.62154195
0.11000001 923485.78109154 16913.64287681
0.11100001 913771.48183727 16886.49777926
0.11200001 904081.03492807 18389.00911614
0.11300001 894416.03618404 16823.96643271
0.11400001 884778.90775171 19841.16794054
0.11500001 875171.06996885 21319.16826832
0.11600001 865593.93894556 21267.64408142
0.11700001 856049.74679175 16667.28935498
0.11800001 846538.34784785 19643.92328700
0.11900001 837062.03095885 19587.25244703
0.12000001 827622.44553162 15021.34809398
0.12100001 818223.60810473 17968.19128043
0.12200001 808863.53750054 17908.23956394
0.12300001 799546.32653564 17845.87484907
0.12400001 790270.66670443 19262.84840854
0.12500001 781039.39925776 14761.64534155
0.12600001 771854.98801294 22055.75732181
0.12700001 762717.46738971 14644.17606401
0.12800001 753627.92832539 24790.59187063
0.12900001 744588.42795953 14519.47502954
0.13000001 735600.18848160 23127.27101596
0.13100001 726663.12016517 18704.30959473
0.13200001 717779.76502344 20047.58978215
0.13300001 708950.99743083 14249.91572014
0.13400001 700177.28048078 21267.88589729
0.13500001 691460.91282166 14105.80328663
0.13600001 682802.13440506 15434.74297599
0.13700001 674202.22484206 18142.78272599
0.13800001 665660.53478288 13879.02280470
0.13900001 657180.26318384 19321.10064875
0.14000001 648761.27341042 17837.69205366
0.14100001 640405.26243767 20460.94909988
0.14200001 632112.13835310 16270.56720861
0.14300001 623883.61326895 17518.65268691
0.14400001 615717.34126575 13391.85280422
0.14500001 607618.99842569 15968.22803188
0.14600001 599586.39418436 21153.40898472
0.14700001 591621.76336943 17074.20489634
0.14800001 583722.08522208 14350.80814224
0.14900001 575892.12245426 12957.57336657
0.15000001 568130.14838932 19302.22270226
0.15100001 560437.51045018 15333.57100943
0.15200001 552815.64511377 17761.96751564
0.15300001 545264.00294745 15114.71887495
0.15400001 537781.34749413 12503.41691929
0.15500001 530371.35178814 14892.82826105
0.15600001 523031.25559973 18476.07997604
0.15700001 515765.81931725 14668.38059368
0.15800001 508569.30627230 15768.19208521
0.15900001 501447.62004452 14441.69213894
0.16000001 494396.06993267 11939.66565246
0.16100001 487420.09426415 13028.73973469
0.16200001 480516.62856204 11748.63212295
0.16300001 473686.31251166 15148.48898925
0.16400001 466929.85667633 13867.81739798
0.16500001 460246.04853178 19482.21615413
0.16600001 453636.77636025 15909.04249807
0.16700001 447100.48959037 12393.62615661
0.16800001 440638.58100209 13404.22626698
0.16900001 434251.21766104 13288.08788787
0.17000001 427936.52389801 12074.22959192
0.17100001 421695.87761991 14143.68040325
0.17200001 415529.23653774 15096.17787630
0.17300001 409435.78745969 12823.52946882
0.17400001 403417.07250710 13766.60824945
0.17500001 397470.35025207 11542.53951645
0.17600001 391595.95857173 15595.30978667
0.17700001 385797.26492017 11330.86620587
0.17800001 380069.75931963 11225.36087170
0.17900001 374414.81750985 12131.04066031
0.18000001 368833.06112727 14019.34531565
0.18100001 363323.94937007 9918.74428633
0.18200001 357884.69298512 10806.32881515
0.18300001 352517.70582612 13621.28479658
0.18400001 347221.78636508 9635.40502681
0.18500001 341997.13483269 16220.92487142
0.18600001 336843.10065715 13227.82918773
0.18700001 331758.68774516 13097.83361098
0.18800001 326742.56711419 10189.46743687
0.18900001 321798.90565574 14674.03079121
0.19000001 316920.07622445 10895.71273541
0.19100001 312112.53245430 9887.72549535
0.19200001 307370.94365688 9788.22816326
0.19300001 302698.78545367 10570.24208751
0.19400001 298091.85307123 11334.94324865
0.19500001 293551.79855760 10356.50794251
0.19600001 289076.91074039 8542.22311605
0.19700001 284669.06248749 8454.67155543
0.19800001 280324.71313386 10041.23169899
0.19900001 276045.21785187 9109.49261963
0.20000001 271827.78271144 10654.29044691
0.20100001 267675.04033244 8110.55410540
0.20200001 263583.63054968 8828.73412254
0.20300001 259554.52719942 12707.79025231
0.20400001 255587.13697155 12574.88773336
0.20500001 251679.52697897 9332.27730149
0.20600001 247831.80802990 9234.21360368
0.20700001 244043.77320110 8375.58269217
0.20800001 240313.95341750 7533.84279576
0.20900001 236644.70130229 7454.30844340
0.21000001 233029.71884518 8850.46914012
0.21100001 229472.91335074 8756.68678742
0.21200001 225971.23106841 10107.69364353
0.21300001 222525.01188820 9285.96918509
0.21400001 219133.82364520 7067.06614666
0.21500001 215797.72353007 8390.21588752
0.21600001 212513.35183159 14526.35085123
0.21700001 209282.45046493 10265.30468064
0.21800001 206103.20469894 8801.63777281
0.21900001 202974.85377017 7367.98754023
0.22000001 199896.50826267 8614.54043090
0.22100001 196869.40798574 7866.90191508
0.22200001 193891.15078456 9728.48895062
0.22300001 190960.89924943 8341.17247363
0.22400001 188077.84969567 8886.67881834
0.22500001 185244.03330530 6279.77302600
0.22600001 182454.61061875 8076.35372096
0.22700001 179711.88188098 7989.99064627
0.22800001 177013.42293316 6688.45250183
0.22900001 174359.21471962 8421.55046922
0.23000001 171748.84513770 7736.42709510
0.23100001 169182.67107848 7065.06867836
0.23200001 166656.81253818 9319.44939789
0.23300001 164173.88522892 6338.75400848
0.23400001 161730.80188227 9121.61765757
0.23500001 159327.71345944 7332.26172019
0.23600001 156964.65878762 6138.10327220
0.23700001 154640.71908399 7728.94350538
0.23800001 152354.46838322 8192.86192482
0.23900001 150105.84459072 8105.71599130
0.24000001 147893.91752355 6415.63844563
0.24100001 145719.00912523 6347.52033774
0.24200001 143579.98319607 7326.88688907
0.24300001 141474.98986704 5177.98487407
0.24400001 139404.73962477 5123.12442355
0.24500001 137367.72896113 6589.53026998
0.24600001 135364.06466713 6018.28659980
0.24700001 133393.33500769 5954.67875643
0.24800001 131454.49300963 4909.82554618
0.24900001 129545.71931984 6801.15058604
0.25000001 127668.96163409 6248.75762280
0.25100001 125821.40767744 5707.25932225
0.25200001 124005.43926388 6588.40929979
0.25300001 122216.94546106 7915.99193202
0.25400001 120457.81852651 6911.26766494
0.25500001 118725.17207676 5470.85618813
0.25600001 117021.25580319 5413.40354958
0.25700001 115343.11641548 5356.53457977
0.25800001 113691.65491372 4416.92100238
0.25900001 112066.83453978 5681.78878000
0.26000001 110466.53032095 4757.24135336
0.26100001 108890.61708867 5991.16203570
0.26200001 107340.39813891 4658.03679764
0.26300001 105812.54185382 4609.19454125
0.26400001 104309.11000220 4560.91605066
0.26500001 102828.42264062 5333.71053475
0.26600001 101369.88408167 5683.80966941
0.26700001 99933.92143177  4419.07821482
0.26800001 98519.63348706  4372.79413925
0.26900001 97125.72534210  4326.95126875
0.27000001 95753.35795916  4281.61160376
0.27100001 94400.92940038  3851.55810180
0.27200001 93069.29623546  4573.42543344
0.27300001 91756.87609588  4148.32856461
0.27400001 90462.43220512  5224.20570708
0.27500001 89188.93320101  4800.14861205
0.27600001 87931.56185746  4384.26788170
0.27700001 86694.48648937  5422.74038655
0.27800001 85473.86744712  4650.20597854
0.27900001 84271.22429538  5663.02654067
0.28000001 83085.37928355  4902.86846357
0.28100001 81916.48963562  4504.58797826
0.28200001 80764.48900276  3771.29799248
0.28300001 79628.59540283  4070.61398966
0.28400001 78507.87063462  3356.21162848
0.28500001 77403.55155307  3984.73502256
0.28600001 76314.22298975  4270.92569177
0.28700001 75240.78675994  3900.48257025
0.28800001 74180.55043288  3215.72701348
0.28900001 73136.70012688  3499.59126672
0.29000001 72106.26170028  3776.92616664
0.29100001 71090.67313546  3425.14879380
0.29200001 70088.53018048  3388.43015197
0.29300001 69100.25437605  3352.05349845
0.29400001 68124.76661328  3918.87738493
0.29500001 67163.74082449  3280.27725715
0.29600001 66214.67273633  4129.80933406
0.29700001 65278.75182939  4085.14448287
0.29800001 64356.09863639  3463.64539257
0.29900001 63446.10153698  3426.08964518
0.30000001 62547.25033316  3671.21103210
0.30100001 61661.91950862  3631.27061177
0.30200001 60787.40994764  3591.62428679
0.30300001 59925.82807266  2732.61788948
0.30400001 59075.60143595  2972.97978301
0.30500001 58237.37293251  4009.64331623
0.30600001 57409.51343747  3436.82068464
0.30700001 56593.77413298  3399.02223535
0.30800001 55788.93259300  3102.98057773
0.30900001 54995.45004471  2557.28854815
0.31000001 54213.09477091  2781.94508988
0.31100001 53440.79444687  2501.02929853
0.31200001 52680.35581300  2968.01138703
0.31300001 51929.57579627  3668.82470371
0.31400001 51190.84802434  2902.52122040
0.31500001 50461.28745111  3826.98422149
0.31600002 49743.21805582  3074.87716971
0.31700002 49034.75004759  3508.43653202
0.31800002 48336.31411641  3238.04983598
0.31900002 47648.73765693  2744.56741899
0.32000002 46971.35156413  2487.83775339
0.32100002 46303.48418671  4249.27094502
0.32200002 45646.55602502  2653.89089296
0.32300002 44997.91645942  2842.96849652
0.32400002 44360.52397263  2162.57564607
0.32500002 43732.33058797  2138.51106701
0.32600002 43114.15174367  3383.59878906
0.32700002 42505.79679775  2300.41383163
0.32800002 41907.85884673  2274.96822522
0.32900002 41317.56810617  2863.30760535
0.33000002 40738.31708672  2831.72055479
0.33100002 40167.48695189  2400.40913391
0.33200002 39607.49409883  2374.07330871
0.33300002 39056.25505407  1956.71847087
0.33400002 38515.17968332  3483.69816733
0.33500002 37982.82300356  2105.76780704
0.33600002 37459.46831609  2651.00669827
0.33700002 36945.50906071  2247.76487770
0.33800002 36441.65381817  1853.05818441
0.33900002 35946.14287143  1833.25337326
0.34000002 35459.96794616  1813.77744634
0.34100002 34983.16022666  2153.56344554
0.34200002 34516.01328662  1775.84896770
0.34300002 34057.35968054  2108.83181129
0.34400002 33608.47961383  2087.08668286
0.34500002 33168.11831303  2065.71050637
0.34600002 32737.46097555  1874.38341693
0.34700002 32314.55636055  2530.22988287
0.34800002 31901.55160132  1837.05093597
0.34900002 31497.01507300  1818.95270661
0.35000002 31101.67591977  1637.50331473
0.35100002 30715.84558117  1946.15606820
0.35200002 30337.33840093  2088.27078773
0.35300002 29968.80943672  1909.61262775
0.35400002 29608.53231462  1734.31986247
0.35500002 29257.23052603  2187.27065772
0.35600002 28914.06563879  1703.18311712
0.35700002 28579.80176644  1841.68251306
0.35800002 28254.19877351  2130.08414643
0.35900002 27937.68995615  2262.95299363
0.36000002 27629.33101112  1944.96684865
0.36100002 27328.90984875  2225.93981262
0.36200002 27038.38928286  1472.24036619
0.36300002 26754.82925933  1606.89512143
0.36400002 26480.26240692  1739.75332254
0.36500002 26212.96910493  2302.54731524
0.36600002 25955.02882379  1428.82440443
0.36700002 25704.63770410  1986.45449587
0.36800002 25463.13600360  1691.26157347
0.36900002 25229.50093736  2380.40352620
0.37000002 25003.20634972  1947.99989898
0.37100002 24784.78776550  1521.29034511
0.37200002 24574.98177304  1649.96435440
0.37300002 24372.72931735  1640.77221537
0.37400002 24177.97151763  1632.01315475
0.37500002 23991.16448268  1894.34243729
0.37600002 23812.12354216  1346.57565010
0.37700002 23640.46290657  1340.41431030
0.37800002 23476.31800896  2268.86886146
0.37900002 23320.18203588  1329.25043902
0.38000002 23170.64820579  1589.04312923
0.38100002 23027.78392502  1319.49208141
0.38200002 22893.36632164  2104.35833198
0.38300002 22764.99974188  1442.39045198
0.38400002 22644.30947273  1569.25072080
0.38500002 22529.83888088  1434.92550630
0.38600002 22423.18059506  1692.16540377
0.38700002 22322.33062211  1948.73955563
0.38800002 22228.30161668  1426.72360686
0.38900002 22140.74504699  1295.23364661
0.39000002 22060.27877257  1552.60249357
0.39100002 21985.39448478  1551.28950834
0.39200002 21917.33095108  1550.43206493
0.39300002 21854.96875284  1679.11732883
0.39400002 21799.78999879  2066.62018980
0.39500002 21749.40054206  1937.87168011
0.39600002 21705.14934154  1938.81255679
0.39700002 21666.02890406  1681.50058291
0.39800002 21633.77197558  1812.69383972
0.39900002 21606.00261071  1296.36021806
0.40000002 21584.10940255  2077.25478732
0.40100002 21567.06999203  1560.59325856
0.40200002 21555.90817360  1563.66565300
0.40300002 21549.46787201  1567.07737790
0.40400002 21548.00888996  1439.94576230
0.40500002 21551.07554237  1837.44478780
0.40600002 21559.69000412  1842.70679196
0.40700002 21572.49363722  1452.26034047
0.40800002 21589.65336128  1456.97782612
0.40900002 21610.94991677  1860.70287600
0.41000002 21637.09447544  1333.92693761
0.41100002 21667.11583470  2945.86120847
0.41200002 21700.39722805  1882.07554077
0.41300002 21738.87711683  1349.98433292
0.41400002 21780.47603190  2169.33551557
0.41500002 21825.65296965  1498.11289082
0.41600002 21873.63120448  1778.65440567
0.41700002 21926.29846444  1787.21267252
0.41800002 21982.61080053  1381.60715428
0.41900002 22040.28311178  1943.95306257
0.42000002 22101.56936193  1535.28558848
0.42100002 22166.51165959  1543.45427999
0.42200002 22233.88203130  2257.18381077
0.42300002 22303.62955037  2269.61745059
0.42400002 22375.80385952  2282.33210182
0.42500002 22450.92668785  1721.53714000
0.42600002 22527.06714994  1875.71633512
0.42700002 22606.74027575  1596.48807393
0.42800002 22687.59170961  1897.93057440
0.42900002 22771.39349795  1468.75495022
0.43000002 22856.69454631  1625.45390969
0.43100002 22942.16943707  1635.31791497
0.43200002 23030.62539160  2692.51054212
0.43300002 23119.69630065  1806.11076059
0.43400002 23210.61780614  1817.39146034
0.43500002 23302.29474454  1981.16119307
0.43600002 23395.59580358  1840.29765312
0.43700002 23489.30404170  2160.54628814
0.43800002 23583.26960841  2174.14172823
0.43900002 23679.08464171  1719.10162646
0.44000002 23774.75074726  2201.77977105
0.44100002 23871.43290945  1582.67607690
0.44200002 23968.25499899  2070.49780621
0.44300002 24065.54846506  1602.76560373
0.44400002 24162.69250270  2096.71774129
0.44500002 24259.43690135  2109.84332730
0.44600002 24356.17557176  1959.69797938
0.44700002 24453.63431362  1971.94116450
0.44800002 24549.82514500  2645.48928300
0.44900002 24646.35184605  2162.71747699
0.45000002 24742.55383016  2175.98399972
0.45100002 24837.19356532  2189.15034460
0.45200002 24931.88075785  2032.94565334
0.45300002 25025.32032991  2045.06927428
0.45400002 25118.17518358  2228.61019878
0.45500002 25210.35674490  1896.82733138
0.45600002 25301.00606213  2254.69926209
0.45700002 25390.91862386  2442.09866898
0.45800002 25479.18544017  1929.66620077
0.45900002 25566.19603865  1940.47437130
0.46000002 25652.46104608  3015.57520119
0.46100002 25736.31385589  2140.23196169
0.46200002 25819.13454386  2331.08067277
0.46300002 25900.40254559  2343.46853339
0.46400002 25979.35893484  3261.70866886
0.46500002 26057.73593515  3096.44090793
0.46600002 26133.15173422  2379.81557547
0.46700002 26206.85931989  2023.69377260
0.46800002 26279.27397919  2957.99521930
0.46900002 26348.78772988  2043.34858530
0.47000002 26416.60077808  2239.59952012
0.47100002 26482.38685204  2062.44838579
0.47200002 26546.06040824  2071.78738276
0.47300002 26607.31471482  3405.20429860
0.47400002 26665.84980791  2849.91283330
0.47500002 26722.33722795  2289.56996221
0.47600002 26777.16058298  2490.67770968
0.47700002 26828.40487254  2115.95639259
