# SAXS profile: number of points = 501, q_min = 0, q_max = 0.5, delta_q = 0.001
#    q    intensity    error
0.00000000 1700912.83420644 280.65061764
0.00100000 1700829.86795317 510.24897250
0.00200000 1700580.91654295 1224.41829868
0.00300000 1700166.20134351 1122.10973286
0.00400000 1699585.57862248 1529.62707888
0.00500000 1698839.59582619 2446.32911482
0.00600000 1697928.11771596 2139.38951542
0.00700000 1696851.73335597 2239.84438112
0.00800000 1695610.27621256 2517.98136648
0.00900000 1694204.98479944 2795.43834442
0.01000000 1692635.19148717 3351.41782386
0.01100000 1690902.29527105 3652.34911681
0.01200000 1689006.09872529 3952.27444430
0.01300000 1686947.84547000 4959.62688443
0.01400000 1684727.55100570 4169.70087359
0.01500000 1682346.59873300 4441.39521843
0.01600000 1679804.47069090 4711.85175092
0.01700000 1677103.38840738 7697.90489811
0.01800000 1674243.31297552 5248.75302236
0.01900000 1671225.01069846 5013.67525833
0.02000000 1668049.45232559 5254.35601251
0.02100000 1664718.89985882 9339.07345163
0.02200000 1661231.83416273 6877.50010589
0.02300000 1657591.50322499 7757.52858820
0.02400000 1653797.43006803 7442.08877465
0.02500000 1649852.14651670 7077.86603181
0.02600000 1645755.61375230 7331.84159461
0.02700000 1641510.16193526 7583.77729549
0.02800000 1637115.54358753 7833.59823531
0.02900000 1632574.34106035 9550.56033371
0.03000000 1627887.97454110 12111.48708729
0.03100000 1623056.65960647 8569.73955704
0.03200000 1618082.04688990 10412.35845131
0.03300000 1612967.74297476 11516.59021576
0.03400000 1607711.98090204 11816.68360486
0.03500000 1602318.12519595 11248.27375830
0.03600000 1596787.28906541 9748.38685025
0.03700000 1591121.54289212 9976.33253531
0.03800000 1585322.04873996 10201.54785576
0.03900000 1579391.29853160 9476.34823004
0.04000000 1573328.91939446 10643.57063292
0.04100000 1567138.96619433 9872.97594480
0.04200000 1560822.27686956 12080.76498343
0.04300000 1554379.94177759 10258.90809193
0.04400000 1547815.31874480 14626.85544144
0.04500000 1541129.90451081 12760.55620227
0.04600000 1534323.70848946 11898.68091247
0.04700000 1527401.03325026 13196.74554104
0.04800000 1520362.00954724 13409.59354813
0.04900000 1513211.21804985 12483.99313001
0.05000000 1505947.52435269 17280.74864664
0.05100000 1498575.78932492 14026.67004150
0.05200000 1491094.29100483 16595.88023227
0.05300000 1483509.24878171 12016.42547531
0.05400000 1475820.34575230 13393.07026227
0.05500000 1468030.48212361 16030.89361262
0.05600000 1460140.57894604 13732.62278581
0.05700000 1452155.92674983 17687.26001343
0.05800000 1444075.14265152 16614.08529196
0.05900000 1435901.40069122 14215.42453079
0.06000000 1427638.13389656 15675.46744252
0.06100000 1419286.68641418 14519.30348052
0.06200000 1410849.78531340 13332.53109442
0.06300000 1402329.72817310 22886.02223383
0.06400000 1393726.00566014 16306.59502883
0.06500000 1385045.00534401 19196.72467205
0.06600000 1376286.84278818 16598.02010062
0.06700000 1367453.95885215 16737.63723965
0.06800000 1358548.95383727 22497.57172864
0.06900000 1349574.47493176 15587.58591526
0.07000000 1340531.73421919 17131.99636559
0.07100000 1331423.62490654 20131.12615148
0.07200000 1322252.39971168 20270.13023717
0.07300000 1313021.35758870 18946.89907777
0.07400000 1303732.21480643 20533.78334550
0.07500000 1294386.90139127 16231.61250426
0.07600000 1284986.38706807 14841.59346642
0.07700000 1275536.43532497 23878.04318889
0.07800000 1266036.75781093 25504.31168216
0.07900000 1256489.81409763 21109.02986693
0.08000000 1246899.79762951 18179.79990227
0.08100000 1237267.65598749 16740.23217093
0.08200000 1227594.94701027 16811.91358821
0.08300000 1217885.28350281 24552.56846772
0.08400000 1208140.55782124 21565.30996936
0.08500000 1198362.71839917 24734.20766891
0.08600000 1188554.32734345 17061.69817009
0.08700000 1178718.78655783 21782.72419846
0.08800000 1168855.86124613 17164.64912852
0.08900000 1158970.59325162 18775.32449255
0.09000000 1149063.02285921 18821.65319859
0.09100000 1139136.04847566 17292.08602826
0.09200000 1129191.86199796 23628.34082253
0.09300000 1119234.99655329 17359.33561229
0.09400000 1109262.60773799 18968.39148379
0.09500000 1099280.18976378 17412.59902430
0.09600000 1089289.31724224 17434.07634200
0.09700000 1079294.25920834 17452.18899187
0.09800000 1069294.70806637 25406.44345821
0.09900000 1059293.51629927 19067.28418998
0.10000000 1049291.58416953 22255.47554685
0.10100000 1039291.37823538 20671.50648532
0.10200000 1029295.90198987 17492.88467712
0.10300000 1019306.25801147 15901.17837298
0.10400000 1009325.80006808 19076.25851873
0.10500000 999356.98612986 25423.64292331
0.10600001 989396.76731782 22231.74640771
0.10700001 979453.47810379 23800.72063793
0.10800001 969524.95847787 22192.42734397
0.10900001 959615.53108721 22167.11981142
0.11000001 949725.02923127 20556.79922531
0.11100001 939856.52627167 22105.42653849
0.11200001 930010.92362656 23645.52884637
0.11300001 920190.61607477 25176.41644113
0.11400001 910397.46541515 20415.66412319
0.11500001 900633.60291417 25073.64068580
0.11600001 890899.51888349 17198.81602196
0.11700001 881198.49718314 24955.54261551
0.11800001 871529.50408181 24890.88380890
0.11900001 861895.63216258 21719.77095353
0.12000001 852297.88887001 15469.20741167
0.12100001 842740.79277409 18506.58868113
0.12200001 833222.14230412 19984.83402468
0.12300001 823746.30940842 18386.01849224
0.12400001 814311.57320544 18322.01126041
0.12500001 804920.73475105 21298.20364509
0.12600001 795577.16460791 18186.89483997
0.12700001 786279.78928257 18115.88719881
0.12800001 777030.51043576 19546.20341121
0.12900001 767831.01739203 20961.78776278
0.13000001 758682.65784306 16398.92642224
0.13100001 749585.15631367 20778.50151246
0.13200001 740542.01384470 17728.57664717
0.13300001 731553.00265901 16174.63765131
0.13400001 722618.65068198 19022.93687605
0.13500001 713742.01409528 16016.37155144
0.13600001 704922.82503432 20280.63063248
0.13700001 696162.58570109 17292.67944422
0.13800001 687460.07497728 22933.66918270
0.13900001 678820.17552222 17106.26922986
0.14000001 670240.61621473 14175.58970147
0.14100001 661724.73400925 18323.15874889
0.14200001 653271.24622057 25222.80400622
0.14300001 644883.13783251 15322.42407762
0.14400001 636556.67759224 17998.64090791
0.14500001 628298.76681634 16511.69237082
0.14600001 620106.43625180 23244.69085945
0.14700001 611982.53491719 14944.61420771
0.14800001 603924.22397338 17547.01915539
0.14900001 595935.07519817 16090.24778950
0.15000001 588014.41325221 15982.23250628
0.15100001 580163.51411459 15873.27449516
0.15200001 572383.48486997 18390.68223667
0.15300001 564674.22147788 14348.37264484
0.15400001 557033.65169759 22016.75612234
0.15500001 549466.67615271 12857.52082876
0.15600001 541969.36698431 14039.71711433
0.15700001 534547.40274746 22803.79327747
0.15800001 527194.53489988 13830.94927590
0.15900001 519916.83853595 14973.60565660
0.16000001 512709.95607777 19811.11363798
0.16100001 505578.83363642 13514.12286103
0.16200001 498520.65802593 20721.01212900
0.16300001 491535.84311092 15719.31700476
0.16400001 484625.77296404 15592.83498125
0.16500001 477788.76350633 11896.94077298
0.16600001 471026.80687411 12979.14427620
0.16700001 464337.91578074 12871.44763316
0.16800001 457723.72479719 18565.27515436
0.16900001 451185.11031256 17257.83128434
0.17000001 444719.59000203 13688.46962663
0.17100001 438328.93296021 12439.77570483
0.17200001 432011.98109613 12331.78258273
0.17300001 425769.71977771 12223.84923208
0.17400001 419602.06319728 13217.46561492
0.17500001 413507.39967384 12008.25545365
0.17600001 407485.34024212 11900.60992383
0.17700001 401540.02387337 11793.23105816
0.17800001 395666.01014584 20184.90246097
0.17900001 389865.03806832 11578.99217755
0.18000001 384138.65736239 14601.11105603
0.18100001 378485.33591355 11365.91517437
0.18200001 372902.08269954 10236.16265364
0.18300001 367392.15263820 12168.02867019
0.18400001 361953.74282055 11048.63852154
0.18500001 356587.45367537 17907.82276958
0.18600001 351292.61149248 14780.63732683
0.18700001 346067.42496549 11710.92221411
0.18800001 340911.45382516 12564.29222434
0.18900001 335829.16222460 11485.35789074
0.19000001 330812.21386067 11373.32444991
0.19100001 325867.06988364 11261.96646731
0.19200001 320988.80715977 13938.93960955
0.19300001 316180.85942334 10120.94978838
0.19400001 311438.84211294 10931.50387472
0.19500001 306764.52691701 9920.76526930
0.19600001 302155.74039042 9821.57280552
0.19700001 297615.17789573 9723.08832134
0.19800001 293138.94637857 9625.21775922
0.19900001 288728.08009390 10394.21137461
0.20000001 284380.29982256 8574.06644487
0.20100001 280098.01343121 8486.97020808
0.20200001 275877.64601853 9240.52219013
0.20300001 271720.66753082 9977.58338332
0.20400001 267625.86350944 10698.34439945
0.20500001 263592.11344193 8959.49635938
0.20600001 259618.89230127 9673.40038439
0.20700001 255706.12140424 10371.44077440
0.20800001 251852.55785718 9474.69367446
0.20900001 248060.27190823 10939.45850828
0.21000001 244323.06176627 8506.10779750
0.21100001 240645.27085134 8417.77197232
0.21200001 237023.13646106 12116.62330870
0.21300001 233457.34026974 7493.98097694
0.21400001 229947.71392538 13348.46542444
0.21500001 226493.66897334 8806.07426601
0.21600001 223092.42771615 7987.82475203
0.21700001 219745.53811454 10059.95121051
0.21800001 216451.44411954 11376.68844082
0.21900001 213208.42232988 7035.87826955
0.22000001 210016.86091404 6962.05926848
0.22100001 206877.33629397 7577.91718676
0.22200001 203787.46532378 9543.36745237
0.22300001 200746.62167798 10117.63021099
0.22400001 197753.55289814 8676.43754368
0.22500001 194811.17756846 8585.32900142
0.22600001 191913.59168978 9801.98715907
0.22700001 189063.98480862 9052.38402072
0.22800001 186259.19898314 8957.20530269
0.22900001 183499.87979688 6963.82076762
0.23000001 180785.24913176 8769.89285013
0.23100001 178115.45845179 6818.26007199
0.23200001 175487.18193028 7359.93275823
0.23300001 172902.60465128 8496.43439440
0.23400001 170358.60004063 7206.16912254
0.23500001 167855.74318285 7724.72166662
0.23600001 165393.99625938 8231.65958316
0.23700001 162971.67225990 7563.51566732
0.23800001 160588.28712484 8059.92651202
0.23900001 158243.51356130 7405.79678496
0.24000001 155936.17340780 6764.51152239
0.24100001 153666.86961093 6693.72915687
0.24200001 151434.22619385 6623.73336703
0.24300001 149236.74452958 8193.09766223
0.24400001 147074.55293768 7026.48709898
0.24500001 144946.63684255 8557.64984400
0.24600001 142852.87288336 6351.23902884
0.24700001 140793.26338549 6285.01157485
0.24800001 138766.19260261 5182.91753889
0.24900001 136769.95390197 6667.53556815
0.25000001 134806.70961291 5075.47285704
0.25100001 132873.69988351 5524.88870253
0.25200001 130973.08402808 6461.55740622
0.25300001 129100.52474469 5902.47627058
0.25400001 127258.39308267 4867.63376571
0.25500001 125443.53238737 6262.14143305
0.25600001 123658.39780006 5720.43775288
0.25700001 121900.05736287 6132.79217609
0.25800001 120168.81247436 5135.41444407
0.25900001 118465.47568778 5082.16914747
0.26000001 116787.20968416 4572.21947547
0.26100001 115134.43912664 4977.26203895
0.26200001 113507.93882685 5821.25491818
0.26300001 111904.79175842 4431.42996332
0.26400001 110326.76263170 4824.03792434
0.26500001 108772.40334864 5642.02482867
0.26600001 107241.01231636 6013.00384511
0.26700001 105732.89381018 5950.64754522
0.26800001 104247.51970659 4627.02638113
0.26900001 102782.99870104 5411.52513769
0.27000001 101340.87467437 5355.35877559
0.27100001 99919.75451800  5299.74403043
0.27200001 98519.99879700  5648.15179832
0.27300001 97140.43389939  3992.47202221
0.27400001 95779.35213244  4345.98830868
0.27500001 94440.17044940  3909.82324164
0.27600001 93117.87780353  5029.76240760
0.27700001 91816.66108473  4594.50593812
0.27800001 90532.53799470  3788.78689439
0.27900001 89267.28024104  4124.14854232
0.28000001 88019.35202282  4823.02062236
0.28100001 86789.24936830  4405.42250644
0.28200001 85576.76575140  4722.55404151
0.28300001 84381.12360622  4673.02684649
0.28400001 83201.46398879  4268.23530464
0.28500001 82038.90796253  4223.36318181
0.28600001 80892.06437384  3482.40353612
0.28700001 79761.71122757  3790.27669694
0.28800001 78645.17755958  4091.12233029
0.28900001 77546.08221621  3710.58020968
0.29000001 76460.72228409  5006.26602852
0.29100001 75390.91611192  3632.33451021
0.29200001 74335.32729724  3920.44534723
0.29300001 73294.41081119  3878.74040373
0.29400001 72266.74915646  4157.14494201
0.29500001 71254.22949066  5378.26949655
0.29600001 70254.42058430  4381.76841927
0.29700001 69268.23528999  4334.80636965
0.29800001 68296.02596825  4900.92305548
0.29900001 67337.09850228  3030.16957605
0.30000001 66389.91252126  4796.00750758
0.30100001 65457.00551642  3261.72273929
0.30200001 64535.43017178  4106.38961623
0.30300001 63627.40923918  4642.25599786
0.30400001 62731.25615864  3730.94163666
0.30500001 61847.80334909  4542.10289299
0.30600001 60975.11999555  2807.90440873
0.30700001 60115.23454371  3610.52115763
0.30800001 59266.91316402  2747.02155521
0.30900001 58430.54277976  3260.42444147
0.31000001 57605.74547832  3762.23141531
0.31100001 56791.53016103  3189.41248485
0.31200001 55989.75210371  3154.46278287
0.31300001 55198.11265351  2599.83122907
0.31400001 54419.09918020  4371.21434861
0.31500001 53649.50197835  3051.58381701
0.31600002 52892.25962251  3772.54059620
0.31700002 52145.07720396  3482.24842056
0.31800002 51408.48676418  2705.88582895
0.31900002 50683.10659751  2676.06815506
0.32000002 49968.62176944  2646.58817733
0.32100002 49263.82411026  2379.44281719
0.32200002 48570.67346131  2588.57416469
0.32300002 47886.25302134  3025.45360915
0.32400002 47213.65714775  4142.99861089
0.32500002 46550.39207651  3186.83999246
0.32600002 45897.71334245  2476.41124066
0.32700002 45255.40565020  3339.84909514
0.32800002 44623.81149166  2422.40372153
0.32900002 44000.50471436  2613.63010380
0.33000002 43388.42938310  2585.08274506
0.33100002 42785.32779748  2769.92225278
0.33200002 42193.44655448  2529.07530624
0.33300002 41610.65432668  2501.63265659
0.33400002 41038.30302965  3299.47971983
0.33500002 40475.45066627  2039.96281018
0.33600002 39921.86927310  2421.66070479
0.33700002 39377.86711237  1996.45795714
0.33800002 38844.50889221  2765.34071900
0.33900002 38319.79596969  2736.03356181
0.34000002 37804.82206331  2127.08841413
0.34100002 37299.59202331  1913.46916142
0.34200002 36804.31339646  2651.01481950
0.34300002 36317.70188706  1873.99350612
0.34400002 35841.35620995  2225.74832605
0.34500002 35373.93903588  1835.90752291
0.34600002 34916.64613400  2180.89382082
0.34700002 34467.30223334  1979.11258797
0.34800002 34028.17022487  1959.51227520
0.34900002 33597.73585205  1940.26933735
0.35000002 33176.94792879  1921.44303030
0.35100002 32765.85346265  2076.04457372
0.35200002 32362.46840887  2227.67061843
0.35300002 31969.31301268  1867.32766151
0.35400002 31584.47255464  2690.99718911
0.35500002 31209.07520448  2333.19057280
0.35600002 30842.32440319  1981.92786002
0.35700002 30484.31174044  2128.10990340
0.35800002 30135.56516847  2271.92036566
0.35900002 29796.00204021  2091.67944230
0.36000002 29465.01344960  1595.53055387
0.36100002 29142.10341028  1582.41629013
0.36200002 28829.39126810  1569.76042890
0.36300002 28523.73951128  1868.87550130
0.36400002 28227.28865447  1854.53295244
0.36500002 27938.62541888  1533.83060815
0.36600002 27659.29719488  1674.90882097
0.36700002 27387.73725744  2267.70475233
0.36800002 27125.44104964  1951.81120318
0.36900002 26871.04746800  1789.61184614
0.37000002 26624.29946951  1926.13503636
0.37100002 26385.64128595  1472.31885350
0.37200002 26155.82798737  1756.10237426
0.37300002 25933.61661405  1745.85115316
0.37400002 25719.34558961  1736.05590954
0.37500002 25512.95084745  1582.82354556
0.37600002 25314.66250848  1431.54423267
0.37700002 25123.97166219  1851.88803895
0.37800002 24940.65319448  2268.60192204
0.37900002 24765.90273112  1411.65652255
0.38000002 24597.74130310  1686.91317848
0.38100002 24436.47812098  1680.25231520
0.38200002 24283.75075711  1674.12185650
0.38300002 24137.49015138  1529.35144844
0.38400002 23998.76917667  2217.48637698
0.38500002 23866.48098066  1381.86931425
0.38600002 23742.21696677  1653.88291226
0.38700002 23623.89056025  1924.87469404
0.38800002 23512.34043542  1646.33415528
0.38900002 23407.68926150  1643.21986401
0.39000002 23310.17225727  1913.99833472
0.39100002 23218.26715753  1638.28100825
0.39200002 23133.63799688  1772.84643188
0.39300002 23054.45227309  1771.27365206
0.39400002 22982.87551198  1770.25607018
0.39500002 22915.91259414  1769.56685436
0.39600002 22855.31300984  1497.13734964
0.39700002 22800.07227069  1769.51369276
0.39800002 22751.83971057  1361.69767119
0.39900002 22708.04123975  2043.72380841
0.40000002 22670.31662967  1636.34353186
0.40100002 22637.59899623  2047.57092622
0.40200002 22610.71211021  1366.81761182
0.40300002 22588.83018439  2190.21307845
0.40400002 22572.07238599  1645.50415490
0.40500002 22559.72838366  1511.27627603
0.40600002 22553.18652812  1927.62094389
0.40700002 22550.82874877  1794.14402026
0.40800002 22552.92271117  1937.07062344
0.40900002 22559.35696004  1803.62067441
0.41000002 22570.75041170  1808.93287746
0.41100002 22586.09042200  2093.73068133
0.41200002 22604.64852346  1960.50125933
0.41300002 22628.68650441  1545.76564836
0.41400002 22655.81434468  1551.35696076
0.41500002 22686.58390790  2265.02864469
0.41600002 22720.10497961  1705.37116058
0.41700002 22758.49862979  1855.04531121
0.41800002 22800.82746637  2292.85131866
0.41900002 22844.40082370  1727.03678411
0.42000002 22891.81698011  1879.30380403
0.42100002 22942.87719339  1452.28419516
0.42200002 22996.38477473  1750.94481972
0.42300002 23052.35044565  1759.35546938
0.42400002 23110.79925665  1767.97622691
0.42500002 23172.44905571  1776.86347779
0.42600002 23235.16032289  2232.31813380
0.42700002 23301.25066411  1495.94036352
0.42800002 23368.78701722  1654.15966740
0.42900002 23439.13308446  2418.91864894
0.43000002 23511.34347029  2128.01179834
0.43100002 23583.59394388  2139.50374397
0.43200002 23658.93817948  1997.64253985
0.43300002 23735.00362263  2163.20833268
0.43400002 23813.00484582  2175.31809575
0.43500002 23891.74965824  2031.27665220
0.43600002 23972.25952114  1885.65802329
0.43700002 24053.20401286  1738.32513639
0.43800002 24134.50087504  1748.18265373
0.43900002 24217.73410201  1758.20757913
0.44000002 24300.83542404  2250.50047527
0.44100002 24384.93961633  1940.06588781
0.44200002 24469.33590523  1788.58619275
0.44300002 24554.16001832  2125.89927513
0.44400002 24639.09529454  2138.05759551
0.44500002 24723.63237702  2315.61551817
0.44600002 24808.10218759  2827.75166186
0.44700002 24893.59781598  1840.13483776
0.44800002 24977.59469007  1850.46519031
0.44900002 25062.19433379  1691.69819770
0.45000002 25146.53702923  2211.51230384
0.45100002 25229.42993838  2565.83314633
0.45200002 25312.27634005  2579.95388823
0.45300002 25393.89208268  2075.18895935
0.45400002 25475.20483976  3129.62906289
0.45500002 25555.81371618  2272.42306334
0.45600002 25634.90988235  1933.00047129
0.45700002 25713.46101772  2826.42376902
0.45800002 25790.39647094  1953.23576930
0.45900002 25865.94708837  2855.60069389
0.46000002 25940.91656151  1793.81446525
0.46100002 26013.50098588  2343.55641489
0.46200002 26085.29786120  2355.11122902
0.46300002 26155.60731710  1820.43035555
0.46400002 26223.59406517  2194.91492728
0.46500002 26291.08105253  2572.84531374
0.46600002 26355.70134209  2215.46035982
0.46700002 26418.52555870  1854.58058212
0.46800002 26480.31103477  2421.75696047
0.46900002 26539.08136000  3554.91011666
0.47000002 26596.40209486  2818.55384559
0.47100002 26651.68453714  2075.63329013
0.47200002 26704.97071759  2463.13309088
0.47300002 26756.00367485  2092.58714659
0.47400002 26804.17704618  2864.69655759
0.47500002 26850.50517785  2492.26400874
0.47600002 26895.25416035  2694.09773694
0.47700002 26936.44376472  3476.41759705
