# SAXS profile: number of points = 501, q_min = 0, q_max = 0.5, delta_q = 0.001
#    q    intensity    error
0.00000000 1682732.95097188 328.13292544
0.00100000 1682650.43492263 706.71319945
0.00200000 1682402.82496195 1059.91381329
0.00300000 1681990.35294659 1311.95252203
0.00400000 1681412.86851440 1639.37760909
0.00500000 1680670.91915142 1966.38505324
0.00600000 1679764.36560895 2645.62898354
0.00700000 1678693.80232536 2215.87591116
0.00800000 1677459.06657993 2717.48380259
0.00900000 1676061.38537230 3519.72905974
0.01000000 1674500.10016052 3039.21781302
0.01100000 1672776.59348610 3914.29739918
0.01200000 1670890.66919073 4887.35542166
0.01300000 1668843.55152157 4906.40025787
0.01400000 1666635.35132735 5249.90158941
0.01500000 1664267.33476377 3994.24178129
0.01600000 1661739.04655175 4661.17823395
0.01700000 1659052.65341347 6719.16354774
0.01800000 1656208.14933657 5192.21278181
0.01900000 1653206.30705417 4959.61914495
0.02000000 1650048.11586817 5197.65180010
0.02100000 1646735.74251216 5977.65101634
0.02200000 1643267.75640900 7370.05622233
0.02300000 1639647.38777087 11215.18864285
0.02400000 1635874.12897884 10428.69804776
0.02500000 1631950.48570326 8910.45005889
0.02600000 1627876.49275724 6592.90009721
0.02700000 1623654.47666769 10229.02367151
0.02800000 1619284.09791895 9157.05199367
0.02900000 1614767.98908199 9446.39316985
0.03000000 1610107.48701489 8235.70017464
0.03100000 1605303.03445349 12328.72787189
0.03200000 1600355.97233124 11090.46739906
0.03300000 1595270.08554072 10576.64115472
0.03400000 1590043.74538740 11686.82206783
0.03500000 1584679.93579855 11124.45366301
0.03600000 1579180.06234015 14899.56457674
0.03700000 1573546.02126946 12556.89783046
0.03800000 1567779.14432496 11005.81010251
0.03900000 1561881.72521354 10308.41986379
0.04000000 1555853.63189384 10525.35030750
0.04100000 1549698.65952893 11715.72240926
0.04200000 1543417.69190942 10950.54903212
0.04300000 1537011.96280404 15216.41913808
0.04400000 1530484.66322306 11363.84915219
0.04500000 1523837.43342025 11565.92665707
0.04600000 1517070.20488373 14973.48361827
0.04700000 1510187.15867096 19572.02648663
0.04800000 1503188.75213892 12153.28162651
0.04900000 1496079.12934667 13464.71279087
0.05000000 1488857.37935902 21640.54301670
0.05100000 1481528.36696257 12711.51398069
0.05200000 1474090.40363822 14062.82310605
0.05300000 1466549.56711731 19006.48327588
0.05400000 1458905.62170814 21664.74949268
0.05500000 1451161.47168447 14627.70831695
0.05600000 1443317.91012631 20978.62680264
0.05700000 1435380.40867512 18731.71520758
0.05800000 1427347.53769667 13895.22892828
0.05900000 1419222.30099023 14050.30143603
0.06000000 1411008.29471441 16783.94444975
0.06100000 1402706.74855995 15654.20804547
0.06200000 1394320.36577461 18446.85930147
0.06300000 1385851.76818558 15965.01311595
0.06400000 1377299.99892542 17457.27830280
0.06500000 1368671.55597904 16259.81884563
0.06600000 1359966.76310410 15034.43326955
0.06700000 1351187.61811803 15160.32578477
0.06800000 1342337.24523502 16671.82936621
0.06900000 1333418.02488175 14000.88991676
0.07000000 1324431.11673077 21157.78808056
0.07100000 1315379.51079431 21309.14907294
0.07200000 1306265.37391655 20025.04912025
0.07300000 1297091.97235028 15837.49372447
0.07400000 1287861.11384355 14488.43820973
0.07500000 1278574.69069582 17490.90258856
0.07600000 1269233.74760159 16125.61551926
0.07700000 1259843.71408745 22110.25821895
0.07800000 1250404.68418510 17780.75544296
0.07900000 1240918.87952998 16380.12997808
0.08000000 1231390.69549362 19449.81694773
0.08100000 1221820.84545458 15028.39710420
0.08200000 1212210.86318408 22638.03893226
0.08300000 1202564.57517032 24243.70297324
0.08400000 1192883.72299512 21292.97545493
0.08500000 1183170.38541508 21368.05816372
0.08600000 1173426.79291860 19907.18647654
0.08700000 1163656.62825641 16896.29503569
0.08800000 1153859.51668222 18484.83032537
0.08900000 1144040.74135378 16989.00580707
0.09000000 1134199.82786851 17030.01121544
0.09100000 1124340.27812589 17067.48622380
0.09200000 1114463.78782098 20210.80174177
0.09300000 1104575.31335399 21804.31771024
0.09400000 1094671.50817682 15599.06972464
0.09500000 1084758.22815683 18744.62306360
0.09600000 1074836.82421820 17202.76418028
0.09700000 1064911.69625141 20350.46347210
0.09800000 1054982.37674016 18799.78683743
0.09900000 1045051.96526498 21946.09230252
0.10000000 1035121.23112822 20386.71360580
0.10100000 1025192.53685988 21959.62517234
0.10200000 1015268.99304215 25097.45068849
0.10300000 1005351.57975206 18820.18245827
0.10400000 995443.75946661 26653.00791361
0.10500000 985547.73757641 18804.25171769
0.10600001 975660.98691184 17225.29553444
0.10700001 965791.31223930 18774.98399344
0.10800001 955936.69481588 20318.43540453
0.10900001 946101.58693462 17171.74461106
0.11000001 936285.60971108 17148.07174901
0.11100001 926491.75806434 20234.58094863
0.11200001 916721.42263545 21753.80038325
0.11300001 906976.45732356 27916.73667076
0.11400001 897259.05033319 18573.26321641
0.11500001 887571.05601202 16988.11081201
0.11600001 877913.31334098 16948.11731216
0.11700001 868288.56815234 16905.57921809
0.11800001 858696.37094181 18393.27713187
0.11900001 849139.32155649 16812.95935874
0.12000001 839618.83053779 22858.62373814
0.12100001 830138.99773547 16710.69881162
0.12200001 820697.91613921 22712.81589918
0.12300001 811299.65573833 22635.26146155
0.12400001 801942.86137737 15036.42935930
0.12500001 792630.11336009 16478.78083324
0.12600001 783364.74538953 17907.71892348
0.12700001 774145.77370075 14863.59955552
0.12800001 764974.97349809 17762.71972177
0.12900001 755854.22763434 16213.07394691
0.13000001 746784.68278737 23478.91153351
0.13100001 737766.31894627 17529.32856445
0.13200001 728801.87537955 15993.55790915
0.13300001 719892.18090652 14469.83351837
0.13400001 711037.05030729 15838.35104230
0.13500001 702239.67292973 20055.96600448
0.13600001 693499.87401831 15676.56539135
0.13700001 684819.05803840 18428.48172078
0.13800001 676196.27386124 23967.77805723
0.13900001 667635.72907728 15422.38606898
0.14000001 659135.95273411 16728.87126934
0.14100001 650699.55486875 15245.89128962
0.14200001 642325.87760890 24800.20330419
0.14300001 634017.36079909 15064.25320313
0.14400001 625770.90523913 13610.51783096
0.14500001 617592.55865274 14877.80543976
0.14600001 609480.10341714 21502.45906292
0.14700001 601435.90023188 16022.25313805
0.14800001 593457.01580303 19895.64739345
0.14900001 585547.68496767 14492.30588671
0.15000001 577706.55818397 14393.55957628
0.15100001 569935.15310619 14293.97431436
0.15200001 562234.81279208 15483.94747494
0.15300001 554604.77679496 16654.78223308
0.15400001 547043.84298871 15262.52393964
0.15500001 539555.98316140 18938.41590273
0.15600001 532137.94622707 20050.95876014
0.15700001 524795.21519400 13681.41190583
0.15800001 517521.39783449 13577.17451301
0.15900001 510322.62305267 17146.84094391
0.16000001 503194.54344647 15797.79343720
0.16100001 496142.19853501 16878.75839091
0.16200001 489162.61114809 16744.03697002
0.16300001 482256.26870829 11863.50477027
0.16400001 475424.40284650 15296.78088374
0.16500001 468665.49082224 14003.72552690
0.16600001 461981.43700156 12729.89909760
0.16700001 455370.47509118 13770.40381692
0.16800001 448834.10486121 13653.53411455
0.16900001 442372.86690094 12408.55950248
0.17000001 435984.54282009 14537.90526681
0.17100001 429670.89074722 16628.26425713
0.17200001 423431.00793614 17580.85627973
0.17300001 417265.26024663 16335.93571011
0.17400001 411174.20101567 10793.32328639
0.17500001 405155.83001683 16044.17162639
0.17600001 399209.74650161 11658.92119722
0.17700001 393340.22753909 11552.40302845
0.17800001 387541.81315856 12486.59780974
0.17900001 381816.25895403 10309.03947869
0.18000001 376164.83045561 13276.73831806
0.18100001 370586.27781793 10117.00586232
0.18200001 365077.67562244 13027.79746999
0.18300001 359641.96064661 9926.11858275
0.18400001 354277.72426139 9831.20731269
0.18500001 348985.10172493 11684.02175773
0.18600001 343763.71241804 14463.85888331
0.18700001 338611.84528760 10503.73993707
0.18800001 333528.82274874 11346.65108600
0.18900001 328519.04185840 12171.63107593
0.19000001 323574.40533492 10197.44786595
0.19100001 318701.31172210 12850.03749580
0.19200001 313894.68933346 11813.42719127
0.19300001 309157.96363080 10795.79660012
0.19400001 304487.04558552 9796.87115465
0.19500001 299883.39320092 11461.54382976
0.19600001 295345.00210035 13963.91235919
0.19700001 290874.41463120 12094.55873192
0.19800001 286467.79426038 9406.17046906
0.19900001 282126.36968575 10156.54978869
0.20000001 277847.42549864 9214.81030216
0.20100001 273633.81183090 12436.65733550
0.20200001 269481.73674106 10667.43505307
0.20300001 265392.58009565 9745.21600172
0.20400001 261365.35004659 12055.47734071
0.20500001 257398.72105197 9544.34502774
0.20600001 253492.31469124 8658.03041753
0.20700001 249645.98883394 7788.95521980
0.20800001 245858.39043685 10019.95917590
0.20900001 242131.62101578 9152.57570705
0.21000001 238459.72790480 8301.97581946
0.21100001 234846.77204540 8961.75324490
0.21200001 231289.04215699 9606.59082014
0.21300001 227787.28015006 10236.76085389
0.21400001 224341.12225322 13746.50291595
0.21500001 220950.47044350 12169.95248739
0.21600001 217612.03760237 7791.59937473
0.21700001 214327.52151329 10512.76542727
0.21800001 211095.29192741 8321.37680122
0.21900001 207914.04450337 7547.28017232
0.22000001 204783.49098074 8825.14496109
0.22100001 201704.70946466 8731.79728559
0.22200001 198675.11296581 8639.38769583
0.22300001 195694.06150425 7232.85285521
0.22400001 192760.50190927 7806.80069648
0.22500001 189876.99707129 10298.92880816
0.22600001 187038.08022191 8916.10570581
0.22700001 184246.52916036 7561.47791432
0.22800001 181499.52208322 6234.50887839
0.22900001 178797.24924926 6785.35592990
0.23000001 176139.40200936 7934.19973873
0.23100001 173526.00479364 6642.57577765
0.23200001 170953.56513770 6572.31012255
0.23300001 168424.39418224 5911.69651539
0.23400001 165935.55433405 6434.15142361
0.23500001 163487.15126920 6944.93451438
0.23600001 161079.39088564 6299.00987851
0.23700001 158710.90946747 6232.57770958
0.23800001 156380.69775262 7288.12276348
0.23900001 154088.66221353 7766.06894289
0.24000001 151833.56417523 6037.66196501
0.24100001 149616.03707071 7060.38112333
0.24200001 147434.73197985 6448.79548184
0.24300001 145288.15921914 5849.30156685
0.24400001 143176.51238731 7366.43191079
0.24500001 141098.53781710 6768.49717927
0.24600001 139054.36111957 6182.35718783
0.24700001 137043.70076736 6117.63109166
0.24800001 135065.21967289 7567.02929015
0.24900001 133117.22525261 4991.89618313
0.25000001 131201.61755482 6421.66347502
0.25100001 129315.84372772 4888.13912416
0.25200001 127461.92016296 5320.89810893
0.25300001 125635.75707568 4786.72257105
0.25400001 123839.34467013 5684.22618929
0.25500001 122069.98379765 7968.72891933
0.25600001 120329.76101644 7885.81126131
0.25700001 118615.82491280 5508.51916958
0.25800001 116928.72109322 6814.02154411
0.25900001 115268.73825861 5394.57720575
0.26000001 113633.61627742 4448.75628776
0.26100001 112023.41515363 4402.52042385
0.26200001 110439.21879019 5663.87560365
0.26300001 108877.76101243 5605.02740214
0.26400001 107341.02335252 5973.52823222
0.26500001 105827.47158204 5067.01957911
0.26600001 104336.46196091 4596.54304919
0.26700001 102868.24894982 4135.30380347
0.26800001 101422.29731843 4910.86786854
0.26900001 99996.84136878  5669.82117391
0.27000001 98593.31800533  5610.94599321
0.27100001 97210.24066292  4759.41360809
0.27200001 95848.22804217  3924.98512407
0.27300001 94505.83220863  5437.86584263
0.27400001 93181.65214123  4996.86633255
0.27500001 91878.77675356  5325.29415266
0.27600001 90592.31839070  5646.16651091
0.27700001 89326.53794831  4097.40848961
0.27800001 88077.48705261  4054.64730836
0.27900001 86846.93556303  6930.38578593
0.28000001 85633.18651052  3970.38288047
0.28100001 84436.91990025  5000.35463315
0.28200001 83257.72460478  3887.71963442
0.28300001 82095.01028945  4196.69712463
0.28400001 80947.88268495  4152.62657828
0.28500001 79817.37796461  4108.99881210
0.28600001 78702.18721265  3388.12931987
0.28700001 77602.97786089  3687.69368250
0.28800001 76517.33746457  4643.83743053
0.28900001 75448.57582839  3938.41584466
0.29000001 74393.34210284  3571.99649015
0.29100001 73353.17534503  5140.59077151
0.29200001 72326.74924223  4450.26509153
0.29300001 71314.59994125  3773.96880754
0.29400001 70315.34355267  3422.59950944
0.29500001 69330.94388780  4001.78227064
0.29600001 68358.66816796  3349.91669215
0.29700001 67399.76292107  4519.15431779
0.29800001 66454.34192552  4470.71606468
0.29900001 65521.93321349  4127.88198786
0.30000001 64600.90159082  3791.75009837
0.30100001 63693.59237528  3173.85185831
0.30200001 62797.39269990  3139.55579666
0.30300001 61914.30538800  4234.93868903
0.30400001 61042.70401405  3630.51499311
0.30500001 60183.48102963  2762.42191004
0.30600001 59334.72309364  3278.83695338
0.30700001 58498.39561489  2972.88860589
0.30800001 57673.15305610  2940.46584778
0.30900001 56859.54884645  3172.76297584
0.31000001 56057.15222030  3138.07952986
0.31100001 55265.05307399  3620.96644884
0.31200001 54485.07674035  3069.68936889
0.31300001 53714.88832710  2782.96849599
0.31400001 52956.95866908  2502.21641559
0.31500001 52208.19057491  2722.13518546
0.31600002 51471.38767687  4160.68981986
0.31700002 50744.21572661  3630.74880715
0.31800002 50027.41447575  4308.86141281
0.31900002 49321.46380481  3314.40252462
0.32000002 48626.04758099  2809.61316226
0.32100002 47940.14472769  2547.06000999
0.32200002 47265.51012136  3435.02111072
0.32300002 46599.24800061  3397.08534010
0.32400002 45944.36975728  3359.68219759
0.32500002 45298.84447449  2658.13631963
0.32600002 44663.50736953  2847.96868228
0.32700002 44038.19286507  2600.01502987
0.32800002 43423.30178778  2357.23404917
0.32900002 42816.38893668  2755.23475855
0.33000002 42220.51554270  3353.99791354
0.33100002 41633.30570736  2280.67259465
0.33200002 41057.01041111  3076.19665073
0.33300002 40489.57072142  2231.38034813
0.33400002 39932.28853737  2207.25735343
0.33500002 39384.26623464  2183.46382345
0.33600002 38845.20461135  2945.43777914
0.33700002 38315.43540214  2913.88900033
0.33800002 37796.12954601  3459.47990118
0.33900002 37285.18989909  2472.00820738
0.34000002 36783.73276012  1881.48801978
0.34100002 36291.69120854  2606.46938604
0.34200002 35809.56652629  2210.88274204
0.34300002 35335.77554894  2734.98915702
0.34400002 34872.07073994  2526.48164476
0.34500002 34416.92646272  2500.73399522
0.34600002 33971.71012443  2298.69587444
0.34700002 33534.26435880  2450.68415541
0.34800002 33106.82077962  2079.77057988
0.34900002 32687.92289202  3260.62046291
0.35000002 32278.38331522  2039.34835444
0.35100002 31878.31621808  1851.49269364
0.35200002 31485.76469251  2500.75697915
0.35300002 31103.29919391  2642.53642467
0.35400002 30728.95238690  2127.21182974
0.35500002 30363.85792605  2432.14513507
0.35600002 30007.12678833  1767.56988719
0.35700002 29659.02803469  1751.95886899
0.35800002 29319.93168996  1894.65407555
0.35900002 28989.88424206  1878.54458786
0.36000002 28668.18197965  1707.62034050
0.36100002 28354.44836851  2001.54060514
0.36200002 28050.69741501  1832.83265591
0.36300002 27753.86285283  2121.50537696
0.36400002 27466.15346713  2406.03515769
0.36500002 27185.90935158  1791.00779292
0.36600002 26914.95709161  2074.33584131
0.36700002 26651.52247974  1471.16411057
0.36800002 26397.30305611  2045.52711071
0.36900002 26150.82578130  1886.78216950
0.37000002 25911.81128241  1730.39083941
0.37100002 25680.75921433  2006.18100486
0.37200002 25458.41698529  1424.39849780
0.37300002 25243.54882845  1841.01210327
0.37400002 25036.44097391  1689.95984579
0.37500002 24837.17297241  1821.06160860
0.37600002 24645.77902930  1951.20641818
0.37700002 24461.82447201  1386.98551327
0.37800002 24285.33836585  1932.87017210
0.37900002 24117.11564341  1374.67565680
0.38000002 23955.47390552  1916.67755798
0.38100002 23800.56195801  1636.52671776
0.38200002 23654.05776483  1902.49595615
0.38300002 23513.85865939  3385.99580736
0.38400002 23381.16340333  1485.28847556
0.38500002 23254.83582469  1615.74606964
0.38600002 23136.41085304  1745.98932774
0.38700002 23023.81285205  1473.98456862
0.38800002 22917.98078381  1604.71709051
0.38900002 22818.82875768  1601.88185468
0.39000002 22726.81201591  1599.51310546
0.39100002 22640.29849689  1331.24961469
0.39200002 22560.88021793  1728.95313741
0.39300002 22486.98615075  1328.98094447
0.39400002 22420.52480494  2125.46585221
0.39500002 22358.66585067  1726.53625879
0.39600002 22303.07923165  1460.96327429
0.39700002 22252.72358936  1594.18519347
0.39800002 22209.31773064  1595.07327499
0.39900002 22170.37481877  1463.24480737
0.40000002 22137.35572936  1331.56201021
0.40100002 22109.32540389  1733.15010053
0.40200002 22087.11317961  2002.74908245
0.40300002 22069.74428022  1471.16922342
0.40400002 22057.43443882  1741.98596734
0.40500002 22049.53062690  1611.37977456
0.40600002 22047.41432903  1884.39259199
0.40700002 22049.38301056  1619.30676502
0.40800002 22055.83496899  1488.43809341
0.40900002 22066.48742886  1357.08904118
0.41000002 22082.06381431  1769.76708825
0.41100002 22101.55212835  1502.46358488
0.41200002 22124.26114911  2055.89706469
0.41300002 22152.41607763  1513.23161396
0.41400002 22183.59429279  1657.11457219
0.41500002 22218.37896341  1940.99767821
0.41600002 22255.97235342  1531.32225034
0.41700002 22298.35606773  1677.72839003
0.41800002 22344.54301587  1544.79005460
0.41900002 22392.06785058  1410.70034143
0.42000002 22443.38306524  1842.48962005
0.42100002 22498.19824727  1851.37682149
0.42200002 22555.62600018  1431.15453753
0.42300002 22615.41906415  1438.34072064
0.42400002 22677.66759217  2168.55206626
0.42500002 22743.05548442  1598.60944575
0.42600002 22809.50281930  2775.80257713
0.42700002 22879.40276206  1909.51504501
0.42800002 22950.68587758  1624.56437683
0.42900002 23024.71453509  1930.62240525
0.43000002 23100.56131427  2240.17703961
0.43100002 23176.53201728  1501.83934589
0.43200002 23255.60348917  1812.54182184
0.43300002 23335.28449794  1671.03980208
0.43400002 23417.01634313  2291.94058319
0.43500002 23499.34072046  1997.91404273
0.43600002 23583.56996160  1700.49339267
0.43700002 23668.13908562  1710.49649278
0.43800002 23753.07494399  1720.55406510
0.43900002 23839.97559476  1573.43846382
0.44000002 23926.70659648  2057.57723127
0.44100002 24014.47552678  2069.80774374
0.44200002 24102.53065001  1921.93588511
0.44300002 24190.99899956  1933.34473167
0.44400002 24279.60525329  2268.92921845
0.44500002 24367.73636537  1956.24196812
0.44600002 24455.90029448  2459.65228868
0.44700002 24545.01799682  1979.31034507
0.44800002 24632.74528947  1824.91702126
0.44900002 24720.91687884  3170.45773996
0.45000002 24808.93166420  2013.98916795
0.45100002 24895.45567678  1687.91197488
0.45200002 24981.94471772  2037.02786882
0.45300002 25067.30499898  2389.91697187
0.45400002 25152.28389247  2403.30083982
0.45500002 25236.58732556  1726.18265488
0.45600002 25319.36791423  1909.20702806
0.45700002 25401.59411136  2094.10751779
0.45800002 25482.23167840  1929.89690763
0.45900002 25561.60517650  1940.12592485
0.46000002 25640.26498623  1773.02440783
0.46100002 25716.61654739  2495.02625568
0.46200002 25792.17162099  1970.39304437
0.46300002 25866.16365404  1980.31358321
0.46400002 25937.91929800  2894.67193085
0.46500002 26009.21637050  2545.26203465
0.46600002 26077.57959464  2192.08144462
0.46700002 26144.23740582  3120.05343989
0.46800002 26209.79290834  2212.63082219
0.46900002 26272.44845924  2037.42847458
0.47000002 26333.53619798  2418.60374674
0.47100002 26392.58085888  2055.45429471
0.47200002 26449.77156199  1876.61138127
0.47300002 26504.61200667  2826.71700449
0.47400002 26556.62237245  2459.80726384
0.47500002 26606.85385484  1899.72945528
0.47600002 26655.50058098  2479.36150406
0.47700002 26700.53033986  2297.31373933
