# SAXS profile: number of points = 501, q_min = 0, q_max = 0.5, delta_q = 0.001
#    q    intensity    error
0.00000000 1700912.83420644 331.67800267
0.00100000 1700829.84916065 510.24896687
0.00200000 1700580.82862218 1224.41823538
0.00300000 1700166.00805017 1224.11956940
0.00400000 1699585.22592997 1402.15786467
0.00500000 1698839.04683144 1681.85072293
0.00600000 1697927.31849932 1782.82375701
0.00700000 1696850.66112971 2443.46505358
0.00800000 1695608.85562443 3433.60807761
0.00900000 1694203.21833522 2795.43542975
0.01000000 1692632.98102310 3909.98235499
0.01100000 1690899.63328913 3347.98141968
0.01200000 1689002.95763515 4281.62268533
0.01300000 1686944.12309753 4605.35765917
0.01400000 1684723.28486568 4169.69031489
0.01500000 1682341.65946443 4441.38217876
0.01600000 1679798.83890637 4711.83595377
0.01700000 1677097.06753220 6792.24342820
0.01800000 1674236.17793315 5248.73065400
0.01900000 1671217.13688805 7019.11229165
0.02000000 1668040.72905980 5254.32853422
0.02100000 1664709.26102432 6042.89489149
0.02200000 1661221.26816768 6304.33499912
0.02300000 1657579.92713064 6564.01681022
0.02400000 1653784.84582694 8062.20149102
0.02500000 1649838.55452071 7721.24478779
0.02600000 1645740.96387009 7331.77632938
0.02700000 1641494.36825959 10341.41499368
0.02800000 1637098.51988074 9969.93044329
0.02900000 1632556.08983512 8815.80328988
0.03000000 1627868.39359083 9083.50605376
0.03100000 1623035.96681685 8569.63029911
0.03200000 1618060.02443631 8810.33723884
0.03300000 1612944.16720882 9048.61719519
0.03400000 1607687.14066475 9284.39366572
0.03500000 1602291.69323842 12113.32576025
0.03600000 1596759.54404990 8862.01587902
0.03700000 1591092.17719169 9976.14841236
0.03800000 1585291.14397502 9273.95362145
0.03900000 1579358.79842190 13266.61452112
0.04000000 1573294.81402322 12578.49262099
0.04100000 1567103.13223011 11847.30022898
0.04200000 1560784.76738224 15100.59332498
0.04300000 1554340.65986057 12310.37859752
0.04400000 1547774.21732134 14626.46703297
0.04500000 1541087.04726248 10633.50112020
0.04600000 1534279.00357994 16225.00121711
0.04700000 1527354.36129648 12096.64710406
0.04800000 1520313.54131458 11174.30504858
0.04900000 1513160.72128802 17023.05890687
0.05000000 1505895.15448316 11520.09846824
0.05100000 1498521.35207279 12857.31379973
0.05200000 1491037.86248637 16595.25218283
0.05300000 1483450.65640974 15620.73614020
0.05400000 1475759.67964402 17045.02509476
0.05500000 1467967.63480078 14797.11444907
0.05600000 1460075.69935034 16228.74215558
0.05700000 1452088.89147522 18949.76091830
0.05800000 1444005.75455161 12779.45152449
0.05900000 1435829.93594941 15506.96403252
0.06000000 1427564.47641162 19593.32335413
0.06100000 1419210.73118898 17158.25854190
0.06200000 1410771.37660410 14664.96914529
0.06300000 1402248.98503847 13461.59088577
0.06400000 1393642.93600370 14946.82118765
0.06500000 1384959.50740648 13711.09976470
0.06600000 1376199.02866679 17980.04115079
0.06700000 1367363.57861926 15341.82007009
0.06800000 1358456.14724760 23902.03702965
0.06900000 1349479.21737961 15586.48569048
0.07000000 1340433.94496738 17130.74661889
0.07100000 1331323.31467025 17253.95096626
0.07200000 1322149.51705327 17373.04546795
0.07300000 1312916.11593969 16030.70652675
0.07400000 1303624.31133408 14665.77418981
0.07500000 1294276.38067346 16230.22657440
0.07600000 1284873.35686510 23744.46074802
0.07700000 1275420.69271461 22383.63420668
0.07800000 1265918.35724478 19501.47320790
0.07900000 1256368.85399367 16584.06965057
0.08000000 1246776.06080246 22722.49477406
0.08100000 1237141.47541392 19781.89312000
0.08200000 1227465.97244913 19866.53769633
0.08300000 1217753.64138125 16878.06626167
0.08400000 1208006.12384459 24643.32608315
0.08500000 1198225.56268719 17002.82153273
0.08600000 1188414.50955727 17059.69108567
0.08700000 1178576.41702631 20224.37226586
0.08800000 1168710.65267317 24963.66071349
0.08900000 1158822.68534866 18772.92838441
0.09000000 1148912.04844506 20387.44525737
0.09100000 1138982.67345278 17289.75779531
0.09200000 1129035.75733896 17325.05451041
0.09300000 1119076.09380402 18934.76839695
0.09400000 1109100.80464780 25287.49953442
0.09500000 1099115.75277708 23740.90137587
0.09600000 1089122.11410288 20600.74575665
0.09700000 1079124.31288783 15863.12814522
0.09800000 1069122.14603493 19051.75753811
0.09900000 1059117.85064341 23830.15276003
0.10000000 1049113.50061610 22251.69839450
0.10100000 1039110.39876752 20667.90680353
0.10200000 1029112.34967577 17489.76520539
0.10300000 1019119.82014380 27027.05890159
0.10400000 1009136.42173664 15893.89939008
0.10500000 999165.13166217 23830.08951133
0.10600001 989202.25418224 17464.36661935
0.10700001 979256.42493194 15863.95483042
0.10800001 969325.19249980 17433.31440755
0.10900001 959413.05511357 17413.34776988
0.11000001 949519.83872522 17390.45666481
0.11100001 939648.71038525 18943.31889309
0.11200001 929800.45244992 17336.13025206
0.11300001 919977.38238645 18877.93677536
0.11400001 910181.73726994 20410.82641931
0.11500001 900415.25023085 17233.94870093
0.11600001 890678.77734051 25010.26124549
0.11700001 880975.18124217 18711.91373082
0.11800001 871303.73069632 17108.04955798
0.11900001 861667.17484837 18612.01185338
0.12000001 852067.09393476 15465.01848339
0.12100001 842507.76399702 15417.89280745
0.12200001 832986.27095002 16905.45716537
0.12300001 823508.19865584 21444.15450333
0.12400001 814071.03574896 16790.21590343
0.12500001 804678.03833696 18250.09876944
0.12600001 795331.91169663 18181.28835815
0.12700001 786032.34915974 16601.00399660
0.12800001 776780.73110933 18036.84942642
0.12900001 767579.18761293 17961.35383670
0.13000001 758428.71856591 19374.06252896
0.13100001 749329.08497495 17804.05989825
0.13200001 740283.63300672 23629.85467949
0.13300001 731292.61267778 22048.47331167
0.13400001 722355.90095646 16090.47845240
0.13500001 713477.33527183 16010.43215836
0.13600001 704656.45903125 14480.69091587
0.13700001 695893.92840656 17286.00599671
0.13800001 687189.68579004 15760.69618680
0.13900001 678547.72188775 15674.45311479
0.14000001 669966.41322020 15586.76933865
0.14100001 661448.60230781 22542.16942981
0.14200001 652993.45949356 21010.06555015
0.14300001 644603.54644878 15315.78098603
0.14400001 636275.55106090 13838.99388836
0.14500001 628016.07900268 13753.55277894
0.14600001 619822.10072771 15033.78576236
0.14700001 611696.76310241 16295.60253782
0.14800001 603636.98448361 14840.41596368
0.14900001 595646.29875716 14742.24658979
0.15000001 587724.12642776 17305.53771919
0.15100001 579871.96800763 17187.40594273
0.15200001 572090.71020515 13129.48241875
0.15300001 564380.16617015 15644.61894449
0.15400001 556738.48773348 14238.58749572
0.15500001 549170.41897686 14135.64725157
0.15600001 541671.91564727 16583.28648019
0.15700001 534248.82940798 13927.86764002
0.15800001 526895.20296392 16336.38653895
0.15900001 519616.46827878 13717.87541005
0.16000001 512408.85053902 18562.01148695
0.16100001 505276.84266601 13506.05064201
0.16200001 498217.78893173 15835.85316874
0.16300001 491232.29171764 18126.47242009
0.16400001 484321.60850648 11986.96037643
0.16500001 477483.96368242 14267.22150840
0.16600001 470721.52962639 16508.20482340
0.16700001 464032.18137046 12862.97267491
0.16800001 457417.62910993 13914.64493452
0.16900001 450878.77504295 16096.37302907
0.17000001 444412.82928484 15958.86545319
0.17100001 438021.81534172 13561.15604336
0.17200001 431704.96516607 13443.29325010
0.17300001 425462.56078121 13325.48803296
0.17400001 419294.84425697 13207.78821785
0.17500001 413200.15457771 16362.72689405
0.17600001 407178.21029411 14053.75659205
0.17700001 401232.94938695 18211.96443284
0.17800001 395359.35378978 12738.47898077
0.17900001 389558.45898272 12621.69466721
0.18000001 383832.55803248 11463.15988710
0.18100001 378179.60616803 12389.16448329
0.18200001 372596.71591673 12273.33640206
0.18300001 367087.45142481 12157.93696552
0.18400001 361649.57472835 10035.77617281
0.18500001 356283.99674425 11928.38877452
0.18600001 350989.82243647 12798.84447981
0.18700001 345765.47409816 12675.76287930
0.18800001 340610.49753919 15450.09289834
0.18900001 335529.02288976 10518.83536458
0.19000001 330513.13020609 10416.12179059
0.19100001 325569.26897486 10314.03492846
0.19200001 320692.08659082 12069.24724913
0.19300001 315885.25181358 10111.48738835
0.19400001 311144.51097135 9100.97737597
0.19500001 306471.56976206 9911.29103446
0.19600001 301864.11231385 9812.09343445
0.19700001 297325.07922757 9713.61079741
0.19800001 292850.40961243 10489.90216806
0.19900001 288441.08674102 10383.87961342
0.20000001 284094.94892794 11991.64836099
0.20100001 279814.44186807 9326.21578824
0.20200001 275595.95647990 10909.46645288
0.20300001 271440.82752215 8306.08971476
0.20400001 267347.89984136 10687.23280130
0.20500001 263316.12393170 10577.40919830
0.20600001 259345.01944531 8857.92955785
0.20700001 255434.37782663 10360.41885438
0.20800001 251583.13719903 8675.84489642
0.20900001 247792.93291627 9366.57330700
0.21000001 244058.15145906 10041.77311648
0.21100001 240382.77596283 9937.42442808
0.21200001 236763.00829579 7564.57847266
0.21300001 233199.77413004 7485.71310347
0.21400001 229692.62071918 7407.58736840
0.21500001 226241.38924791 8063.24349401
0.21600001 222842.79185542 7253.53321783
0.21700001 219498.74254780 10048.65290893
0.21800001 216207.40574244 7102.41361445
0.21900001 212967.28890268 9136.29712590
0.22000001 209778.59015636 7649.57665174
0.22100001 206642.03973897 9633.65234814
0.22200001 203555.27615133 6808.92430922
0.22300001 200517.52510127 8758.60591058
0.22400001 197527.63162656 6666.55788263
0.22500001 194588.41228054 11873.78547884
0.22600001 191694.22360432 7179.90748462
0.22700001 188847.92068943 7104.45911230
0.22800001 186046.49816466 8307.90676842
0.22900001 183290.55766864 9485.28680792
0.23000001 180579.35794989 8134.19756353
0.23100001 177913.15477740 6191.37807906
0.23200001 175288.50558012 6738.96691574
0.23300001 172707.53720174 6062.03484248
0.23400001 170167.22336346 7198.07388871
0.23500001 167668.12448568 8903.17783128
0.23600001 165210.07610419 6460.54033162
0.23700001 162791.68765741 8136.32893395
0.23800001 160412.14907225 6900.93097949
0.23900001 158071.27501909 7966.79263779
0.24000001 155767.87412432 7883.41248232
0.24100001 153502.69858597 7243.79268891
0.24200001 151274.03015044 6065.33252578
0.24300001 149080.60247857 8184.52546322
0.24400001 146922.56627086 7019.22593562
0.24500001 144798.75434234 6411.68914558
0.24600001 142709.11734375 7402.32226679
0.24700001 140653.79641247 5755.55362147
0.24800001 138630.99658635 5695.65476419
0.24900001 136638.91326225 5636.35543871
0.25000001 134680.01713331 6084.84346195
0.25100001 132751.40536632 5018.00336024
0.25200001 130855.15690038 6952.33481503
0.25300001 128986.98543929 4914.40437774
0.25400001 127149.29796213 5836.15305258
0.25500001 125338.78617513 6738.21346357
0.25600001 123558.18792150 6192.11888065
0.25700001 121804.34090251 5656.59385915
0.25800001 120077.55395283 6997.51978768
0.25900001 118378.73843184 5540.12522074
0.26000001 116704.99445250 5482.80089880
0.26100001 115056.91438341 4521.73694922
0.26200001 113434.91873956 5817.51008282
0.26300001 111836.40217946 6200.21043021
0.26400001 110262.93796529 4821.24719066
0.26500001 108713.27161919 4771.42571714
0.26600001 107186.42645130 5151.37989901
0.26700001 105682.97904140 8072.06632115
0.26800001 104202.25552220 4625.01733021
0.26900001 102742.39523332 4993.28064463
0.27000001 101304.98079120 4118.04766404
0.27100001 99888.46171594  6113.17414631
0.27200001 98493.32705394  4839.96232047
0.27300001 97118.41084279  4390.72356199
0.27400001 95761.97955651  4345.20002801
0.27500001 94427.34104105  4691.15052493
0.27600001 93109.78932781  4255.58312263
0.27700001 91813.19980932  5742.91591987
0.27800001 90533.74172793  5304.37217888
0.27900001 89273.12097862  6374.10113955
0.28000001 88029.71324072  4452.54310645
0.28100001 86804.24638259  4773.36573450
0.28200001 85596.35544712  7993.84401355
0.28300001 84405.38867118  3955.23670033
0.28400001 83230.16855433  6760.37076080
0.28500001 82072.15402500  4577.16424662
0.28600001 80929.70031847  5574.43802179
0.28700001 79803.92388148  3792.28264235
0.28800001 78691.88090779  4434.68115847
0.28900001 77597.18545995  3713.02550001
0.29000001 76516.28161522  4341.91660578
0.29100001 75450.90119867  3965.69955472
0.29200001 74399.63708645  3596.85062520
0.29300001 73362.99346890  5823.55469722
0.29400001 72339.71870741  3841.23924519
0.29500001 71331.43491056  3167.11585995
0.29600001 70335.85885586  3446.80892639
0.29700001 69353.78893139  4030.14886558
0.29800001 68385.85538692  3373.81633523
0.29900001 67431.07495471  3641.27821993
0.30000001 66487.92161260  4202.70172409
0.30100001 65558.99794978  4157.75184680
0.30200001 64641.41380130  3231.74763599
0.30300001 63737.34348030  3197.06530032
0.30400001 62845.07091299  4025.22698254
0.30500001 61965.48813070  4550.74566376
0.30600001 61096.69321889  2813.50285593
0.30700001 60240.56489560  3618.04849892
0.30800001 59395.87383125  3303.59865890
0.30900001 58563.18112299  3812.46327160
0.31000001 57742.08764501  2693.66851617
0.31100001 56931.32044557  3463.70169990
0.31200001 56133.06071686  4216.71572069
0.31300001 55344.88060577  2867.41839995
0.31400001 54569.22979094  2578.39622970
0.31500001 53802.99098950  3060.31427238
0.31600002 53049.02471620  2774.72936916
0.31700002 52305.07684153  2494.95228347
0.31800002 51571.57581991  2714.47002181
0.31900002 50849.26971715  3417.07108679
0.32000002 50137.74229897  3379.78536840
0.32100002 49435.95268689  2626.53229062
0.32200002 48745.64473259  2834.07191895
0.32300002 48064.11132269  3036.69069716
0.32400002 47394.24936756  3696.75162572
0.32500002 46733.60771201  2513.80087786
0.32600002 46083.48205325  2938.51337227
0.32700002 45443.82125703  2906.58694523
0.32800002 44814.71229754  2653.92738793
0.32900002 44193.74383773  2843.86755062
0.33000002 43583.98715541  2813.12858416
0.33100002 42983.06093158  2354.61218933
0.33200002 42393.34249882  2752.81182552
0.33300002 41812.71226864  2513.78038063
0.33400002 41242.36259236  2279.67170025
0.33500002 40681.45762049  2460.41467340
0.33600002 40129.67241369  2231.41054023
0.33700002 39587.46487562  2207.79302067
0.33800002 39055.80387396  2780.38280946
0.33900002 38532.70498805  2161.68485220
0.34000002 38019.23027682  1944.68372076
0.34100002 37515.55931059  2117.00311215
0.34200002 37021.60463302  2476.19014315
0.34300002 36536.29092894  2073.79997134
0.34400002 36061.19636148  2426.01710011
0.34500002 35594.85088154  1847.37284824
0.34600002 35138.61112363  1828.96479561
0.34700002 34690.12259229  1991.90693359
0.34800002 34251.94430574  2151.70724319
0.34900002 33822.31152774  2130.80572717
0.35000002 33402.19097002  1758.62543786
0.35100002 32991.78151621  1741.96614656
0.35200002 32588.87530608  1898.13913210
0.35300002 32196.20811595  2222.50435151
0.35400002 31811.74120252  1863.37282919
0.35500002 31436.64719324  1846.58874359
0.35600002 31070.02469048  1830.17989108
0.35700002 30712.25928379  1814.17324182
0.35800002 30363.42566590  2616.11287929
0.35900002 30023.87750977  2107.67630102
0.36000002 29692.68751162  2090.21683639
0.36100002 29369.49507971  1913.71639004
0.36200002 29056.56264419  2531.40785747
0.36300002 28750.50746861  1883.73333857
0.36400002 28453.65293662  2025.18884369
0.36500002 28164.28576287  1700.84129778
0.36600002 27884.42938319  1842.04549231
0.36700002 27612.11461031  1676.60767856
0.36800002 27348.98372832  1967.89621739
0.36900002 27093.75055009  2255.55484014
0.37000002 26845.93912232  1942.16955780
0.37100002 26606.20338797  1930.01408519
0.37200002 26375.30040042  2065.97737823
0.37300002 26151.86749328  1613.83181946
0.37400002 25936.22781566  1750.69546049
0.37500002 25728.49640442  1451.08726595
0.37600002 25528.63056830  1588.00853973
0.37700002 25336.43660279  2011.20643280
0.37800002 25151.59611763  1429.86830702
0.37900002 24975.09005701  1423.58020069
0.38000002 24805.14123479  1984.65944421
0.38100002 24642.02227638  1976.78312066
0.38200002 24487.38793616  2110.20075537
0.38300002 24339.08209278  2663.66927042
0.38400002 24198.31418067  1816.68852318
0.38500002 24063.83487994  1532.62571611
0.38600002 23937.34057958  1528.51895512
0.38700002 23816.75399888  1940.58920776
0.38800002 23702.87028912  2212.90007503
0.38900002 23595.75055282  1518.38662001
0.39000002 23495.68886793  1791.42888261
0.39100002 23401.18667631  1375.98984176
0.39200002 23313.92626970  1511.79162058
0.39300002 23232.08316794  1784.92103436
0.39400002 23157.72547925  2195.35247944
0.39500002 23087.87616896  1645.70389129
0.39600002 23024.42528847  1782.43596815
0.39700002 22966.19017083  1919.51426542
0.39800002 22914.95449183  1645.75210958
0.39900002 22868.08937057  2195.33668359
0.40000002 22827.20540032  1922.27905784
0.40100002 22791.26716270  1924.03886504
0.40200002 22761.19050600  2201.46245004
0.40300002 22735.97603260  1928.92029800
0.40400002 22715.79737371  1931.97865817
0.40500002 22700.11755232  2073.65583666
0.40600002 22690.05831867  1523.75093859
0.40700002 22684.22787750  1665.92977426
0.40800002 22682.77644131  1669.90608073
0.40900002 22685.59820863  1395.16435594
0.41000002 22693.35622498  1678.85457307
0.41100002 22704.99546565  2104.75317939
0.41200002 22719.79295718  1688.98948847
0.41300002 22740.06315474  1694.58958659
0.41400002 22763.40657291  1842.12876420
0.41500002 22790.24806246  1564.32270113
0.41600002 22819.95261229  1570.12691389
0.41700002 22854.49061014  1719.57195499
0.41800002 22892.85529160  1438.81602325
0.41900002 22932.39838742  1878.16351693
0.42000002 22975.75295698  1741.10264158
0.42100002 23022.82344889  2331.75166939
0.42200002 23072.19175847  1610.32370009
0.42300002 23124.13829173  2206.04289757
0.42400002 23178.47762108  1625.39082020
0.42500002 23235.95047512  2227.16595858
0.42600002 23294.47996507  1790.41381496
0.42700002 23356.35463067  1649.42584218
0.42800002 23419.68212317  1507.05661604
0.42900002 23485.85614801  1666.32157266
0.43000002 23553.78185285  1675.02727584
0.43100002 23621.78047598  1683.76059212
0.43200002 23692.90664129  1538.85435927
0.43300002 23764.68977292  2320.62206630
0.43400002 23838.37351419  2022.09012916
0.43500002 23912.88996338  1563.90307772
0.43600002 23989.10538034  1572.48593220
0.43700002 24065.69431060  1581.11619113
0.43800002 24142.73317435  1907.75886584
0.43900002 24221.64876645  2238.08045208
0.44000002 24300.41651334  1607.47262854
0.44100002 24380.25717553  1778.05224007
0.44200002 24460.36918430  1787.93077026
0.44300002 24540.94514735  2778.52594126
0.44400002 24621.55896090  1972.18696623
0.44500002 24701.79951993  1817.80551282
0.44600002 24781.98993463  1661.63250386
0.44700002 24863.30520336  2506.22128327
0.44800002 24943.05301875  2351.88058060
0.44900002 25023.41723070  2871.43726331
0.45000002 25103.55320836  2037.90654604
0.45100002 25182.26212953  2048.82894396
0.45200002 25260.98377689  1716.48392899
0.45300002 25338.40656300  1898.10012559
0.45400002 25415.64695727  1908.07978575
0.45500002 25492.12225144  1918.02736910
0.45600002 25567.16652425  1752.62934830
0.45700002 25641.59867923  2113.89349530
0.45800002 25714.48323848  2124.53070585
0.45900002 25786.11062146  2135.09006065
0.46000002 25857.16112237  1788.02277635
0.46100002 25925.80917276  1796.65866082
0.46200002 25993.68251427  2527.36587065
0.46300002 26060.09063868  2176.53887330
0.46400002 26124.29089985  2368.82018961
0.46500002 26188.02334435  3294.97725335
0.46600002 26248.81524873  2022.60255485
0.46700002 26307.98652631  2770.23111252
0.46800002 26366.06301576  2225.82314529
0.46900002 26421.26784498  2421.50931276
0.47000002 26474.99561076  2431.59608712
0.47100002 26526.74084444  2065.90267488
0.47200002 26576.54165569  2262.72686381
0.47300002 26624.10892789  2650.16392829
0.47400002 26668.92573484  2090.17715354
0.47500002 26711.91427545  1907.23076967
0.47600002 26753.31492495  2679.87968305
0.47700002 26791.25336915  2113.02625338
