# SAXS profile: number of points = 501, q_min = 0, q_max = 0.5, delta_q = 0.001
#    q    intensity    error
0.00000000 1682732.95097188 504.81988529
0.00100000 1682650.42441035 656.23368110
0.00200000 1682402.77399342 1135.62190840
0.00300000 1681990.24002148 1110.11359796
0.00400000 1681412.67287039 1261.05955257
0.00500000 1680670.60243082 1966.38468268
0.00600000 1679763.90608662 1940.12739052
0.00700000 1678693.19166038 2417.31829646
0.00800000 1677458.25074407 3170.39622776
0.00900000 1676060.36978806 4525.36319188
0.01000000 1674498.83263731 3591.80015110
0.01100000 1672775.06518022 3613.19429811
0.01200000 1670888.88176095 5213.17353966
0.01300000 1668841.45642185 5256.85081958
0.01400000 1666632.91905284 4874.90150434
0.01500000 1664264.51937962 5591.92903412
0.01600000 1661735.81354165 5932.39711954
0.01700000 1659049.05623326 5823.26244860
0.01800000 1656204.06255701 5192.19996975
0.01900000 1653201.82427251 7935.36911457
0.02000000 1650043.13076086 5717.39970672
0.02100000 1646730.23577375 5434.21002443
0.02200000 1643261.68799999 8503.87962175
0.02300000 1639640.71789162 8263.78959433
0.02400000 1635866.90419468 9815.20187272
0.02500000 1631942.67654514 6364.57672920
0.02600000 1627868.07800699 7252.15261922
0.02700000 1623645.43718906 8865.10449308
0.02800000 1619274.30914743 8452.61228138
0.02900000 1614757.47349648 8719.69075724
0.03000000 1610096.25466294 8984.33751399
0.03100000 1605291.15210210 9246.47746157
0.03200000 1600343.36724764 8713.87003601
0.03300000 1595256.52719497 12203.71299564
0.03400000 1590029.40751630 9182.42025209
0.03500000 1584664.71182515 9412.90882291
0.03600000 1579164.10026022 11393.66950992
0.03700000 1573529.16060019 9866.02829324
0.03800000 1567761.34364111 11922.82557017
0.03900000 1561863.04519434 11245.41444617
0.04000000 1555833.91267389 11482.05480760
0.04100000 1549677.95881430 11715.56591185
0.04200000 1543396.07357338 9954.90513638
0.04300000 1536989.26333505 11158.54256977
0.04400000 1530460.99700177 15495.91831430
0.04500000 1523812.69729844 10514.30809991
0.04600000 1517044.39013021 11764.67979236
0.04700000 1510160.18191857 13047.78457860
0.04800000 1503160.67334340 12153.05460944
0.04900000 1496049.85599328 13464.44933068
0.05000000 1488827.10556106 14806.38625428
0.05100000 1481496.84472540 19644.64907619
0.05200000 1474057.71421788 16406.26312380
0.05300000 1466515.56100153 15442.40957724
0.05400000 1458870.48394721 13239.25025922
0.05500000 1451125.02022925 17065.23103398
0.05600000 1443280.26871579 13574.05156069
0.05700000 1435341.49124869 14984.96586811
0.05800000 1427307.21304902 12631.66942529
0.05900000 1419180.75005424 12772.62734704
0.06000000 1410965.46158694 15492.40149201
0.06100000 1402662.57284016 15653.71504442
0.06200000 1394274.72774881 13175.89679311
0.06300000 1385804.70730153 19955.58871817
0.06400000 1377251.50761455 28199.22593719
0.06500000 1368621.67075644 17614.16172659
0.06600000 1359915.48855410 17767.29668927
0.06700000 1351134.79069060 20672.36326501
0.06800000 1342283.02799577 13892.62999006
0.06900000 1333362.17486666 16800.36418989
0.07000000 1324373.89755607 15515.04093642
0.07100000 1315320.75442929 18467.10425715
0.07200000 1306205.13750074 17163.53631082
0.07300000 1297030.39797650 15836.74190133
0.07400000 1287797.91801504 20282.81815927
0.07500000 1278509.81895168 16032.51388114
0.07600000 1269167.36560078 14658.88375991
0.07700000 1259775.74274146 23583.00300989
0.07800000 1250335.03341737 20743.05917717
0.07900000 1240847.72185828 26802.31204927
0.08000000 1231317.88098939 14960.51295583
0.08100000 1221746.38314448 19535.72558306
0.08200000 1212134.81236976 18109.29494659
0.08300000 1202486.95134206 16666.46992779
0.08400000 1192804.30740992 16729.08119666
0.08500000 1183089.36672497 25945.15103028
0.08600000 1173344.27927294 19905.78663247
0.08700000 1163572.38253203 21502.81863891
0.08800000 1153773.50898197 16943.16477512
0.08900000 1143953.21178979 23165.05362680
0.09000000 1134110.33558028 23220.91021182
0.09100000 1124249.30135339 18617.56930509
0.09200000 1114371.20603257 18654.57486550
0.09300000 1104480.90515947 24917.09039131
0.09400000 1094575.36750623 20277.00963602
0.09500000 1084660.46128330 15619.11137662
0.09600000 1074737.41758106 20328.65920915
0.09700000 1064810.51065182 21913.80133944
0.09800000 1054879.66663226 15664.96378602
0.09900000 1044947.25568337 17241.63052952
0.10000000 1035014.96158470 17248.52514596
0.10100000 1025084.43530001 18820.55111727
0.10200000 1015159.31281482 20389.47575693
0.10300000 1005240.19143830 17249.92249653
0.10400000 995330.46280132 18811.74663195
0.10500000 985432.89510952 15668.38376943
0.10600001 975544.49318043 20354.73680797
0.10700001 965673.10916561 15643.90510465
0.10800001 955816.85431260 17190.36693382
0.10900001 945980.08366902 17169.53932669
0.11000001 936162.32736047 17145.81383265
0.11100001 926366.87801046 17119.26071149
0.11200001 916594.77635360 24858.05150496
0.11300001 906848.06691254 18608.52320915
0.11400001 897129.09801584 15475.47766943
0.11500001 887439.38458489 20073.87982455
0.11600001 877780.12784503 16945.54616604
0.11700001 868153.78773143 18439.58731983
0.11800001 858560.03507058 18390.35681737
0.11900001 849001.26133302 24451.23747808
0.12000001 839479.14555008 19807.51137229
0.12100001 829997.95675920 21264.54865390
0.12200001 820555.03013778 21194.93742698
0.12300001 811155.29394773 18104.98701392
0.12400001 801796.86358537 16537.06109063
0.12500001 792482.85271508 19471.30460871
0.12600001 783215.73989913 16412.28660299
0.12700001 773995.44319093 20804.99849344
0.12800001 764823.18559927 17759.19520659
0.12900001 755700.89266470 17683.40172181
0.13000001 746630.04313900 16138.40914313
0.13100001 737610.20107651 16065.15093672
0.13200001 728644.41995879 20351.03960880
0.13300001 719733.23896603 14466.63878522
0.13400001 710876.60930171 17274.30242044
0.13500001 702077.97408271 20051.34788519
0.13600001 693337.04891761 21372.11554060
0.13700001 684654.76724232 17006.82522023
0.13800001 676030.90128319 16914.29394771
0.13900001 667468.91373167 18221.90220419
0.14000001 658967.98099435 15330.89080085
0.14100001 650530.31800034 16627.55571229
0.14200001 642155.48826252 20661.35380935
0.14300001 633845.74209530 15060.17554254
0.14400001 625598.09721035 14967.43518177
0.14500001 617418.86514146 20282.21067665
0.14600001 609305.20905759 26870.36098703
0.14700001 601260.00094108 16017.56718072
0.14800001 593280.10234767 13259.81091305
0.14900001 585369.82078221 19756.23238351
0.15000001 577527.75659289 15697.20516483
0.15100001 569755.45084421 16887.55235986
0.15200001 562054.04598010 14189.05506031
0.15300001 554423.24722016 19210.76642272
0.15400001 546861.51475365 13985.98389984
0.15500001 539372.95233378 16407.72598432
0.15600001 531954.13799345 13780.27259508
0.15700001 524610.51585122 16163.25075623
0.15800001 517336.11057253 17273.85354732
0.15900001 510136.65804401 13467.60840804
0.16000001 503007.99991075 17006.70127974
0.16100001 495955.02928039 12051.70778041
0.16200001 488974.84906634 13150.97918644
0.16300001 482068.10065650 22531.86408837
0.16400001 475235.73027844 14114.50185561
0.16500001 468476.27750889 13998.07183283
0.16600001 461791.85366370 13881.46377652
0.16700001 455180.52046586 12617.60462305
0.16800001 448643.83238096 13647.74602543
0.16900001 442182.39671855 12403.21681361
0.17000001 435793.88464801 14531.54776976
0.17100001 429479.84751551 15512.81282480
0.17200001 423239.99186434 16474.61746130
0.17300001 417074.06126437 16328.45026960
0.17400001 410982.91256114 10788.30196422
0.17500001 404964.38134442 12829.27220689
0.17600001 399018.46528672 18009.69928130
0.17700001 393148.84109182 11546.78200823
0.17800001 387350.67555243 14560.51258174
0.17900001 381625.20912806 10303.88113315
0.18000001 375973.98677589 11228.46364544
0.18100001 370395.55681550 13145.33893232
0.18200001 364887.27898999 14022.61879398
0.18300001 359451.95046828 11905.04916190
0.18400001 354087.95683038 9825.94126623
0.18500001 348795.79165132 10704.54335148
0.18600001 343574.70418530 12528.45218000
0.18700001 338423.42455660 14315.31153507
0.18800001 333341.06329913 10395.24155012
0.18900001 328331.67847163 12164.68926212
0.19000001 323387.71897533 12044.57616233
0.19100001 318515.40566210 14677.19058641
0.19200001 313709.49345821 16347.40247654
0.19300001 308973.63357561 10789.35979429
0.19400001 304303.38425639 8900.87441010
0.19500001 299700.50588421 9692.31481831
0.19600001 295163.13077366 10466.48511184
0.19700001 290693.45613911 12087.03447747
0.19800001 286287.79895798 11109.39856358
0.19900001 281947.39969669 10995.94910784
0.20000001 277669.62943546 12557.60958471
0.20100001 273456.99761166 9942.89690308
0.20200001 269306.20703052 12300.56158749
0.20300001 265218.26173600 10550.38295052
0.20400001 261192.37311441 8834.83243818
0.20500001 257226.95464675 8743.14460170
0.20600001 253321.97140223 9438.77710060
0.20700001 249476.99086066 7783.68248278
0.20800001 245690.95920635 10013.13551578
0.20900001 241965.72446181 13719.45722552
0.21000001 238295.40782862 7542.05001431
0.21100001 234683.93113572 9701.83417179
0.21200001 231127.94585662 8861.44586306
0.21300001 227627.83463931 9498.90998856
0.21400001 224183.38356964 7952.90590812
0.21500001 220794.55998975 7869.11849007
0.21600001 217457.85425551 10617.38023600
0.21700001 214175.30856362 7703.88621327
0.21800001 210944.97765052 9008.40569649
0.21900001 207765.68627676 9598.77515983
0.22000001 204637.06381194 10853.95037779
0.22100001 201560.28261244 6711.95772836
0.22200001 198532.83692381 7305.01608003
0.22300001 195553.95372922 7227.67447160
0.22400001 192622.59864867 8451.31691534
0.22500001 189741.22182357 7718.67326878
0.22600001 186904.55455275 9546.15057520
0.22700001 184115.25009995 10074.78696190
0.22800001 181370.54046096 8722.10970324
0.22900001 178670.68016678 9246.20813589
0.23000001 176015.23948785 10368.17817236
0.23100001 173404.22014890 10258.59414917
0.23200001 170834.28518085 8358.92196922
0.23300001 168307.64542655 6498.35849726
0.23400001 165821.35504125 6429.72334582
0.23500001 163375.56277533 8675.24279368
0.23600001 160970.32036767 6866.99419167
0.23700001 158604.50887627 7360.83560510
0.23800001 156277.00136370 6162.78384027
0.23900001 153987.65755907 6097.91152777
0.24000001 151735.34315180 6582.27949727
0.24100001 149520.67321270 6513.12083322
0.24200001 147342.24612241 5907.68763772
0.24300001 145198.39502861 6908.53996225
0.24400001 143089.61435640 6310.25229161
0.24500001 141014.58960650 7284.81404368
0.24600001 138973.30473336 7208.54565752
0.24700001 136965.64016895 6623.65867191
0.24800001 134990.11746869 6050.25735116
0.24900001 133045.08511453 5987.02911339
0.25000001 131132.54112410 4937.14040689
0.25100001 129249.84315383 5374.20873258
0.25200001 127398.99423646 6285.22967801
0.25300001 125575.91955768 4784.44276150
0.25400001 123782.72278715 8522.44086710
0.25500001 122016.40229692 5153.97307687
0.25600001 120279.40223832 6027.80252836
0.25700001 118568.57855241 4588.60420708
0.25800001 116884.62673523 5449.16155622
0.25900001 115228.00190626 6291.44920176
0.26000001 113596.10227690 5781.47389894
0.26100001 111989.08680656 5281.40558369
0.26200001 110408.09453477 4355.59953549
0.26300001 108849.98540379 4741.50558855
0.26400001 107316.49247967 5545.58001129
0.26500001 105806.25377774 4643.83669805
0.26600001 104318.52252958 5013.54843001
0.26700001 102853.63875967 4961.65976855
0.26800001 101410.99150664 5319.51381120
0.26900001 99988.87671756  5264.41460830
0.27000001 98588.72934901  5209.92164899
0.27100001 97208.97677327  5552.57701605
0.27200001 95850.32750776  4317.57820691
0.27300001 94511.18802465  6215.05601862
0.27400001 93190.36816627  4228.51315566
0.27500001 91890.77288287  4945.56163061
0.27600001 90607.74013295  4517.70213683
0.27700001 89345.34092281  4470.84107137
0.27800001 88099.70475600  3686.97281853
0.27900001 86872.36945668  4743.23159682
0.28000001 85661.98492192  5415.97925302
0.28100001 84469.00712695  3573.03917058
0.28200001 83293.17411187  4950.11357176
0.28300001 82133.85147163  4548.57290978
0.28400001 80989.93836944  3808.55203208
0.28500001 79862.64834483  3768.71855377
0.28600001 78750.65022431  4068.25878315
0.28700001 77654.88496637  3690.16030827
0.28800001 76572.52205819  4315.24468484
0.28900001 75506.99335204  3613.00980291
0.29000001 74454.92050854  3249.95743403
0.29100001 73418.02295426  5466.70624794
0.29200001 72394.81202493  3818.10256693
0.29300001 71385.73207993  3462.92202712
0.29400001 70389.69046067  4360.64153046
0.29500001 69408.40080554  3389.90645581
0.29600001 68439.27953198  3658.76405698
0.29700001 67483.35830034  3318.15688470
0.29800001 66541.14097408  3879.68140815
0.29900001 65611.76846434  3838.28863687
0.30000001 64693.63079514  3213.00932554
0.30100001 63789.36938943  3467.59028417
0.30200001 62896.11661054  4287.94295292
0.30300001 62015.89003936  3110.71719164
0.30400001 61147.30085155  2797.48914640
0.30500001 60290.91472780  2767.35311702
0.30600001 59445.02596724  3011.18793293
0.30700001 58611.49944088  2978.63654260
0.30800001 57789.04206925  3214.22667207
0.30900001 56978.12418444  2914.43119002
0.31000001 56178.49302432  3144.87218839
0.31100001 55389.03477231  3110.64834009
0.31200001 54611.57770303  3076.81643346
0.31300001 53844.08689351  4311.29624169
0.31400001 53088.68344478  3010.12849384
0.31500001 52342.43744691  2729.13481770
0.31600002 51608.09100763  2453.96484360
0.31700002 50883.42333364  3883.42305270
0.31800002 50168.94283716  2640.64243126
0.31900002 49465.37499241  3086.63954568
0.32000002 48772.20039867  2583.21971643
0.32100002 48088.56520700  2554.94559042
0.32200002 47416.11088807  3216.23495383
0.32300002 46752.00093570  3181.00629429
0.32400002 46099.38313482  2472.07953766
0.32500002 45455.83872966  2667.34874296
0.32600002 44822.44563777  3517.66570022
0.32700002 44199.14834237  2826.97766184
0.32800002 43586.26279590  3011.37503917
0.32900002 42981.17960161  3616.86643475
0.33000002 42387.17590470  2525.42805999
0.33100002 41801.66699936  2289.89542666
0.33200002 41227.04620600  2471.14926661
0.33300002 40661.30266143  2851.98390373
0.33400002 40105.69277085  2418.37338861
0.33500002 39559.21095342  3389.43335500
0.33600002 39021.54506812  2958.80879491
0.33700002 38493.34133857  3122.57999726
0.33800002 37975.40238044  2703.46902349
0.33900002 37465.75596741  2101.82900931
0.34000002 36965.58116187  2458.02643577
0.34100002 36474.85754949  1871.16028090
0.34200002 35993.85571004  2222.26075678
0.34300002 35521.20514463  2016.18369949
0.34400002 35058.53216647  2358.56286320
0.34500002 34604.37953070  2693.95107405
0.34600002 34160.10705212  3022.65721566
0.34700002 33723.55189851  2816.59118796
0.34800002 33296.96990130  2266.02539396
0.34900002 32878.75962092  2416.58894659
0.35000002 32469.85083809  2564.30659139
0.35100002 32070.54061144  2201.32201183
0.35200002 31678.55225294  3019.28295823
0.35300002 31296.59962180  2492.77427794
0.35400002 30922.75056256  2140.62750908
0.35500002 30558.07660559  1958.16164163
0.35600002 30201.59238419  2587.67255804
0.35700002 29853.95117283  1923.78870470
0.35800002 29514.99746376  1589.38268870
0.35900002 29185.16490393  2048.79867330
0.36000002 28863.54654055  1719.25723112
0.36100002 28549.84108934  1860.30773350
0.36200002 28246.10026017  1538.00023202
0.36300002 27949.22089208  2594.24680608
0.36400002 27661.39462529  2120.24599846
0.36500002 27380.87491820  1803.85212506
0.36600002 27109.75928521  1940.11001515
0.36700002 26846.11212310  1630.09600533
0.36800002 26591.43733206  2354.93780168
0.36900002 26344.58440290  2046.97430507
0.37000002 26105.06173626  2179.12013166
0.37100002 25873.49539167  1588.11522237
0.37200002 25650.49075236  2009.20303581
0.37300002 25435.01590365  1712.28535175
0.37400002 25227.18265264  1560.93200057
0.37500002 25027.14599187  1834.99043105
0.37600002 24834.90300648  1825.73798101
0.37700002 24650.13571788  1397.66276141
0.37800002 24472.79033888  1530.40601634
0.37900002 24303.51662420  2077.95076981
0.38000002 24140.82859207  1517.61326133
0.38100002 23984.78546515  1511.76109949
0.38200002 23837.19939354  1506.39188704
0.38300002 23695.80032718  1364.87816351
0.38400002 23561.87832699  1632.83824541
0.38500002 23434.19685675  1763.89208097
0.38600002 23314.41559758  1488.74207851
0.38700002 23200.45394858  1620.31978053
0.38800002 23093.23683788  1751.73756333
0.38900002 22992.57688010  2824.63820354
0.39000002 22898.90047993  1745.92674981
0.39100002 22810.83981531  1475.40518915
0.39200002 22729.78677751  1607.90519282
0.39300002 22654.19809784  1472.74948811
0.39400002 22585.98924519  1338.21992618
0.39500002 22522.42914539  1605.39882554
0.39600002 22464.99545995  1337.79054302
0.39700002 22412.80108969  1605.65314614
0.39800002 22367.49291230  1472.56396565
0.39900002 22326.53972227  1607.51093617
0.40000002 22291.55019115  1474.92048828
0.40100002 22261.47644995  1476.60380289
0.40200002 22237.20560816  1344.23914270
0.40300002 22217.74262610  1750.31384701
0.40400002 22203.28970206  1483.73490464
0.40500002 22193.23662696  1757.03862701
0.40600002 22188.87159346  1490.09374246
0.40700002 22188.60433945  1901.11970988
0.40800002 22192.79428523  1497.68079330
0.40900002 22201.17564121  1501.90960329
0.41000002 22214.37833160  1643.41978684
0.41100002 22231.51052025  1648.68889830
0.41200002 22251.77354710  1792.04666753
0.41300002 22277.47164289  1936.80347640
0.41400002 22306.22598807  2360.55647704
0.41500002 22338.53134739  1672.70930655
0.41600002 22373.67576294  1539.42083381
0.41700002 22413.49586327  1545.85888294
0.41800002 22457.17048991  2258.29317147
0.41900002 22502.07332446  2126.44602992
0.42000002 22550.73308319  1851.30252019
0.42100002 22603.00936720  1573.84761681
0.42200002 22657.75609980  2012.68856972
0.42300002 22714.87952751  2022.53296897
0.42400002 22774.47431182  1597.06008679
0.42500002 22837.20492009  1605.22720990
0.42600002 22900.92646570  1906.84573252
0.42700002 22968.12456731  1769.46440051
0.42800002 23036.63302440  1778.88888644
0.42900002 23107.96791997  1639.51040161
0.43000002 23181.06088325  1648.52122283
0.43100002 23254.26418157  1657.56402941
0.43200002 23330.57626010  1666.85309989
0.43300002 23407.49325533  2133.35903639
0.43400002 23486.41024959  1992.23484383
0.43500002 23565.99296006  1695.33761389
0.43600002 23647.41606268  1550.08819637
0.43700002 23729.13550914  1870.80513220
0.43800002 23811.32027466  2351.96327159
0.43900002 23895.37928382  1734.80461822
0.44000002 23979.30611366  1744.85429205
0.44100002 24064.33830915  2233.65198771
0.44200002 24149.59271584  1925.68861442
0.44300002 24235.31612693  2582.51540887
0.44400002 24321.08172887  1623.43228234
0.44500002 24406.41063294  1796.06784360
0.44600002 24491.84698185  1642.17841796
0.44700002 24578.16079451  2312.31347713
0.44800002 24663.13539141  2989.91204520
0.44900002 24748.61665589  2171.69121447
0.45000002 24833.87113443  2016.01375424
0.45100002 24917.63905534  1858.35760882
0.45200002 25001.51099260  2548.27912869
0.45300002 25084.09336858  2562.34025904
0.45400002 25166.40246148  2061.12845928
0.45500002 25248.03730702  2072.35900038
0.45600002 25328.19193273  2257.12193106
0.45700002 25407.77392488  1745.51415137
0.45800002 25485.75560342  2456.57209904
0.45900002 25562.53424148  1940.19644088
0.46000002 25638.67850219  2659.37205368
0.46100002 25712.49877502  2316.43912443
0.46200002 25785.45766937  2686.20018002
0.46300002 25856.96657651  2339.53844673
0.46400002 25926.24562472  1989.19128984
0.46500002 25995.04667436  1998.75923352
0.46600002 26060.97534232  1825.57140925
0.46700002 26125.25675922  2750.98966713
0.46800002 26188.38934141  2026.58860524
0.46900002 26248.70230470  2590.74704027
0.47000002 26307.49150920  2230.34923586
0.47100002 26364.30263333  2426.57052938
0.47200002 26419.17278622  2249.32847763
0.47300002 26471.71736003  2070.35311286
0.47400002 26521.55767218  2267.59328845
0.47500002 26569.62298317  1897.07117092
0.47600002 26616.11508577  2094.82143712
0.47700002 26658.99246359  2484.88480531
