# SAXS profile: number of points = 501, q_min = 0, q_max = 0.5, delta_q = 0.001
#    q    intensity    error
0.00000000 1664650.74656090 424.48594037
0.00100000 1664568.74022509 549.30769732
0.00200000 1664322.65020765 973.62878120
0.00300000 1663912.71756261 1198.01719932
0.00400000 1663338.79008230 1871.25620995
0.00500000 1662601.40152822 2094.87784884
0.00600000 1661700.42911245 1919.26407376
0.00700000 1660636.47223085 2192.04023445
0.00800000 1659409.33378374 2688.24323423
0.00900000 1658020.26088249 3481.84269669
0.01000000 1656468.60710398 4373.07731158
0.01100000 1654755.72408948 4467.84064957
0.01200000 1652881.46102957 4834.67848548
0.01300000 1650846.97015779 4506.81242730
0.01400000 1648652.40866330 6677.04255109
0.01500000 1646299.02941968 5531.56498516
0.01600000 1643786.37727063 5029.98653931
0.01700000 1641116.63355751 4874.11662031
0.01800000 1638289.73237693 5136.03854211
0.01900000 1635306.47981307 5396.51162689
0.02000000 1632167.94000403 5655.46216794
0.02100000 1628876.10282748 8062.93707456
0.02200000 1625429.66460316 6729.27911718
0.02300000 1621831.81144113 7006.31374434
0.02400000 1618082.05151560 6067.80796986
0.02500000 1614182.87986207 6295.31351897
0.02600000 1610134.33372448 9129.46208978
0.02700000 1605938.71190391 7419.43718881
0.02800000 1601595.66537442 6966.94146388
0.02900000 1597107.83333091 8624.38269597
0.03000000 1592476.60565813 7405.01655668
0.03100000 1587702.32619293 8383.06866803
0.03200000 1582786.33159071 10185.23051290
0.03300000 1577732.44283946 8851.07941237
0.03400000 1572539.20187711 8255.83119078
0.03500000 1567209.27104782 11001.80959080
0.03600000 1561744.24161762 10401.21712985
0.03700000 1556145.80438908 8870.03149523
0.03800000 1550415.59223147 9976.92479774
0.03900000 1544555.60241406 9267.33404365
0.04000000 1538565.95345164 10408.39915741
0.04100000 1532450.29226882 10619.88101783
0.04200000 1526209.43070592 11812.86154170
0.04300000 1519844.71225748 14043.36579312
0.04400000 1513359.30393036 14301.24608632
0.04500000 1506754.86298852 17674.23536409
0.04600000 1500031.18670770 17977.87460843
0.04700000 1493192.58365337 18276.67807393
0.04800000 1486239.54026031 14201.01946793
0.04900000 1479176.01564217 12203.20269708
0.05000000 1472001.14629319 11260.80929352
0.05100000 1464719.83518771 11424.81524668
0.05200000 1457330.42530721 16220.08838955
0.05300000 1449838.90956618 11743.69571495
0.05400000 1442245.13458683 13088.37520674
0.05500000 1434551.86766240 14460.28350060
0.05600000 1426760.03205777 25617.47757102
0.05700000 1418874.88317664 13578.63326583
0.05800000 1410895.33685629 12486.42431420
0.05900000 1402824.04549991 17675.58379885
0.06000000 1394664.77560862 14037.30162231
0.06100000 1386418.62461038 18051.17133598
0.06200000 1378088.31070007 18232.10920279
0.06300000 1369676.65579094 19723.34476556
0.06400000 1361182.54878303 17252.98961269
0.06500000 1352612.23006305 18747.20638563
0.06600000 1343966.48217759 14857.55015564
0.06700000 1335246.77256292 24515.13189154
0.06800000 1326456.73870909 17847.47625475
0.06900000 1317598.49409640 15218.26331932
0.07000000 1308673.10487091 15331.10614150
0.07100000 1299683.74397022 15440.24360155
0.07200000 1290632.55075852 18372.15522072
0.07300000 1281522.57603926 15647.39138661
0.07400000 1272355.78545969 17176.80390868
0.07500000 1263134.07608059 20159.62079918
0.07600000 1253858.55113681 17378.48033347
0.07700000 1244534.33220906 17473.26284351
0.07800000 1235161.69028246 24882.33341763
0.07900000 1225742.88566481 14708.91531788
0.08000000 1216282.26248222 14777.83018240
0.08100000 1206780.44865859 19296.42027940
0.08200000 1197238.99919817 20867.87673525
0.08300000 1187662.02932375 17957.45072615
0.08400000 1178050.59842114 16522.16041838
0.08500000 1168407.59176692 16579.70450551
0.08600000 1158734.43496200 22682.22762935
0.08700000 1149035.33446166 16683.99383983
0.08800000 1139309.70197448 15209.78523567
0.08900000 1129562.96092220 19823.83089530
0.09000000 1119794.54790033 19870.75518593
0.09100000 1110007.97132997 21445.35501362
0.09200000 1100204.61430343 23021.78263602
0.09300000 1090389.84925877 16911.94735673
0.09400000 1080560.25888697 18477.58129537
0.09500000 1070721.43975099 16960.22840283
0.09600000 1060874.91385873 15435.73072224
0.09700000 1051024.91818510 15450.06702367
0.09800000 1041171.19243682 20099.81081504
0.09900000 1031316.73198792 29392.52824377
0.10000000 1021462.30102904 18570.18550601
0.10100000 1011610.23193264 20120.92845946
0.10200000 1001763.77419270 18572.70124712
0.10300000 991923.53501304 17021.40866152
0.10400000 982093.14914884 15467.96782679
0.10500000 972274.91683759 21642.84066709
0.10600001 962466.33847396 18537.10255124
0.10700001 952674.90239194 18520.00097401
0.10800001 942898.96156930 20041.31837133
0.10900001 933142.71750032 18476.22667610
0.11000001 923405.68954346 21524.58763641
0.11100001 913690.85359070 23025.01059435
0.11200001 904000.06883563 18387.36226574
0.11300001 894334.72256954 15293.12447595
0.11400001 884697.25533704 16787.13121043
0.11500001 875089.02471136 18271.85969636
0.11600001 865511.59579433 18227.67506580
0.11700001 855967.09364341 21210.86557941
0.11800001 846455.51723074 18131.07803303
0.11900001 836979.12627560 16572.18748083
0.12000001 827539.25746284 19525.78969960
0.12100001 818140.23271373 20960.75374955
0.12200001 808780.02802479 23875.18755208
0.12300001 799462.69642310 20818.00959569
0.12400001 790187.09201184 28150.41647930
0.12500001 780955.41112000 16236.06376224
0.12600001 771771.28317461 20583.14109222
0.12700001 762633.57747141 21963.84806625
0.12800001 753544.03077256 21871.61652397
0.12900001 744504.67463396 18873.19439150
0.13000001 735516.48693314 15898.18961442
0.13100001 726579.59559224 18702.15967212
0.13200001 717696.29149205 17181.65002827
0.13300001 708867.83759417 17097.89304882
0.13400001 700094.11790330 15594.59721151
0.13500001 691378.00384779 15514.52313783
0.13600001 682719.52666130 19641.84170817
0.13700001 674119.74147371 15349.70723715
0.13800001 665578.22456712 13877.30663662
0.13900001 657098.53212435 15178.97680789
0.14000001 648679.79940340 13719.57840441
0.14100001 640324.21717489 17730.57840980
0.14200001 632031.40950973 20335.61156011
0.14300001 623803.38704445 21558.64607313
0.14400001 615637.61015201 14729.13051766
0.14500001 607539.75841453 13305.12133691
0.14600001 599507.60008512 19828.71480822
0.14700001 591543.49660440 15758.71949298
0.14800001 583644.56327436 18262.23924644
0.14900001 575814.98664177 15547.00537285
0.15000001 568053.65817395 12866.41596471
0.15100001 560361.57475733 17886.74231024
0.15200001 552740.48317265 15222.47362488
0.15300001 545189.47681943 13853.26525970
0.15400001 537707.53238509 13751.87078971
0.15500001 530298.32492947 19854.37022235
0.15600001 522958.79263942 14778.81617747
0.15700001 515694.29565719 14666.34646070
0.15800001 508498.51464045 19404.30423454
0.15900001 501377.55695054 13236.36812826
0.16000001 494326.90457709 16713.19343265
0.16100001 487351.93509328 16579.71361451
0.16200001 480449.27571253 15271.08094941
0.16300001 473619.75469214 12816.15116699
0.16400001 466864.30911309 12710.38141566
0.16500001 460181.52330374 13750.22456548
0.16600001 453573.15397838 13634.40965231
0.16700001 447038.08448503 14644.96833919
0.16800001 440577.01071275 15636.07884847
0.16900001 434190.70524375 14393.42255846
0.17000001 427876.84291643 12072.54569295
0.17100001 421637.48992660 13053.89730455
0.17200001 415471.86611511 12937.79452178
0.17300001 409379.48732688 12821.76614858
0.17400001 403361.89319193 11647.07521596
0.17500001 397416.39209237 14688.51054544
0.17600001 391543.00214559 13514.10735731
0.17700001 385745.59892796 16479.05276452
0.17800001 380019.06987726 13264.56626058
0.17900001 374365.15854462 15161.78963720
0.18000001 368784.69933705 11013.75556594
0.18100001 363276.93851652 13884.44524595
0.18200001 357838.82847647 9822.67630568
0.18300001 352472.99862803 9728.25522169
0.18400001 347178.56607840 10597.62623018
0.18500001 341955.01005032 11448.65427734
0.18600001 336802.38733926 12281.49963455
0.18700001 331719.05953147 9354.47792074
0.18800001 326704.05094155 11114.47233815
0.18900001 321761.81758986 11004.25468150
0.19000001 316884.27936422 10894.48203929
0.19100001 312077.96844464 9886.63050747
0.19200001 307337.85681144 10676.91765013
0.19300001 302666.81771813 8807.60481178
0.19400001 298061.30794617 9590.12303634
0.19500001 293522.64583754 9492.52281496
0.19600001 289048.92591304 9395.53578080
0.19700001 284642.38624278 10144.65512510
0.19800001 280299.38179593 8366.93694202
0.19900001 276021.17134090 9108.69908473
0.20000001 271805.04010933 10653.39905058
0.20100001 267653.69959724 12164.86122163
0.20200001 263563.60333057 11235.71694102
0.20300001 259535.77253025 11118.51302071
0.20400001 255569.70571027 7858.76882204
0.20500001 251663.54409440 11664.60582012
0.20600001 247817.03099444 8464.19109370
0.20700001 244030.33047706 9897.87067201
0.20800001 240301.83720637 9793.50183829
0.20900001 236633.75340059 7453.96358448
0.21000001 233020.04493336 8850.10172493
0.21100001 229464.70871883 8026.67589043
0.21200001 225964.27971145 10107.38270931
0.21300001 222519.18857620 7142.86629098
0.21400001 219129.38896017 7773.61544087
0.21500001 215794.51949931 6991.74276233
0.21600001 212511.36341450 8992.41876803
0.21700001 209281.57510811 7527.85861255
0.21800001 206103.74044115 7447.55901297
0.21900001 202976.52415188 8037.87073646
0.22000001 199899.30584935 7951.99476268
0.22100001 196873.60773643 7211.48059237
0.22200001 193896.31990460 6485.83220749
0.22300001 190967.29285355 9624.75201493
0.22400001 188085.32791956 8252.24415269
0.22500001 185252.76973222 7536.08302907
0.22600001 182464.35828408 6834.20286271
0.22700001 179722.83549612 6761.17339109
0.22800001 177025.51725297 9729.32288832
0.22900001 174372.25028377 10828.51725471
0.23000001 171763.01068798 5951.58860180
0.23100001 169197.87053217 6476.89479028
0.23200001 166673.00941262 9320.35512715
0.23300001 164191.01387821 8644.65728953
0.23400001 161749.05717819 5701.65453519
0.23500001 159346.85614019 8461.31846123
0.23600001 156984.90784158 6138.89511150
0.23700001 154661.82798570 7177.85577631
0.23800001 152376.39729349 7101.50233175
0.23900001 150128.70847875 5945.09713696
0.24000001 147917.64195821 6951.38991263
0.24100001 145743.62022044 6348.59239710
0.24200001 143605.38202853 5757.85806479
0.24300001 141501.18304020 6214.73225310
0.24400001 139431.73120938 5636.52800077
0.24500001 137395.44231148 5069.89206112
0.24600001 135392.45937244 5016.29085705
0.24700001 133422.57619932 6452.31609023
0.24800001 131484.36169185 5402.03525566
0.24900001 129576.33061746 4859.11262803
0.25000001 127700.25531643 5769.49780814
0.25100001 125853.30296847 8087.33363136
0.25200001 124037.93199771 6590.13563882
0.25300001 122249.91944143 6520.81101151
0.25400001 120491.26486701 6452.30753889
0.25500001 118759.20926283 5472.42462174
0.25600001 117055.75520528 5414.99949199
0.25700001 115378.17827869 7590.73070810
0.25800001 113727.08183805 6185.61627384
0.25900001 112102.71642732 5683.60799178
0.26000001 110502.76385957 5191.42009176
0.26100001 108927.21999834 4708.92394334
0.26200001 107377.45031238 4236.04061526
0.26300001 105849.76993366 7544.97195788
0.26400001 104346.72343710 6221.67367934
0.26500001 102866.36402088 5335.67855424
0.26600001 101408.09386836 4467.53378677
0.26700001 99972.20725422  5224.54779833
0.26800001 98558.15951304  4374.50411699
0.26900001 97164.40105424  5902.73764337
0.27000001 95792.13458126  4283.34550050
0.27100001 94439.80676803  5394.40201787
0.27200001 93108.27111192  4194.06227071
0.27300001 91795.98718185  5281.94135241
0.27400001 90501.53325023  4853.14495022
0.27500001 89228.06313869  4802.25458539
0.27600001 87970.63642086  5117.25216278
0.27700001 86733.41274244  3978.46183078
0.27800001 85512.79956709  4294.45299750
0.27900001 84310.06323094  4603.32967027
0.28000001 83124.05723355  3854.04709604
0.28100001 81955.01565340  4160.03679146
0.28200001 80802.89219224  4459.10781668
0.28300001 79666.66854770  3733.18026484
0.28400001 78545.86447371  3693.61945170
0.28500001 77441.31334864  3654.45574989
0.28600001 76351.74524512  3615.63706722
0.28700001 75277.96675305  3902.40998119
0.28800001 74217.42872161  4504.25596231
0.28900001 73173.22358442  3819.64245190
0.29000001 72142.49058180  4408.62780813
0.29100001 71126.44585949  3426.87232372
0.29200001 70123.91172256  3081.94606609
0.29300001 69135.22878585  4268.40922729
0.29400001 68159.28619423  3619.25826824
0.29500001 67197.85215134  3281.94325443
0.29600001 66248.20279642  4131.90060401
0.29700001 65311.89687106  3795.27450684
0.29800001 64388.62345061  4331.74484770
0.29900001 63478.01187298  3142.16173646
0.30000001 62578.69808861  3107.97118770
0.30100001 61692.74248749  3633.08577708
0.30200001 60817.63200829  3869.82610789
0.30300001 59955.35694546  3007.36084676
0.30400001 59104.47439011  3785.64176391
0.30500001 58265.62389508  3476.70994241
0.30600001 57437.00417085  3702.96383420
0.30700001 56620.63877271  3400.63572569
0.30800001 55815.07693368  3880.54340753
0.30900001 55020.90389167  4093.55544335
0.31000001 54237.72270012  3036.22786050
0.31100001 53464.69019341  3252.79190537
0.31200001 52703.50806151  3711.64473096
0.31300001 51951.97573114  3181.01962463
0.31400001 51212.40200709  2661.76472034
0.31500001 50482.03795417  2392.84871232
0.31600002 49763.10533074  3549.35365577
0.31700002 49053.79635014  3275.81267537
0.31800002 48354.54206862  3470.64742131
0.31900002 47666.10940392  2745.56803167
0.32000002 46987.87002575  2488.71265375
0.32100002 46319.10388054  3132.09795271
0.32200002 45661.32701126  2875.97881798
0.32300002 45011.79608352  3062.60275054
0.32400002 44373.39485920  2163.20310182
0.32500002 43744.32444627  2353.00732338
0.32600002 43125.25165359  2961.41117128
0.32700002 42515.96694019  2091.78567251
0.32800002 41917.04431143  2689.18810514
0.32900002 41325.82817015  2863.88002781
0.33000002 40745.67885767  2427.62766130
0.33100002 40173.87698644  2200.72508553
0.33200002 39612.99117494  2572.26970375
0.33300002 39060.75474379  2152.63829587
0.33400002 38518.65660123  2516.23136163
0.33500002 37985.40005477  1914.46425342
0.33600002 37461.16186414  2272.39418629
0.33700002 36946.11242207  2435.11838506
0.33800002 36441.35241049  2038.34714361
0.33900002 35944.95473349  2566.46988951
0.34000002 35457.78690422  1995.03247465
0.34100002 34979.92423003  2153.36423758
0.34200002 34511.92819183  2308.33042643
0.34300002 34052.27609886  2635.64629487
0.34400002 33602.43485583  2086.71130337
0.34500002 33161.11543493  1893.16816984
0.34600002 32729.46207406  1873.92543980
0.34700002 32305.66154090  2360.89785722
0.34800002 31891.76313960  2170.39404326
0.34900002 31486.27103120  1818.33223817
0.35000002 31090.04756445  1800.58018997
0.35100002 30703.29280293  1783.24733045
0.35200002 30323.82139016  2569.03426985
0.35300002 29954.36503903  1749.63454480
0.35400002 29593.20554468  1733.42209688
0.35500002 29241.06501366  2029.91482939
0.35600002 28897.11905525  2321.16119805
0.35700002 28561.82677989  1687.14718780
0.35800002 28235.35799415  1672.52151000
0.35900002 27918.01928900  1507.57311301
0.36000002 27608.89695103  2093.03057700
0.36100002 27307.64166581  2372.48802030
0.36200002 27016.28708925  2059.45166236
0.36300002 26731.91680292  1897.43154455
0.36400002 26456.49961502  1593.34276479
0.36500002 26188.51406908  1869.07433764
0.36600002 25929.78186347  1998.40838288
0.36700002 25678.54804363  1984.43828681
0.36800002 25436.35504687  2111.85347780
0.36900002 25201.99577685  1398.71083187
0.37000002 24974.98714934  2779.71620140
0.37100002 24755.86340947  1657.65269242
0.37200002 24545.43656820  1785.31241336
0.37300002 24342.44908002  1775.29489550
0.37400002 24147.11227179  2173.24020741
0.37500002 23959.69198505  2026.99003796
0.37600002 23780.00684645  1479.23539596
0.37700002 23607.71181661  2007.83598512
0.37800002 23442.93664135  1332.73101119
0.37900002 23286.33779721  1725.51771252
0.38000002 23136.28674404  1322.23885006
0.38100002 22992.87280868  1844.48834409
0.38200002 22857.87968934  1707.14082547
0.38300002 22729.10567843  1309.19654910
0.38400002 22607.90900002  2088.97089056
0.38500002 22493.01519978  1693.04933429
0.38600002 22385.88604479  1299.50074646
0.38700002 22284.68122137  2075.14961364
0.38800002 22190.16741836  1553.75559624
0.38900002 22102.30977242  1422.28370124
0.39000002 22021.47613278  1420.71560001
0.39100002 21946.27197933  1419.48493887
0.39200002 21877.94197237  1289.70474037
0.39300002 21815.23850880  1289.28065695
0.39400002 21759.84019828  1289.27059283
0.39500002 21709.11689317  1934.28240682
0.39600002 21664.67276927  1290.13132453
0.39700002 21625.31482589  1291.03135627
0.39800002 21592.89990913  1809.26916911
0.39900002 21564.96697680  1552.67769589
0.40000002 21542.89656794  1814.12740594
0.40100002 21525.80650396  1427.80681306
0.40200002 21514.53491595  1560.66443675
0.40300002 21508.00855045  1433.72391790
0.40400002 21506.51196929  2090.43306246
0.40500002 21509.47713657  1702.90538559
0.40600002 21518.12203969  1576.41769532
0.40700002 21530.93453313  1713.00123262
0.40800002 21548.09900613  1718.56871766
0.40900002 21569.38412693  1326.51718666
0.41000002 21595.64192658  1331.37138786
0.41100002 21625.74018125  1603.76496783
0.41200002 21659.14312958  1610.14077655
0.41300002 21697.79042113  2021.14927350
0.41400002 21739.52345969  1894.59955928
0.41500002 21784.86275781  1631.25060060
0.41600002 21832.98614797  1365.65334826
0.41700002 21885.90331286  1646.69544329
0.41800002 21942.37775372  1654.89420860
0.41900002 22000.32417349  1663.22458633
0.42000002 22061.92103446  1671.85245521
0.42100002 22127.11247278  1540.71091449
0.42200002 22194.84727493  2112.39468949
0.42300002 22264.88475840  1699.25608528
0.42400002 22337.44517633  1708.81463696
0.42500002 22412.91905412  1861.84127405
0.42600002 22489.47060502  2160.67599076
0.42700002 22569.50116691  2173.44306537
0.42800002 22650.83103592  2186.37156935
0.42900002 22734.99474801  1466.40723074
0.43000002 22820.73065338  1622.89633732
0.43100002 22906.67644129  2226.52905560
0.43200002 22995.66590197  1941.63914244
0.43300002 23085.22726961  1803.41803976
0.43400002 23176.65955387  2722.09879360
0.43500002 23268.84937647  1826.13938560
0.43600002 23362.73210324  1684.56987813
0.43700002 23456.96262907  2311.68377664
0.43800002 23551.53468870  1861.04235929
0.43900002 23648.00848886  1872.92236107
0.44000002 23744.28890877  2041.89022147
0.44100002 23841.52765684  2212.97070198
0.44200002 23939.01225352  2067.97167152
0.44300002 24036.92407973  1921.03106349
0.44400002 24134.76974479  2899.79272226
0.44500002 24232.22239725  1783.24933072
0.44600002 24329.58586242  1957.55857126
0.44700002 24427.81052867  1969.85873439
0.44800002 24524.66868277  1982.08381688
0.44900002 24621.88738322  2659.16396341
0.45000002 24718.84085238  2173.89856179
0.45100002 24814.27647021  1850.64882685
0.45200002 24909.64951707  2369.65507086
0.45300002 25003.87894972  2043.31708461
0.45400002 25097.48062564  2055.48376066
0.45500002 25190.41129971  2756.83874330
0.45600002 25281.87769696  2079.68735792
0.45700002 25372.60068053  2963.26617392
0.45800002 25461.69279906  1753.03763230
0.45900002 25549.50909170  2291.79107414
0.46000002 25636.47918798  1950.03888185
0.46100002 25721.14397261  1960.72289796
0.46200002 25804.89130343  2150.57974315
0.46300002 25886.99591055  1981.90850084
0.46400002 25966.78624044  2535.65679656
0.46500002 26046.03267672  2366.80310151
0.46600002 26122.22691688  2195.83449871
0.46700002 26196.77526360  2206.81645280
0.46800002 26269.99291520  2032.90349809
0.46900002 26340.43664067  2414.10113254
0.47000002 26409.07753082  2425.54184078
0.47100002 26475.69300708  2436.82289987
0.47200002 26540.22228077  2071.33174608
0.47300002 26602.38122252  2458.85821294
0.47400002 26661.73490278  1899.64870186
0.47500002 26719.10634052  2289.29313976
0.47600002 26774.80419573  1915.73733101
0.47700002 26826.91210637  2885.23453380
