# SAXS profile: number of points = 501, q_min = 0, q_max = 0.5, delta_q = 0.001
#    q    intensity    error
0.00000000 1682732.95097188 277.65093691
0.00100000 1682650.30543936 706.71314507
0.00200000 1682402.30075370 984.20537711
0.00300000 1681989.18441102 1211.03225592
0.00400000 1681410.79902264 1639.37559134
0.00500000 1680667.67603483 1815.12116196
0.00600000 1679759.69725669 2469.24685550
0.00700000 1678687.46400512 2618.75255268
0.00800000 1677450.79368427 2491.01453379
0.00900000 1676050.90857094 3268.29941143
0.01000000 1674487.17839096 3039.19436001
0.01100000 1672760.94961605 4516.45476061
0.01200000 1670872.09785387 5213.12117387
0.01300000 1668821.81226290 4205.43115238
0.01400000 1666610.10313866 5249.82205762
0.01500000 1664238.40773213 5192.42406334
0.01600000 1661706.12834443 5508.55606171
0.01700000 1659015.59193743 4927.27652909
0.01800000 1656166.61534750 6136.09758597
0.01900000 1653160.10029440 8927.06494440
0.02000000 1649997.01258579 6236.98898971
0.02100000 1646679.49352401 7607.65960500
0.02200000 1643206.09971697 6802.87356190
0.02300000 1639580.09092143 6492.73745559
0.02400000 1635800.98512980 8587.95556352
0.02500000 1631871.27012089 8273.58771737
0.02600000 1627791.01767073 9229.57549234
0.02700000 1623562.55193593 8182.75563654
0.02800000 1619185.36857251 9156.49367919
0.02900000 1614662.27407014 9445.77473701
0.03000000 1609994.64922814 11229.71319454
0.03100000 1605182.86544639 9245.85373040
0.03200000 1600228.24771160 11089.58226741
0.03300000 1595134.55760622 10575.74260448
0.03400000 1589900.18116977 10851.06923716
0.03500000 1584528.24188874 10267.74348158
0.03600000 1579020.07108385 8763.56179951
0.03700000 1573377.45889105 12555.55270261
0.03800000 1567601.86455443 11004.56559846
0.03900000 1561695.61262941 12181.22634262
0.04000000 1555658.33241675 11480.75902524
0.04100000 1549494.13020451 9761.81347291
0.04200000 1543203.75341930 10949.03113847
0.04300000 1536788.45898766 15214.20645019
0.04400000 1530251.49179678 15493.79707400
0.04500000 1523594.36512118 12615.36192937
0.04600000 1516817.00985043 12832.27249987
0.04700000 1509923.76609397 14132.88710793
0.04800000 1502915.08670246 12151.06904136
0.04900000 1495794.99627906 13462.15559314
0.05000000 1488562.72533248 13665.00645488
0.05100000 1481223.01105229 12708.89402686
0.05200000 1473774.03160999 15231.45532649
0.05300000 1466222.38205915 14251.68221800
0.05400000 1458567.33549615 12033.18107900
0.05500000 1450812.05613529 13405.50402405
0.05600000 1442957.26701149 13571.01372952
0.05700000 1435008.46907464 12484.57426371
0.05800000 1426964.13521910 17680.08646089
0.05900000 1418827.28917364 14046.39081887
0.06000000 1410601.72190503 18069.80890180
0.06100000 1402288.59518494 19561.92681699
0.06200000 1393890.31488402 15806.71690965
0.06300000 1385410.02243448 14629.93052093
0.06400000 1376846.29727205 14766.67722883
0.06500000 1368205.89748437 17608.81072433
0.06600000 1359489.17004983 16395.44015792
0.06700000 1350697.93411216 13777.11957270
0.06800000 1341835.49814650 16665.59766708
0.06900000 1332904.07978876 18194.14154095
0.07000000 1323905.17847667 18329.46805435
0.07100000 1314841.49105975 22720.46202969
0.07200000 1305715.21299360 18586.85692770
0.07300000 1296529.69501796 15830.62831792
0.07400000 1287286.63661574 15930.17287467
0.07500000 1277988.04057840 17482.87721458
0.07600000 1268634.91512673 19048.55414364
0.07700000 1259232.77241410 27992.74584330
0.07800000 1249781.53381285 16290.90305723
0.07900000 1240283.82308373 17860.08789011
0.08000000 1230743.49173363 19439.59436386
0.08100000 1221161.57217313 21028.40325944
0.08200000 1211539.59383559 24133.86984169
0.08300000 1201881.43419205 15143.70678154
0.08400000 1192188.62410302 16720.44623788
0.08500000 1182463.58984960 18304.53723018
0.08600000 1172708.18746929 18364.61107802
0.08700000 1162926.23901807 16885.68978346
0.08800000 1153117.53161306 16933.53174700
0.08900000 1143287.29067912 18521.25497894
0.09000000 1133434.83549791 20112.80210072
0.09100000 1123563.99809741 15505.18390220
0.09200000 1113676.25760213 18642.94142823
0.09300000 1103776.39011725 18675.89739840
0.09400000 1093861.57695104 17146.28102454
0.09500000 1083937.29336140 23413.04663708
0.09600000 1074005.11403513 23440.16271569
0.09700000 1064069.18702678 20334.36312006
0.09800000 1054129.23594573 18784.58386776
0.09900000 1044188.42793408 21927.95801772
0.10000000 1034247.23004595 21936.38478088
0.10100000 1024308.29737749 17239.10945565
0.10200000 1014374.68587314 18806.50756068
0.10300000 1004447.46582489 20370.19556516
0.10400000 994529.81179624 26628.53696359
0.10500000 984624.10949384 20352.18130079
0.10600001 974727.89797881 15644.38349868
0.10700001 964848.95206773 20319.71988674
0.10800001 954985.21224677 18736.81074607
0.10900001 945141.22354881 21832.76329155
0.11000001 935316.32075091 18687.62096822
0.11100001 925513.94080402 18658.36192492
0.11200001 915735.17824155 17073.88320210
0.11300001 905981.88362058 23238.43640895
0.11400001 896256.49347881 18552.51028855
0.11500001 886560.68701899 15426.15668052
0.11600001 876895.35182992 15389.51414933
0.11700001 867263.26195322 16885.61650546
0.11800001 857663.80538400 18371.15957658
0.11900001 848099.63617568 21372.11183829
0.12000001 838572.23389551 16742.09543836
0.12100001 829085.91654920 16689.50028635
0.12200001 819638.49729160 19659.03028370
0.12300001 810234.10681243 25619.60366446
0.12400001 800871.27807659 22524.50575720
0.12500001 791553.14997913 20944.49733536
0.12600001 782282.05118374 17882.96853277
0.12700001 773058.01519753 20779.80042779
0.12800001 763882.23940425 17737.34643491
0.12900001 754756.72779431 16189.53257423
0.13000001 745682.66255256 16117.93151079
0.13100001 736659.87706229 14585.86625338
0.13200001 727691.50892660 18872.68017368
0.13300001 718777.90383631 23115.89847713
0.13400001 709919.38422436 18688.62867079
0.13500001 701118.91636308 18593.67453861
0.13600001 692375.91405239 27033.81883884
0.13700001 683692.34821145 16982.91873037
0.13800001 675067.04659540 21112.72287786
0.13900001 666504.09441426 22394.53862840
0.14000001 658002.41213554 20875.12750948
0.14100001 649564.29485225 19370.00818604
0.14200001 641189.15915908 16504.20973518
0.14300001 632879.36198797 16404.23383648
0.14400001 624631.93827731 13585.74529837
0.14500001 616453.02266011 21600.51493295
0.14600001 608340.05951524 16096.67873412
0.14700001 600295.65937680 14659.22069355
0.14800001 592316.76185300 17209.76432757
0.14900001 584407.69427526 17093.92586406
0.15000001 576567.38634621 14365.17710861
0.15100001 568796.76970063 14265.42365721
0.15200001 561097.51426948 18028.06398417
0.15300001 553468.88556744 14063.64504592
0.15400001 545909.68476175 15230.88092361
0.15500001 538423.52147350 13859.02209678
0.15600001 531007.89956840 18757.85493753
0.15700001 523667.48203250 16134.19588290
0.15800001 516396.39378337 13547.66003034
0.15900001 509200.73883950 13442.90013988
0.16000001 502075.78766164 13337.64392880
0.16100001 495026.82878338 13232.06775799
0.16200001 488050.97518658 13126.13159728
0.16300001 481148.68246689 14203.50977694
0.16400001 474321.08375113 12913.39211476
0.16500001 467566.63458492 12806.65072590
0.16600001 460887.31793956 15008.79621731
0.16700001 454281.27919927 20606.19979740
0.16800001 447750.11510623 15890.65233542
0.16900001 441294.45678783 15754.21285121
0.17000001 434911.81096417 17848.78156478
0.17100001 428604.10025495 16586.97946313
0.17200001 422370.44620909 12056.56495638
0.17300001 416211.09793161 10863.11016902
0.17400001 410126.67104443 12918.99074801
0.17500001 404115.11053692 14936.09519084
0.17600001 398176.36010770 16914.53257623
0.17700001 392314.05457252 13617.22147736
0.17800001 386523.27489120 12453.78050521
0.17900001 380805.67615502 13366.27986438
0.18000001 375162.07989853 11204.21604540
0.18100001 369591.72731855 11098.84009565
0.18200001 364091.61902276 12992.61003857
0.18300001 358664.57945749 14848.71429098
0.18400001 353309.06746629 13726.05791949
0.18500001 348025.68505372 12622.89219323
0.18600001 342813.30578035 13462.27915400
0.18700001 337671.00369011 14283.48413091
0.18800001 332597.80002776 10372.06288391
0.18900001 327597.64818938 14004.80012179
0.19000001 322663.13703553 12017.58910670
0.19100001 317800.21399909 10067.91125520
0.19200001 313003.90013761 15404.48767316
0.19300001 308277.80699030 10765.06152878
0.19400001 303617.45303029 9768.89201287
0.19500001 299024.66026055 10549.59051251
0.19600001 294497.46192949 12183.36057576
0.19700001 290038.04624383 10336.95645663
0.19800001 285642.72884622 10231.72303081
0.19900001 281312.70883526 11815.13432946
0.20000001 277045.46866861 8352.92127513
0.20100001 272843.60549881 9093.87780107
0.20200001 268703.48072467 11454.82992469
0.20300001 264626.42820322 9717.08290290
0.20400001 260611.41843675 9616.56179485
0.20500001 256656.96813056 10309.91089712
0.20600001 252763.00321629 8633.12078292
0.20700001 248929.19495895 10096.56862479
0.20800001 245154.23433836 8454.14417079
0.20900001 241440.31289085 9886.98128025
0.21000001 237781.29248753 8278.35608929
0.21100001 234181.17505793 8191.65789077
0.21200001 230636.54839184 9579.48949032
0.21300001 227147.97880218 7291.45046426
0.21400001 223714.95026556 9379.24973330
0.21500001 220337.60481576 8566.72648025
0.21600001 217012.56614655 7063.75936203
0.21700001 213741.39459373 9785.08150714
0.21800001 210522.66656904 6915.66992377
0.21900001 207355.01400306 6842.71578564
0.22000001 204238.08182747 8801.64055252
0.22100001 201172.95771444 8038.87177037
0.22200001 198157.11471713 7954.02696085
0.22300001 195189.78346716 6558.37703461
0.22400001 192270.12102671 7786.94026980
0.22500001 189400.32534138 7062.73846596
0.22600001 186575.27772703 8258.75505913
0.22700001 183797.54159249 8171.63908563
0.22800001 181064.43688083 8085.43281127
0.22900001 178376.05690356 9846.35880672
0.23000001 175731.98045749 7915.84743406
0.23100001 173132.67393507 6025.01733788
0.23200001 170574.11760058 5961.56569208
0.23300001 168058.81759147 8848.29716467
0.23400001 165583.75059770 8171.55847847
0.23500001 163149.35620844 6930.58497952
0.23600001 160755.41536777 6857.82634394
0.23700001 158400.78614031 10178.83499881
0.23800001 156084.33381218 6714.74835820
0.23900001 153805.97868608 6090.71704406
0.24000001 151564.76663859 6026.97323046
0.24100001 149360.91070264 8132.70197245
0.24200001 147193.30849723 7511.27488791
0.24300001 145060.26718719 6371.04723623
0.24400001 142962.12239231 5779.24407109
0.24500001 140897.65267017 6238.94835536
0.24600001 138866.85655164 6688.52246221
0.24700001 136869.63550641 5600.70574987
0.24800001 134904.43449840 5542.54895357
0.24900001 132969.68856269 5983.63626839
0.25000001 131067.21234172 5921.61693374
0.25100001 129194.35287546 4883.54676973
0.25200001 127353.49714706 7249.59816807
0.25300001 125540.23826619 5739.69996508
0.25400001 123756.75152768 6627.17435785
0.25500001 122000.02261614 5621.76130813
0.25600001 120272.35214441 5100.14933399
0.25700001 118570.88253559 5047.56270836
0.25800001 116896.20108924 4541.41762719
0.25900001 115248.48644241 4944.16030231
0.26000001 113625.50283103 4448.43864631
0.26100001 112027.38894099 5723.47957181
0.26200001 110454.97575778 4793.19389981
0.26300001 108905.39954004 5606.45023360
0.26400001 107380.24724615 5548.87453901
0.26500001 105878.27280167 5069.45194162
0.26600001 104398.68392659 4599.28423802
0.26700001 102941.75516141 5379.73637931
0.26800001 101506.94809089 4914.96665914
0.26900001 100092.55428999 4459.12350463
0.27000001 98699.82905370  4413.36306499
0.27100001 97327.47762151  4368.05740236
0.27200001 95975.97781277  4716.25977291
0.27300001 94644.04670675  5056.83165485
0.27400001 93330.00943794  4234.84937866
0.27500001 92037.35500730  4191.38134539
0.27600001 90760.97356898  4148.23049329
0.27700001 89504.85214368  6344.99926875
0.27800001 88265.47084341  4802.08316851
0.27900001 87044.24806190  4021.44445079
0.28000001 85839.96953090  3618.15488697
0.28100001 84652.70643994  3938.89061707
0.28200001 83482.56722790  4961.36920517
0.28300001 82328.65268369  3857.92084735
0.28400001 81190.06758965  3470.87555374
0.28500001 80068.03009183  4808.88611493
0.28600001 78961.15740097  4079.13358441
0.28700001 77870.02277200  4373.18068587
0.28800001 76792.41563157  3661.84651272
0.28900001 75731.28310147  3953.17316501
0.29000001 74683.63278141  3585.93479774
0.29100001 73650.83090670  3548.49720105
0.29200001 72631.70688114  3511.38003538
0.29300001 71626.49268033  5053.96556276
0.29400001 70634.18067646  5000.90022862
0.29500001 69656.36494928  3711.29130018
0.29600001 68690.56198601  3060.16468134
0.29700001 67738.11917152  4239.05169842
0.29800001 66798.77084554  2995.92501425
0.29900001 65872.29614434  3557.10416018
0.30000001 64956.96742438  3226.08793985
0.30100001 64055.29064837  3191.87528411
0.30200001 63164.43440898  3444.98841575
0.30300001 62286.54548628  3408.31993036
0.30400001 61420.03554206  3652.95678680
0.30500001 60565.64281477  3613.95207785
0.30600001 59721.47372353  3575.22619372
0.30700001 58889.66384469  4625.19441733
0.30800001 58068.70011296  3498.92969096
0.30900001 57259.16437477  3727.57177728
0.31000001 56460.79071687  2633.89601164
0.31100001 55672.56343742  3387.11891990
0.31200001 54895.99178548  3092.84032363
0.31300001 54129.20723193  2549.48578133
0.31400001 53374.50628622  2774.14009557
0.31500001 52628.80810445  2993.52674672
0.31600002 51894.91412945  2714.36361206
0.31700002 51170.49896152  3417.16608245
0.31800002 50456.06374507  3621.48414677
0.31900002 49752.56477461  2865.74786671
0.32000002 49059.27842508  3543.30655202
0.32100002 48375.45359475  3037.49487504
0.32200002 47702.59637693  2542.30999429
0.32300002 47038.10587427  2743.26246448
0.32400002 46384.73344557  2487.38144880
0.32500002 45740.58937179  2460.38641881
0.32600002 45106.40117121  2876.20980688
0.32700002 44482.07225147  2407.36986424
0.32800002 43868.12809323  2597.87066870
0.32900002 43261.93847329  2355.61266142
0.33000002 42666.59162503  2542.07564940
0.33100002 42079.73801396  2724.24236803
0.33200002 41503.82047259  3109.67389617
0.33300002 40936.54037284  2666.19700074
0.33400002 40379.22937286  2029.05637207
0.33500002 39830.92726891  2408.97459530
0.33600002 39291.54982300  2582.04431889
0.33700002 38761.41651839  2751.28547477
0.33800002 38241.44501570  2139.03532825
0.33900002 37729.89038819  2116.64695102
0.34000002 37227.51624053  2094.60630047
0.34100002 36734.52996128  2261.37777151
0.34200002 36251.23767770  2424.66414690
0.34300002 35776.33276649  1846.05885818
0.34400002 35311.22710927  2010.09169839
0.34500002 34854.66276290  1989.85279137
0.34600002 34407.80876674  2686.38979669
0.34700002 33968.63362671  2305.11158708
0.34800002 33539.40951177  2282.52462243
0.34900002 33118.57321229  2260.34272879
0.35000002 32707.02656922  1894.22753347
0.35100002 32304.82614397  2217.40337154
0.35200002 31909.95979340  1858.59569620
0.35300002 31525.17863059  2176.18318394
0.35400002 31148.48895008  1824.52282667
0.35500002 30780.84083819  1972.43637433
0.35600002 30421.45313390  2280.69644947
0.35700002 30070.70516800  1614.79694401
0.35800002 29728.89536993  2241.26152810
0.35900002 29396.00633803  1904.86130093
0.36000002 29071.31083702  1889.05386767
0.36100002 28754.55056543  1873.64660359
0.36200002 28447.68901260  1703.87441412
0.36300002 28147.74963771  2305.30080452
0.36400002 27856.82895145  2287.74218600
0.36500002 27573.31110950  1816.52982194
0.36600002 27298.96756148  1803.36988253
0.36700002 27032.26616983  1641.39927958
0.36800002 26774.47444069  2074.75412269
0.36900002 26524.49631519  2060.95346132
0.37000002 26281.91177939  1901.36499775
0.37100002 26047.21696098  1598.77825280
0.37200002 25821.25988627  1878.10942679
0.37300002 25602.74088360  1436.31383161
0.37400002 25391.81660765  1428.28975184
0.37500002 25188.83764961  1846.84566396
0.37600002 24993.64112078  1413.39047233
0.37700002 24805.90343162  1969.09270768
0.37800002 24625.49686195  1679.95147551
0.37900002 24453.39720124  1672.61244780
0.38000002 24287.87322243  2082.07803063
0.38100002 24128.96429308  1659.10766339
0.38200002 23978.51168070  2066.34834197
0.38300002 23834.38568420  1510.14674849
0.38400002 23697.75471395  1915.96355939
0.38500002 23567.46486503  1501.01190836
0.38600002 23445.04084013  1360.98468525
0.38700002 23328.51845170  1493.49182203
0.38800002 23218.66013029  1625.77065934
0.38900002 23115.52673722  2028.38756729
0.39000002 23019.46035502  1620.10969654
0.39100002 22929.04555103  1617.87353073
0.39200002 22845.64444251  2289.47636627
0.39300002 22767.77213579  1345.57539697
0.39400002 22697.30393632  1613.77838633
0.39500002 22631.57041817  1747.60995049
0.39600002 22572.10512197  1613.00270844
0.39700002 22517.87297815  1478.74878854
0.39800002 22470.54761839  1613.83480641
0.39900002 22427.78363557  1749.36720646
0.40000002 22390.95763489  1616.17939866
0.40100002 22359.10277040  2157.20633750
0.40200002 22333.13025794  1755.04912447
0.40300002 22312.02594473  1622.53060358
0.40400002 22295.95981174  1896.27147183
0.40500002 22284.52839875  1492.84062816
0.40600002 22278.76883106  1496.13079174
0.40700002 22277.17853825  1499.69973025
0.40800002 22280.00065997  1503.56591578
0.40900002 22287.15897399  1918.92447858
0.41000002 22299.32867456  1512.22904572
0.41100002 22315.40030523  1930.72852589
0.41200002 22334.76339280  1798.73025507
0.41300002 22359.56942413  1666.23519244
0.41400002 22387.44496963  1532.98036693
0.41500002 22419.05179660  1678.73867807
0.41600002 22453.46773461  2106.69671002
0.41700002 22492.81434244  1551.32947871
0.41800002 22535.88671321  2266.20887526
0.41900002 22580.40520078  1564.82215456
0.42000002 22628.67308365  2000.60108212
0.42100002 22680.75701977  1722.83038486
0.42200002 22735.29223117  2163.83154063
0.42300002 22792.35037613  1739.51226313
0.42400002 22851.95951484  2330.89998097
0.42500002 22914.64423023  1610.67041927
0.42600002 22978.48718054  1618.94939102
0.42700002 23045.85996339  2071.36199166
0.42800002 23114.64311839  1487.42735515
0.42900002 23186.43703791  2243.28788972
0.43000002 23259.88149320  1654.12655077
0.43100002 23333.68723302  1965.62990566
0.43200002 23410.47155148  1824.61223919
0.43300002 23488.11806410  1834.89187012
0.43400002 23567.72275516  2614.24977050
0.43500002 23648.13498815  2474.54096242
0.43600002 23730.36226014  1866.63038384
0.43700002 23813.09167916  1720.97221721
0.43800002 23896.29185572  2517.71342923
0.43900002 23981.38961561  2215.88050549
0.44000002 24066.53703850  1751.20165060
0.44100002 24152.73401366  2401.98951149
0.44200002 24239.23662435  2254.97629003
0.44300002 24326.29224365  2106.17048227
0.44400002 24413.43122464  1955.51593377
0.44500002 24500.32880945  2130.79369754
0.44600002 24587.22947297  1978.28857715
0.44700002 24675.14636605  1823.98690582
0.44800002 24761.78241694  2334.78857474
0.44900002 24848.93535054  2012.76385878
0.45000002 24935.97979731  2192.99484721
0.45100002 25021.59887803  2035.75738120
0.45200002 25107.28089309  1876.64379929
0.45300002 25191.88223075  2573.35089183
0.45400002 25276.04705003  1897.59932221
0.45500002 25359.74173360  2254.98834182
0.45600002 25441.94908326  2267.25940001
0.45700002 25523.62659380  2104.16787612
0.45800002 25603.76596269  1762.81937008
0.45900002 25682.80897669  1949.32529372
0.46000002 25761.06978339  1781.37805995
0.46100002 25837.24958622  2685.78222178
0.46200002 25912.49946215  2159.54780753
0.46300002 25986.28651511  1808.64562717
0.46400002 26057.97517984  2362.80701142
0.46500002 26129.15309385  1826.42788782
0.46600002 26197.50224914  2202.16214344
0.46700002 26264.22925547  1843.74898112
0.46800002 26329.86413786  2407.99783886
0.46900002 26392.73519709  1860.68791958
0.47000002 26453.96768672  3551.04852073
0.47100002 26513.33215758  2064.85840630
0.47200002 26570.73154929  2450.75154061
0.47300002 26625.94558793  2082.41530313
0.47400002 26678.35193788  2090.91593224
0.47500002 26728.98018574  2290.13913086
0.47600002 26778.02593320  2299.16141560
0.47700002 26823.61942660  2307.90432485
