# SAXS profile: number of points = 501, q_min = 0, q_max = 0.5, delta_q = 0.001
#    q    intensity    error
0.00000000 1700912.83420644 357.19169518
0.00100000 1700829.73474073 561.27382579
0.00200000 1700580.37793053 841.78731373
0.00300000 1700165.00061172 1224.11884405
0.00400000 1699583.43825832 1784.56267798
0.00500000 1698836.26049721 2140.53377295
0.00600000 1697923.30658882 2139.38345340
0.00700000 1696845.20306651 2443.45719397
0.00800000 1695601.74300495 2975.78118461
0.00900000 1694194.18867050 3049.54966997
0.01000000 1692621.87119422 3351.39144968
0.01100000 1690886.17235090 3347.95476702
0.01200000 1688986.95114665 4610.93457879
0.01300000 1686925.40027093 3896.79784649
0.01400000 1684701.51519273 4548.69429267
0.01500000 1682316.77337911 6056.34065385
0.01600000 1679770.54944107 4711.75660181
0.01700000 1677065.16330504 5433.69137286
0.01800000 1674200.48072017 5248.61874323
0.01900000 1671177.38198131 8021.65179547
0.02000000 1667996.76527278 5779.60905311
0.02100000 1664660.90366009 5493.38123114
0.02200000 1661168.28496430 6304.13392785
0.02300000 1657522.15783626 7160.49604779
0.02400000 1653722.01121442 7441.74938979
0.02500000 1649770.52104803 8364.33692372
0.02600000 1645667.49999156 10663.92588769
0.02700000 1641415.38249172 6893.94492222
0.02800000 1637013.79067209 10681.51547399
0.02900000 1632465.40151995 11019.14196619
0.03000000 1627771.64822402 7569.13851216
0.03100000 1622932.77168831 10127.10096131
0.03200000 1617950.34468768 11212.39640511
0.03300000 1612828.00565347 9870.50784963
0.03400000 1607564.03636202 9283.68273834
0.03500000 1602161.76228968 11247.17609065
0.03600000 1596622.35675763 10633.50538742
0.03700000 1590947.76396934 9975.24294142
0.03800000 1585139.30770747 13909.59806886
0.03900000 1579199.40749707 12317.75594891
0.04000000 1573127.62394502 18381.99713760
0.04100000 1566928.16559391 11845.97748115
0.04200000 1560601.70793974 11072.46963152
0.04300000 1554149.52045728 10257.38731115
0.04400000 1547574.88253451 14624.58331915
0.04500000 1540879.28295242 11695.27430103
0.04600000 1534062.65323116 11896.65642885
0.04700000 1527129.51865777 12094.86635028
0.04800000 1520079.96286623 15641.62354567
0.04900000 1512918.37648434 11346.88835180
0.05000000 1505643.72559412 16125.44505201
0.05100000 1498261.01704285 14023.72377280
0.05200000 1490768.17647934 13036.76831084
0.05300000 1483171.95450258 15617.80140898
0.05400000 1475471.59257595 18258.96180961
0.05500000 1467670.30673402 14794.11738201
0.05600000 1459768.78435220 13729.12605749
0.05700000 1451772.45104156 18945.63137045
0.05800000 1443679.90050797 16609.53803088
0.05900000 1435494.15327785 14211.39278121
0.06000000 1427218.99662408 14364.95987214
0.06100000 1418855.63127493 19793.03698124
0.06200000 1410406.40415605 14661.17525652
0.06300000 1401874.29471397 13457.99385849
0.06400000 1393258.32897225 16301.12321133
0.06500000 1384564.98713968 15077.91341526
0.06600000 1375794.50307535 17974.75602369
0.06700000 1366949.13204675 13942.88179939
0.06800000 1358031.69738004 15461.19159840
0.06900000 1349044.72893361 14164.97031699
0.07000000 1339989.57522559 15697.97860888
0.07100000 1330869.02780197 15810.72479083
0.07200000 1321685.20223198 14472.45364243
0.07300000 1312441.68505931 20395.34474146
0.07400000 1303139.91151799 14660.32469162
0.07500000 1293782.18843342 19173.85293131
0.07600000 1284369.05654286 20768.24861793
0.07700000 1274906.56060424 19391.32969602
0.07800000 1265394.31244164 22492.38495846
0.07900000 1255835.07933657 18084.02599065
0.08000000 1246232.54149424 18170.07130736
0.08100000 1236588.04193265 16731.03699234
0.08200000 1226903.02732516 19857.42642907
0.08300000 1217180.86729800 19937.42354204
0.08400000 1207424.01777941 16934.12264422
0.08500000 1197634.01086609 18539.37535854
0.08600000 1187813.40805207 17051.06227316
0.08700000 1177965.71309208 20213.89258586
0.08800000 1168090.86491753 17153.41515690
0.08900000 1158193.74248684 17199.17788377
0.09000000 1148274.17974861 18808.73194783
0.09100000 1138335.66724015 15709.03294594
0.09200000 1128379.76790685 18889.07820230
0.09300000 1118411.32007581 18923.52042494
0.09400000 1108427.47623705 18954.11073445
0.09500000 1098433.69589922 22144.42435018
0.09600000 1088431.62788709 15836.68093020
0.09700000 1078425.54019935 22193.99866070
0.09800000 1068414.98339480 15865.96324939
0.09900000 1058402.98746370 17463.65011434
0.10000000 1048390.33745326 19059.73723123
0.10100000 1038379.62071108 17475.92983849
0.10200000 1028373.70438624 20654.88682413
0.10300000 1018373.86033662 20652.62285914
0.10400000 1008383.27922194 17470.24113441
0.10500000 998404.41002729 19049.55703959
0.10600001 988434.47886304 20623.68637189
0.10700001 978481.69785737 22191.96595171
0.10800001 968543.64887185 19002.82728517
0.10900001 958624.99753545 20562.50716492
0.11000001 948725.29502602 22114.78766799
0.11100001 938847.91824009 22081.70407647
0.11200001 928993.61961509 17321.08685315
0.11300001 919164.74007341 18861.26135431
0.11400001 909363.33235615 18823.82186608
0.11500001 899591.41379442 17218.18047079
0.11600001 889849.40490939 21863.60090821
0.11700001 880140.71596947 17136.34054696
0.11800001 870464.27502785 20199.12445337
0.11900001 860822.95861569 17044.29538340
0.12000001 851218.16640889 23174.41567211
0.12100001 841654.28689968 21563.18384617
0.12200001 832129.04161286 21493.89415747
0.12300001 822646.87373273 18361.47908680
0.12400001 813205.96834616 16772.37388741
0.12500001 803809.36707033 19749.59707953
0.12600001 794459.92128342 24215.13954182
0.12700001 785157.20022615 18090.02274573
0.12800001 775902.71214890 22520.57728150
0.12900001 766698.28145794 22425.92578963
0.13000001 757545.23883208 25305.79989597
0.13100001 748443.26560594 19264.93056480
0.13200001 739395.80806992 17701.13647963
0.13300001 730402.94670092 17617.31990496
0.13400001 721464.91871391 14609.66529274
0.13500001 712584.90911691 17444.07939764
0.13600001 703762.42418449 15908.55034879
0.13700001 694999.18537931 18702.42896044
0.13800001 686294.01071561 17171.07695782
0.13900001 677651.61889443 24192.16393539
0.14000001 669069.98987998 14150.83095332
0.14100001 660552.14051773 21104.64188490
0.14200001 652097.13662807 13987.48424040
0.14300001 643707.67942349 16684.90383764
0.14400001 635380.21256770 15201.47230273
0.14500001 627121.43677372 19227.54415849
0.14600001 618928.61812512 19106.32734285
0.14700001 610804.44221447 21695.77481099
0.14800001 602745.93908576 18859.92132378
0.14900001 594757.01981660 16058.44029270
0.15000001 586836.84540874 25254.52483375
0.15100001 578986.83536236 14520.99051606
0.15200001 571207.91284906 15731.06666217
0.15300001 563499.91071465 14318.53340694
0.15400001 555861.04380867 16800.90084197
0.15500001 548295.68087700 15396.14344562
0.15600001 540800.59814632 17830.19656238
0.15700001 533381.01249332 12641.13059271
0.15800001 526030.77212027 20073.33521155
0.15900001 518756.12193821 13695.16226559
0.16000001 511552.38337260 14824.78876990
0.16100001 504424.61884087 14709.02257973
0.16200001 497370.17876892 15808.91187845
0.16300001 490389.35396944 13269.93654486
0.16400001 483483.42858031 15556.08004897
0.16500001 476650.90171146 18989.77282072
0.16600001 469893.76928160 12947.92342387
0.16700001 463209.72287522 12840.17412435
0.16800001 456600.77654524 13889.79627833
0.16900001 450067.66580392 16067.41642787
0.17000001 443607.82641099 11378.54128473
0.17100001 437223.09970105 12408.39215546
0.17200001 430912.39866808 15655.04818289
0.17300001 424676.58025006 15517.68297515
0.17400001 418515.57990399 13183.24138957
0.17500001 412427.73911979 13065.71139238
0.17600001 406413.01516960 16185.39909355
0.17700001 400474.91138143 12831.21676669
0.17800001 394608.57664336 11654.76486164
0.17900001 388815.42905544 12597.62049643
0.18000001 383097.09173506 10401.08653190
0.18100001 377452.01424770 13395.77261842
0.18200001 371877.16719837 12249.63446616
0.18300001 366375.97486004 12134.37286058
0.18400001 360946.42048862 15024.39546260
0.18500001 355589.28726081 10913.03574159
0.18600001 350303.56237530 9826.01538884
0.18700001 345088.02200304 9731.48268025
0.18800001 339941.77877455 11564.81986030
0.18900001 334869.22989561 12406.90555383
0.19000001 329862.39881931 15120.89307632
0.19100001 324927.59975823 10293.70684672
0.19200001 320059.65756572 12045.44578165
0.19300001 315262.33957221 17430.85557860
0.19400001 310530.95417422 9083.03083880
0.19500001 305867.66873999 9891.76087449
0.19600001 301269.96077735 11573.28609017
0.19700001 296740.67943336 15863.75747219
0.19800001 292275.78413209 13959.09210984
0.19900001 287876.42518744 9499.92248015
0.20000001 283540.33912058 11113.36411706
0.20100001 279269.90275099 10154.25414394
0.20200001 275061.56835361 8375.62515223
0.20300001 270916.69676790 14922.09236326
0.20400001 266834.01470270 9025.66097392
0.20500001 262812.52850830 15429.72427804
0.20600001 258851.90348615 8841.08718147
0.20700001 254951.72299184 7954.49413335
0.20800001 251110.83732650 8659.55763454
0.20900001 247331.27632036 9349.12268685
0.21000001 243607.07622497 13107.27935590
0.21100001 239942.26239205 8393.18073525
0.21200001 236333.08974501 7550.84257432
0.21300001 232780.53557337 7472.25554516
0.21400001 229283.99079909 8873.29086342
0.21500001 225843.40738214 8780.79209415
0.21600001 222455.50957842 7965.01989703
0.21700001 219122.14161803 7165.29436968
0.21800001 215841.49104158 9217.51131074
0.21900001 212612.05503624 10524.29722190
0.22000001 209434.02097645 11108.38099782
0.22100001 206308.19996755 6870.06338376
0.22200001 203232.14185132 8157.73855965
0.22300001 200204.95866974 7399.57562233
0.22400001 197225.73158204 7322.00563121
0.22500001 194296.98220454 7245.33480902
0.22600001 191413.32527259 6517.62403374
0.22700001 188577.59163093 9029.09551427
0.22800001 185786.70341959 8296.30563353
0.22900001 183041.10098734 10103.86925232
0.23000001 180340.22376224 9373.18357332
0.23100001 177684.41318959 6801.75965857
0.23200001 175070.03762530 6118.69810438
0.23300001 172499.30269008 7265.67097293
0.23400001 169969.10177761 6590.55223313
0.23500001 167480.13138410 5928.79693141
0.23600001 165032.09344192 7626.95855915
0.23700001 162623.57720299 6966.79437689
0.23800001 160253.87803253 6319.61197912
0.23900001 157922.86812791 7959.31293012
0.24000001 155629.12311674 6751.19168014
0.24100001 153373.44170235 5567.45619714
0.24200001 151154.37781284 6611.49279827
0.24300001 148970.37475296 5997.54757125
0.24400001 146821.63257152 7553.97335313
0.24500001 144707.02240145 5873.65831712
0.24600001 142626.60413247 7398.04230632
0.24700001 140580.22602802 6275.50158676
0.24800001 138566.31363552 7763.17808868
0.24900001 136583.01534485 6658.42231305
0.25000001 134632.81253192 5575.81819479
0.25100001 132712.67082357 5016.53919446
0.25200001 130824.86328782 5957.76455599
0.25300001 128965.04727085 7861.70965357
0.25400001 127135.60411445 6321.81821368
0.25500001 125333.21885735 5294.07541501
0.25600001 123560.47402218 8097.53604816
0.25700001 121814.38491897 4714.21691941
0.25800001 120095.36447874 6065.41666998
0.25900001 118403.98826315 6464.85806505
0.26000001 116737.61568871 5484.33344455
0.26100001 115096.77686048 5880.29460803
0.26200001 113481.84752366 5372.23091597
0.26300001 111890.33320233 4873.94314492
0.26400001 110323.63315702 4823.90108805
0.26500001 108780.64483876 4340.34793445
0.26600001 107260.30432209 6014.08554792
0.26700001 105763.29587946 6377.52704332
0.26800001 104288.71876703 5049.66000165
0.26900001 102834.96469051 4164.81626705
0.27000001 101403.39715626 5770.86760525
0.27100001 99992.66968655  4895.64133953
0.27200001 98603.14168223  4845.35861156
0.27300001 97233.63666048  4395.93292145
0.27400001 95882.52651848  5932.73160910
0.27500001 94553.05415102  5088.84561524
0.27600001 93240.45407958  4648.96926042
0.27700001 91948.65603516  3834.25913813
0.27800001 90673.80332900  4174.16873380
0.27900001 89417.63255477  6008.86519207
0.28000001 88178.67128025  4831.75052148
0.28100001 86957.34602198  4781.78468407
0.28200001 85753.39284934  4004.25486862
0.28300001 84566.31811486  4683.28291886
0.28400001 83394.77199737  4991.17734028
0.28500001 82240.22855880  4233.72716660
0.28600001 81101.29282078  3840.55190331
0.28700001 79978.59084092  5182.61293180
0.28800001 78869.61896644  4102.79777283
0.28900001 77777.80015424  4060.00136023
0.29000001 76699.62873499  4687.11453386
0.29100001 75636.76281224  3975.46844159
0.29200001 74587.91892204  3933.76703015
0.29300001 73553.56597605  3243.71241309
0.29400001 72532.31983638  3851.46636563
0.29500001 71525.93978397  5398.77819046
0.29600001 70532.17257479  4713.31265543
0.29700001 69551.87649178  3730.76283163
0.29800001 68585.24203197  3691.25790090
0.29900001 67631.82059139  4565.14810603
0.30000001 66689.93917530  3312.15598594
0.30100001 65762.01685473  3574.82340546
0.30200001 64845.36455645  2947.22195861
0.30300001 63941.97184636  3498.90486508
0.30400001 63050.37334047  4326.83207533
0.30500001 62171.19522725  3424.38959524
0.30600001 61302.63526473  3387.58378511
0.30700001 60446.77230463  4468.22562030
0.30800001 59602.19003963  3867.58629478
0.30900001 58769.35948373  3279.33041445
0.31000001 57947.99652061  2973.60158224
0.31100001 57137.02049421  4278.42029717
0.31200001 56338.17921012  2645.07763915
0.31300001 55549.39664616  2878.01437650
0.31400001 54773.09679291  4399.64920820
0.31500001 54005.89815360  2815.86766305
0.31600002 53251.06513069  3544.92357359
0.31700002 52505.99071751  4007.25740130
0.31800002 51771.32860172  2724.98400998
0.31900002 51047.79813671  3430.41219721
0.32000002 50334.79023872  2423.62026475
0.32100002 49631.46615943  2876.63991481
0.32200002 48939.60943925  2371.12418961
0.32300002 48256.30853920  2579.78237666
0.32400002 47584.57470775  2783.69775222
0.32500002 46922.18174068  3212.29271407
0.32600002 46270.07874685  2269.54747000
0.32700002 45628.14404956  2693.88575225
0.32800002 44996.93954153  2886.77879298
0.32900002 44373.72619621  2416.14950580
0.33000002 43761.54360468  2390.03681715
0.33100002 43158.21573179  2364.20716974
0.33200002 42566.09232577  2126.17641236
0.33300002 41982.89441307  2313.67742067
0.33400002 41409.85677680  2288.92994173
0.33500002 40846.17336281  2470.37668197
0.33600002 40291.71795590  2240.42108304
0.33700002 39746.73694213  2619.70755592
0.33800002 39212.08347560  2592.11490091
0.33900002 38686.11441766  3156.78708598
0.34000002 38169.67000040  2147.61658428
0.34100002 37662.87872427  2125.31634706
0.34200002 37165.89481094  1912.18537858
0.34300002 36677.44288782  1892.55614264
0.34400002 36199.17532018  2060.63815269
0.34500002 35729.68698520  1854.37084235
0.34600002 35270.17717588  2386.55665163
0.34700002 34818.52144356  2181.03228652
0.34800002 34376.96814366  2159.56124106
0.34900002 33944.09803511  1960.27175437
0.35000002 33520.71066654  1764.86550018
0.35100002 33106.92525979  1922.85031016
0.35200002 32700.63671012  1904.64867539
0.35300002 32304.67038153  2401.52930991
0.35400002 31916.80331934  2209.44081443
0.35500002 31538.31277638  2694.63357124
0.35600002 31168.32133920  2169.78279280
0.35700002 30807.05588520  2812.37626497
0.35800002 30455.07455079  2460.00876336
0.35900002 30112.11672319  1951.26525609
0.36000002 29777.57766790  1934.94708851
0.36100002 29451.05200482  2718.62673934
0.36200002 29134.77945993  1903.66658008
0.36300002 28825.40331211  2832.96077170
0.36400002 28525.31116218  1874.11303213
0.36500002 28232.72408859  1704.97428847
0.36600002 27949.57551383  2461.79872787
0.36700002 27674.11589600  2138.65577775
0.36800002 27407.79223170  1668.72350907
0.36900002 27149.39901793  2410.86674699
0.37000002 26898.54838308  1945.97557495
0.37100002 26655.78080626  1784.87116734
0.37200002 26421.87409399  1921.79510326
0.37300002 26195.54394667  2351.31213604
0.37400002 25976.95253264  1899.56474393
0.37500002 25766.34664917  1743.86642382
0.37600002 25563.81426151  1590.19714147
0.37700002 25368.83396464  1582.25424933
0.37800002 25181.19020851  1861.01595052
0.37900002 25002.13468364  1567.63391893
0.38000002 24829.67821921  1702.81941294
0.38100002 24663.98116257  2261.19390010
0.38200002 24506.86002207  1971.08684495
0.38300002 24356.26308468  2104.38123021
0.38400002 24213.19154614  1398.31187803
0.38500002 24076.50020420  1533.43237065
0.38600002 23947.92767674  1529.19499424
0.38700002 23825.20319018  1663.95226963
0.38800002 23709.31174933  1383.43840611
0.38900002 23600.26269239  1380.61543291
0.39000002 23498.37887367  1791.63398210
0.39100002 23402.12733748  2064.06772895
0.39200002 23313.21440536  1511.74545974
0.39300002 23229.72796733  1372.87698791
0.39400002 23153.87432424  1646.24054245
0.39500002 23082.68815090  1508.22291524
0.39600002 23017.82522012  1644.85386816
0.39700002 22958.42946514  1507.68013441
0.39800002 22905.99984177  1645.10898658
0.39900002 22858.10084304  1782.93195023
0.40000002 22816.26607660  1784.11801039
0.40100002 22779.49553209  1510.96401023
0.40200002 22748.59063032  1787.69807938
0.40300002 22722.68781887  2065.49242060
0.40400002 22701.99554027  2068.71944162
0.40500002 22685.81548891  1519.72285161
0.40600002 22675.44242668  2076.50373861
0.40700002 22669.24920330  1942.30136377
0.40800002 22667.61962002  1529.72438254
0.40900002 22670.35315722  1812.49482080
0.41000002 22678.07423198  1957.34467971
0.41100002 22689.85669683  1822.90317340
0.41200002 22704.88415336  1406.56763995
0.41300002 22725.47223399  1693.50227112
0.41400002 22749.15256992  1416.13481458
0.41500002 22776.58757953  1705.51095877
0.41600002 22806.76888969  1426.56346165
0.41700002 22842.06090661  1432.19728671
0.41800002 22881.13563935  1581.88738738
0.41900002 22921.62835095  1444.06265454
0.42000002 22965.91785940  1885.38711601
0.42100002 23014.08435598  2185.18741315
0.42200002 23064.67957329  1902.49018475
0.42300002 23117.87904652  1911.38633014
0.42400002 23173.56421631  1625.04626767
0.42500002 23232.52426522  1781.47004507
0.42600002 23292.60801849  2088.64825999
0.42700002 23356.12995779  1649.40997578
0.42800002 23421.16404293  2260.72796637
0.42900002 23489.19259117  2121.07419149
0.43000002 23559.04069913  1827.71046405
0.43100002 23629.10414568  1531.16602120
0.43200002 23702.21564411  1539.45897904
0.43300002 23776.22321727  1702.61542527
0.43400002 23852.23982905  1867.63046712
0.43500002 23928.99932450  1721.45229298
0.43600002 24007.67391901  1731.07340996
0.43700002 24086.79563807  2373.75382262
0.43800002 24166.40602879  1909.62949489
0.43900002 24247.97575867  1760.40312350
0.44000002 24329.54751867  1770.33960909
0.44100002 24412.18248778  2104.08610833
0.44200002 24495.15998149  2116.01449528
0.44300002 24578.69044729  1964.32903364
0.44400002 24662.33529985  1975.45315114
0.44500002 24745.71232717  1986.58587977
0.44600002 24829.08128886  1997.74797518
0.44700002 24913.55875692  2009.02947337
0.44800002 24996.64267884  2020.22875705
0.44900002 25080.25300520  2539.37573712
0.45000002 25163.82366288  2383.26585206
0.45100002 25246.05046788  1882.85053313
0.45200002 25328.24789845  1721.05452626
0.45300002 25409.30460924  1903.41109849
0.45400002 25490.09234001  2783.51821545
0.45500002 25570.25660168  1923.90619789
0.45600002 25648.99004645  1758.23835101
0.45700002 25727.20107100  2474.44231628
0.45800002 25803.87044395  2309.57553355
0.45900002 25879.37026616  2499.94728619
0.46000002 25954.18633606  2692.09810530
0.46100002 26026.76178849  2705.48201614
0.46200002 26098.59733522  2537.56673917
0.46300002 26168.91668932  2914.17070064
0.46400002 26237.11865576  2196.04693557
0.46500002 26304.81837877  2390.31895937
0.46600002 26369.69418544  2586.07603133
0.46700002 26432.86042429  2041.14557871
0.46800002 26495.05652885  1863.92731515
0.46900002 26554.34835710  2059.28981270
0.47000002 26612.05921117  2444.18469410
0.47100002 26667.90936545  3209.74972336
0.47200002 26721.82079727  2085.50460297
0.47300002 26773.55468908  2093.95981148
0.47400002 26822.37067848  1911.09400142
0.47500002 26869.49095992  2494.02626911
0.47600002 26915.03236671  1925.77065712
0.47700002 26957.05412640  2126.10295972
