# SAXS profile: number of points = 501, q_min = 0, q_max = 0.5, delta_q = 0.001
#    q    intensity    error
0.00000000 1719190.39626458 335.24212727
0.00100000 1719106.77267690 567.30524846
0.00200000 1718855.84815410 928.18218739
0.00300000 1718437.85433545 1237.27529920
0.00400000 1717852.61949463 1288.38951358
0.00500000 1717100.73794969 1699.92979786
0.00600000 1716182.03198326 2342.58856903
0.00700000 1715097.12949112 2881.36329730
0.00800000 1713845.82518878 3470.53794253
0.00900000 1712429.40984840 3596.10191441
0.01000000 1710847.15459147 2822.89792697
0.01100000 1709100.51939457 3384.01917574
0.01200000 1707189.28540206 3994.82310299
0.01300000 1705114.68532273 3580.74099711
0.01400000 1702876.76490532 5364.06204725
0.01500000 1700476.92348314 5713.60271732
0.01600000 1697914.58539009 4762.65062493
0.01700000 1695192.07014910 5950.12443314
0.01800000 1692309.20976290 5787.69775782
0.01900000 1689266.93792342 6588.14135518
0.02000000 1686066.15136330 7966.66292557
0.02100000 1682709.07754917 6108.23422844
0.02200000 1679194.26179402 6372.54251303
0.02300000 1675524.88596448 9651.02378245
0.02400000 1671700.57232336 8776.42840488
0.02500000 1667723.88842249 7804.94815427
0.02600000 1663594.67087798 6737.55872522
0.02700000 1659315.33764332 7666.03721103
0.02800000 1654885.57492031 8638.50309724
0.02900000 1650308.11668834 9654.30292590
0.03000000 1645584.19290481 9182.36021848
0.03100000 1640714.26543997 9450.51460378
0.03200000 1635699.82211372 8906.38594162
0.03300000 1630544.55648672 10810.51090788
0.03400000 1625246.58762374 8532.54497872
0.03500000 1619809.42521362 12245.75982010
0.03600000 1614234.19257460 9854.90020110
0.03700000 1608522.83465929 10085.43863974
0.03800000 1602676.73996883 14063.48904408
0.03900000 1596698.19803701 12454.24652144
0.04000000 1590586.93212375 12716.74311161
0.04100000 1584347.05790997 16968.35777698
0.04200000 1577979.35428605 13231.35749953
0.04300000 1571485.00710393 14520.52213965
0.04400000 1564867.21787223 12675.42505344
0.04500000 1558127.67277100 13976.40587417
0.04600000 1551266.20115835 17498.28356251
0.04700000 1544287.33682118 12230.75627645
0.04800000 1537191.25735907 13558.02752074
0.04900000 1529982.29272035 11474.86772953
0.05000000 1522659.44469747 17472.51794153
0.05100000 1515227.69682627 13000.65424439
0.05200000 1507685.08133886 15581.92604177
0.05300000 1500038.09233353 17010.43276005
0.05400000 1492286.24393471 18467.04312988
0.05500000 1484432.61738241 13716.15802446
0.05600000 1476478.12215846 15148.66624025
0.05700000 1468427.95356182 15330.38855079
0.05800000 1460280.67544562 18092.87841357
0.05900000 1452039.69290783 16988.86520050
0.06000000 1443708.36392322 13209.93214705
0.06100000 1435288.16296920 24026.72497091
0.06200000 1426781.37179012 21572.93534986
0.06300000 1418190.78861029 14976.09542794
0.06400000 1409515.89605174 13742.78062921
0.06500000 1400762.81808384 19414.57356681
0.06600000 1391931.83629607 18185.59029209
0.06700000 1383025.48137341 22570.97691231
0.06800000 1374046.20491316 22754.20621847
0.06900000 1364996.93554846 17198.96219315
0.07000000 1355878.51435203 21660.16028109
0.07100000 1346694.24766057 20362.01797834
0.07200000 1337445.97963742 16109.53757941
0.07300000 1328137.40608448 16216.55848813
0.07400000 1318770.20308787 17803.39857603
0.07500000 1309346.22818462 17911.85724114
0.07600000 1299866.26220736 21018.83844527
0.07700000 1290336.47241930 18116.32492221
0.07800000 1280756.36504836 21247.74909259
0.07900000 1271128.43779451 21354.95875658
0.08000000 1261456.87907641 16859.37197975
0.08100000 1251742.90222124 18475.72610363
0.08200000 1241987.74110871 23194.12215359
0.08300000 1232194.95379038 18630.78857569
0.08400000 1222366.89363448 17143.69648793
0.08500000 1212505.20818069 20333.71329576
0.08600000 1202612.49918238 17263.50323631
0.08700000 1192692.53138885 18892.25058434
0.08800000 1182744.69261770 23684.46358198
0.08900000 1172773.86706282 15832.44794899
0.09000000 1162780.47630656 22220.73594605
0.09100000 1152767.62992296 15908.19404032
0.09200000 1142736.99824494 17535.30006199
0.09300000 1132693.33105094 23956.46507749
0.09400000 1122633.90296323 19197.04064288
0.09500000 1112564.36696715 19225.11316482
0.09600000 1102485.92867381 17645.28811789
0.09700000 1092403.35879370 17664.16314214
0.09800000 1082315.77126543 16072.38995898
0.09900000 1072226.37579575 25733.43422915
0.10000000 1062136.24907582 17700.50142325
0.10100000 1052047.51278065 22534.85878362
0.10200000 1041963.34372133 22537.66818478
0.10300000 1031884.72759245 22536.36351075
0.10400000 1021815.59850206 19312.31572024
0.10500000 1011757.68051346 19304.33745245
0.10600001 1001708.33474164 17685.16148201
0.10700001 991676.05262078 19278.18337013
0.10800001 981658.22748419 25680.18043954
0.10900001 971659.46280045 17635.62007986
0.11000001 961679.59124702 22416.75232711
0.11100001 951721.92591086 20785.60784034
0.11200001 941786.96648528 20752.27678346
0.11300001 931877.33976885 20715.63423837
0.11400001 921994.93077202 22266.17862653
0.11500001 912141.92196240 23806.90528424
0.11600001 902318.70151404 19002.83274876
0.11700001 892528.84987044 18957.31366404
0.11800001 882770.77068583 22060.44259845
0.11900001 873047.87089353 20429.32114116
0.12000001 863361.42469566 21938.01483490
0.12100001 853715.91502254 15623.00198088
0.12200001 844108.68719706 17131.18661374
0.12300001 834544.83352212 24836.05541575
0.12400001 825021.78276569 21656.82281801
0.12500001 815543.24367394 18496.52163809
0.12600001 806111.89049467 16892.07546133
0.12700001 796726.96638928 16826.87432313
0.12800001 787390.49827819 15236.00685974
0.12900001 778104.00430722 21242.24031878
0.13000001 768868.86991756 22662.41100901
0.13100001 759684.80265446 18050.11176191
0.13200001 750555.54866344 16470.94229186
0.13300001 741480.68427278 20865.26743909
0.13400001 732460.63822406 14832.32862332
0.13500001 723498.89888219 16235.31605638
0.13600001 714594.61678227 16153.41207401
0.13700001 705749.65187447 23374.42957226
0.13800001 696962.65117868 15984.83915856
0.13900001 688239.14095985 21679.53396260
0.14000001 679575.90131141 17247.63718869
0.14100001 670976.86661657 17150.16951957
0.14200001 662440.57497081 18472.15630431
0.14300001 653970.30860649 15538.33526540
0.14400001 645561.88783048 18253.26323941
0.14500001 637222.65943565 18141.72996992
0.14600001 628949.10964058 16641.99422616
0.14700001 620744.60100397 15158.58387165
0.14800001 612606.11217178 17799.27142890
0.14900001 604537.05222118 14962.29274841
0.15000001 596536.97550564 20267.34469908
0.15100001 588607.62665468 13420.25452096
0.15200001 580749.21143859 15993.83403772
0.15300001 572962.25748899 17206.05740433
0.15400001 565244.22384888 17084.50747207
0.15500001 557600.31604517 13047.84801122
0.15600001 550026.78633629 14248.44457250
0.15700001 542529.04968366 18001.11471810
0.15800001 535101.01013863 14038.37566358
0.15900001 527748.63395149 20265.54850028
0.16000001 520467.65555654 15083.15336999
0.16100001 513262.73921759 16213.97069725
0.16200001 506131.43144574 13612.40549132
0.16300001 499074.08442961 14732.66766786
0.16400001 492092.04679800 15833.06235320
0.16500001 485183.72931859 18121.61314559
0.16600001 478351.21775365 16775.77799866
0.16700001 471591.87056304 13072.52726922
0.16800001 464907.95521531 12963.95894329
0.16900001 458300.49083613 12855.32937496
0.17000001 451766.58851239 12746.59489677
0.17100001 445308.00414479 16084.52586924
0.17200001 438923.67610875 17085.10489934
0.17300001 432614.91448632 13549.49976158
0.17400001 426381.14854267 12311.75624561
0.17500001 420220.97670976 13312.60117089
0.17600001 414134.10768543 13194.31329401
0.17700001 408124.51961077 10896.92518828
0.17800001 402186.97833837 15118.20922980
0.17900001 396322.89602875 12840.86243785
0.18000001 390534.31447981 15904.51070844
0.18100001 384819.33171851 14707.79555303
0.18200001 379174.68692153 13530.84934196
0.18300001 373604.47147735 12373.78067986
0.18400001 368106.03331852 13279.42577930
0.18500001 362680.70592472 11130.67139067
0.18600001 357327.15655514 13029.93537936
0.18700001 352043.97208264 17869.75286717
0.18800001 346830.59908001 9832.64794847
0.18900001 341691.47667805 12659.66980906
0.19000001 336618.49554095 12537.35645880
0.19100001 331617.99496035 14325.89805919
0.19200001 326684.76712967 10403.27690081
0.19300001 321822.63749781 15920.56662930
0.19400001 317026.93376242 14836.86120118
0.19500001 312299.81516984 10099.77649986
0.19600001 307638.56314109 9090.71997041
0.19700001 303046.36770517 12600.66856466
0.19800001 298518.95502852 11584.02859733
0.19900001 294057.51677850 12350.41628838
0.20000001 289659.84352281 9606.56916445
0.20100001 285328.41669350 9509.99657786
0.20200001 281059.21900800 10269.90434794
0.20300001 276854.30687509 11860.43906711
0.20400001 272712.00772067 10901.66302391
0.20500001 268631.25500471 14111.20049239
0.20600001 264611.93498477 9859.44116357
0.20700001 260653.46177003 8945.62723080
0.20800001 256754.81977953 8854.19037864
0.20900001 252917.99406524 7966.91718966
0.21000001 249136.99328098 7885.18621009
0.21100001 245415.91074750 8584.64896377
0.21200001 241750.94884951 9268.73181706
0.21300001 238143.06991910 10702.15006811
0.21400001 234591.78471985 8322.14395638
0.21500001 231096.68179502 8985.03941298
0.21600001 227655.01117170 7410.17096398
0.21700001 224268.22111232 10266.99964794
0.21800001 220934.81734753 8709.25091162
0.21900001 217652.73755905 10773.81101858
0.22000001 214422.93150951 8529.74461876
0.22100001 211245.59697075 7034.47871174
0.22200001 208118.71050944 8353.88543486
0.22300001 205041.09172229 7578.31910840
0.22400001 202011.81105544 6817.89894551
0.22500001 199033.67154344 9446.13849813
0.22600001 196100.97552051 10015.85779834
0.22700001 193216.65556273 6608.00993273
0.22800001 190377.71437925 7193.42227800
0.22900001 187584.68147072 7118.83899847
0.23000001 184836.71464174 6404.59246522
0.23100001 182134.43088748 10141.24559142
0.23200001 179473.94316447 9408.92191538
0.23300001 176857.56554592 8690.78118195
0.23400001 174282.10488209 8600.82228271
0.23500001 171748.51457833 6079.89770363
0.23600001 169256.34311665 6017.06328239
0.23700001 166803.92868475 5954.90053570
0.23800001 164390.95600610 5893.41605157
0.23900001 162017.10529344 6999.13927973
0.24000001 159681.12278701 5772.47286179
0.24100001 157383.58628806 6855.62934299
0.24200001 155122.95898009 6785.07854674
0.24300001 152898.17730083 7274.89562010
0.24400001 150708.77781639 7200.11220077
0.24500001 148554.01204254 7674.30062515
0.24600001 146433.94298852 5967.91562881
0.24700001 144348.60980081 10202.56022336
0.24800001 142295.85937179 6377.70071875
0.24900001 140274.29233303 5786.31483247
0.25000001 138286.19897773 5206.47563782
0.25100001 136328.58178669 8245.15301653
0.25200001 134403.92425302 5610.69208338
0.25300001 132507.43327732 6058.24013606
0.25400001 130641.86497300 8994.69282894
0.25500001 128803.59427850 7913.69320688
0.25600001 126995.60984810 4895.68099127
0.25700001 125214.83204232 4845.81422931
0.25800001 123461.15908627 8153.99263765
0.25900001 121735.77757477 8545.85199009
0.26000001 120035.71676807 7049.09780074
0.26100001 118361.71300026 6977.42331151
0.26200001 116713.72240505 5064.79222342
0.26300001 115089.80193360 6380.57892111
0.26400001 113491.05707908 5864.65065207
0.26500001 111916.30182837 7591.28311223
0.26600001 110364.76479821 4420.10903933
0.26700001 108836.56729292 4812.75323343
0.26800001 107331.52780767 4763.91008718
0.26900001 105847.52755135 7716.28512364
0.27000001 104386.14194872 5940.61561942
0.27100001 102945.92750584 5040.23284920
0.27200001 101527.26536404 5820.55839877
0.27300001 100129.15749004 8230.61713519
0.27400001 98749.46491727  4480.75718267
0.27500001 97392.03490667  4435.23347955
0.27600001 96051.82834248  6385.52585041
0.27700001 94732.56000789  3950.34793929
0.27800001 93430.69889647  5083.09741403
0.27900001 92147.71997547  5418.28619099
0.28000001 90882.33547284  4979.89780792
0.28100001 89634.84423735  4170.70949976
0.28200001 88405.23581067  5253.92341289
0.28300001 87192.60804236  4085.84580625
0.28400001 85995.94484915  4411.59217957
0.28500001 84816.65150307  5094.08833038
0.28600001 83653.17735939  5041.77723809
0.28700001 82506.22807595  4989.97691022
0.28800001 81373.27607492  3527.53168482
0.28900001 80257.86723080  3840.33912877
0.29000001 79156.31634564  4837.24272085
0.29100001 78070.27451251  4103.37382261
0.29200001 76998.61740858  4399.31621388
0.29300001 75941.68985208  4353.73728531
0.29400001 74898.20626224  3645.67036239
0.29500001 73869.81747591  4591.74807166
0.29600001 72854.19716926  3570.22010129
0.29700001 71852.40504234  3211.80265743
0.29800001 70864.53663137  3178.27461837
0.29900001 69890.02386319  3459.55634500
0.30000001 68927.34370934  5601.72548844
0.30100001 67978.93444611  4927.11340190
0.30200001 67041.82848665  3047.05124897
0.30300001 66118.42333733  3015.00024692
0.30400001 65206.91495924  3579.85980074
0.30500001 64308.13707753  3542.09235792
0.30600001 63420.08933163  3504.59430238
0.30700001 62544.91893076  3178.53293054
0.30800001 61681.31536594  3430.71492308
0.30900001 60829.71576578  3111.44010873
0.31000001 59989.79440018  4477.63846602
0.31100001 59160.33124268  3322.44435989
0.31200001 58343.21726507  3013.13559831
0.31300001 57536.33815907  2980.95782116
0.31400001 56742.16690065  3485.38776689
0.31500001 55957.22117058  3182.84689088
0.31600002 55184.88602501  3411.25389115
0.31700002 54422.52793303  2855.55017585
0.31800002 53670.56951106  3081.76424724
0.31900002 52929.95783143  2794.70190583
0.32000002 52200.30264975  3016.13362992
0.32100002 51480.23511093  3729.74321039
0.32200002 50771.72367203  3197.85716690
0.32300002 50072.16070979  3163.55926344
0.32400002 49384.20903698  2888.97636546
0.32500002 48705.56268002  2858.04255340
0.32600002 48037.38351426  2827.48052754
0.32700002 47379.70168007  3962.83843617
0.32800002 46732.65598270  3690.01069113
0.32900002 46093.96666943  2509.81660400
0.33000002 45466.27923759  2934.62113236
0.33100002 44847.57351495  2456.75019349
0.33200002 44240.23865408  2872.74003304
0.33300002 43641.89535649  2842.39677917
0.33400002 43053.73090219  2812.48510437
0.33500002 42475.23171462  2140.75177979
0.33600002 41906.02260787  2542.01945177
0.33700002 41346.24437621  2725.13109589
0.33800002 40797.00239768  3319.24427227
0.33900002 40256.60503917  3900.86521303
0.34000002 39725.66477381  2031.96784941
0.34100002 39204.65028813  2815.67811704
0.34200002 38693.39463162  2388.93029769
0.34300002 38190.78762476  2561.83815520
0.34400002 37698.39520747  2731.24886213
0.34500002 37214.95045452  2317.74722408
0.34600002 36741.60668890  2103.64079060
0.34700002 36275.95203489  2272.32574309
0.34800002 35820.81605605  2812.82971402
0.34900002 35374.14265620  2414.28535063
0.35000002 34937.15823232  2207.32976166
0.35100002 34509.78894798  2368.75202558
0.35200002 34089.92407255  1985.56772165
0.35300002 33680.52099424  1967.27932445
0.35400002 33279.20143459  3189.81160859
0.35500002 32887.39868988  2634.28075983
0.35600002 32504.21656946  2088.72105568
0.35700002 32129.67782873  1897.90015924
0.35800002 31764.51802028  1881.57131405
0.35900002 31408.39134676  1865.65853437
0.36000002 31060.82812124  2354.72149140
0.36100002 30721.26226532  1668.16462002
0.36200002 30392.03550659  1820.33105289
0.36300002 30069.68697716  1970.16598406
0.36400002 29756.62120802  1955.01010597
0.36500002 29451.33113008  2101.94160232
0.36600002 29155.24501928  3209.99262867
0.36700002 28866.99219336  1912.14965346
0.36800002 28587.90570446  2689.97911468
0.36900002 28316.75915495  1728.73822830
0.37000002 28053.16410531  2029.50625334
0.37100002 27797.69334310  1706.22249822
0.37200002 27551.20924883  2158.08632269
0.37300002 27312.18646547  2145.09922661
0.37400002 27081.10076678  1827.97438835
0.37500002 26857.90904436  1817.74337023
0.37600002 26642.77954680  1958.64403117
0.37700002 26435.32296882  1648.77117167
0.37800002 26235.09301681  1789.75813039
0.37900002 26043.63226321  1632.93582026
0.38000002 25858.65335623  2068.95095304
0.38100002 25680.58750622  1618.64750720
0.38200002 25511.04092718  1905.29218191
0.38300002 25348.11990024  1898.06730805
0.38400002 25192.67098118  1600.36449990
0.38500002 25043.66736557  2030.03977282
0.38600002 24902.67577269  1734.72047651
0.38700002 24767.73600522  2018.07522531
0.38800002 24639.42904739  1869.02397894
0.38900002 24518.10776878  1434.30937242
0.39000002 24404.02263258  2146.94399281
0.39100002 24295.46856224  1428.57361914
0.39200002 24194.41393431  1711.51292280
0.39300002 24098.69533241  1993.92614627
0.39400002 24010.62887131  1422.62982803
0.39500002 23927.16418736  1847.65570609
0.39600002 23850.22365384  1420.28088588
0.39700002 23778.65389972  1561.54427558
0.39800002 23714.14419026  1845.07907614
0.39900002 23654.12396639  1703.09700627
0.40000002 23600.18919536  1561.50659209
0.40100002 23551.29997702  1704.17214708
0.40200002 23508.31970151  1563.18579261
0.40300002 23470.40379783  1564.53719129
0.40400002 23437.66084036  1850.98935257
0.40500002 23409.55206747  1568.20596730
0.40600002 23387.12105831  1713.34056991
0.40700002 23369.06113209  1716.22393086
0.40800002 23355.36149270  1719.42179456
0.40900002 23346.22262415  1579.37203536
0.41000002 23342.12481099  1439.04206278
0.41100002 23342.04198320  1731.04591549
0.41200002 23345.15577748  2024.72545652
0.41300002 23353.95686833  1740.33694829
0.41400002 23365.74731854  1745.42140740
0.41500002 23381.33414822  1750.79438398
0.41600002 23399.78445106  1756.38790412
0.41700002 23423.31821499  1909.23475817
0.41800002 23450.76066919  1473.88037790
0.41900002 23479.48718252  1775.04931511
0.42000002 23512.11742043  1633.26931400
0.42100002 23548.83683689  1639.70558665
0.42200002 23587.68820897  1496.63888778
0.42300002 23629.35004657  1653.10940759
0.42400002 23673.55255406  1961.94576089
0.42500002 23720.95003295  1667.34565682
0.42600002 23769.64883185  2588.15833570
0.42700002 23821.63542429  1682.28397338
0.42800002 23875.31903813  1843.65222349
0.42900002 23932.05312511  2006.70274963
0.43000002 23990.55811633  1861.18758686
0.43100002 24049.35989119  1870.07831376
0.43200002 24111.19743024  1722.62458203
0.43300002 24174.05984328  1888.47764445
0.43400002 24238.85267924  1897.90225472
0.43500002 24304.62239194  1907.42685571
0.43600002 24372.15330934  2236.63261519
0.43700002 24440.24527822  2248.01386722
0.43800002 24508.98817967  1936.70033774
0.43900002 24579.60065489  1946.70446412
0.44000002 24650.29571344  2119.80228033
0.44100002 24722.09478551  2458.61244293
0.44200002 24794.33086445  2141.85837323
0.44300002 24867.06952977  2318.60567284
0.44400002 24940.09548878  1997.70174332
0.44500002 25012.93186587  2342.71130958
0.44600002 25085.67181360  2354.79212474
0.44700002 25159.76018048  2197.95675353
0.44800002 25232.28471122  2719.03112934
0.44900002 25305.66135216  1878.94544444
0.45000002 25378.94030268  1888.57393213
0.45100002 25450.95940645  1898.13264249
0.45200002 25523.01757163  2254.57586404
0.45300002 25593.89199989  2788.71060447
0.45400002 25664.64089171  2101.93418865
0.45500002 25734.90943446  2464.37504424
0.45600002 25803.75497594  1768.84748743
0.45700002 25872.14738215  2310.64159221
0.45800002 25939.07493227  1964.49593310
0.45900002 26004.87787956  1973.77032460
0.46000002 26070.03412256  2884.38871202
0.46100002 26133.10640608  2173.22923173
0.46200002 26195.44936782  2183.12885378
0.46300002 26256.52235602  2192.94485111
0.46400002 26315.41285456  2386.15017368
0.46500002 26373.92156552  1843.53720481
0.46600002 26429.67707601  1851.39896692
0.46700002 26483.76810428  2045.07666994
0.46800002 26537.04281278  2426.94536547
0.46900002 26587.42907350  1874.41383852
0.47000002 26636.40598599  3010.97947537
0.47100002 26683.61223444  3022.71973718
0.47200002 26728.85911863  2465.33643766
0.47300002 26772.14512809  2284.19953059
0.47400002 26812.60135725  2101.43773098
0.47500002 26851.36200175  2492.34353913
0.47600002 26888.58939182  2885.81799326
0.47700002 26922.57309357  1930.34858230
