# SAXS profile: number of points = 501, q_min = 0, q_max = 0.5, delta_q = 0.001
#    q    intensity    error
0.00000000 1719190.39626458 361.02998322
0.00100000 1719106.77790564 670.45165931
0.00200000 1718855.87074566 1082.87923286
0.00300000 1718437.90690444 1134.16905896
0.00400000 1717852.71301816 1674.90645884
0.00500000 1717100.88725277 2472.62537551
0.00600000 1716182.24577020 1801.99143142
0.00700000 1715097.41537638 2058.11698399
0.00800000 1713846.19645249 3470.53869434
0.00900000 1712429.87391133 2825.50941274
0.01000000 1710847.73893845 3387.47866937
0.01100000 1709101.22445838 3999.29703936
0.01200000 1707190.11772583 4327.72713818
0.01300000 1705115.67980349 3938.81739407
0.01400000 1702877.89169131 4214.62296877
0.01500000 1700478.23394601 4897.37753184
0.01600000 1697916.09493539 5628.59210633
0.01700000 1695193.74917014 7323.23732493
0.01800000 1692311.11341189 5787.70426830
0.01900000 1689269.03949126 7601.71102072
0.02000000 1686068.46856138 7966.67387433
0.02100000 1682711.64256713 5552.94867223
0.02200000 1679197.07778701 6372.55319972
0.02300000 1675527.95408358 9651.04145482
0.02400000 1671703.90857306 6895.77893729
0.02500000 1667727.51183950 9756.20638983
0.02600000 1663598.56391296 8085.08939042
0.02700000 1659319.53162015 9059.88505760
0.02800000 1654890.11192752 9358.40401212
0.02900000 1650312.98655261 10396.97229265
0.03000000 1645589.42421644 9182.38940920
0.03100000 1640719.75794759 10238.09176068
0.03200000 1635705.66457888 11335.44077762
0.03300000 1630550.85081480 10810.55263927
0.03400000 1625253.21898239 9385.83777269
0.03500000 1619816.46174180 9621.71022706
0.03600000 1614241.56087429 8959.04107688
0.03700000 1608530.66621816 10085.48774362
0.03800000 1602684.97835478 13125.99058019
0.03900000 1596706.87200977 16286.41084872
0.04000000 1590596.00610282 10760.38247991
0.04100000 1584356.64281813 12975.88150633
0.04200000 1577989.33572633 13231.44119391
0.04300000 1571495.46736473 11409.05762265
0.04400000 1564878.18459081 15844.39235483
0.04500000 1558139.11150583 11826.27640584
0.04600000 1551278.13763101 12030.16251657
0.04700000 1544299.85568570 15566.54326928
0.04800000 1537204.20439435 12428.29657079
0.04900000 1529995.80518014 14917.45979488
0.05000000 1522673.44243026 13978.14285242
0.05100000 1515242.30819484 14182.66866539
0.05200000 1507700.17567093 14383.46034619
0.05300000 1500053.80133857 13365.47999300
0.05400000 1492302.50440012 13542.64585898
0.05500000 1484449.47418995 14963.25139786
0.05600000 1476495.50314452 15148.84456917
0.05700000 1468445.94944423 17885.67249911
0.05800000 1460299.28848409 16800.74409848
0.05900000 1452058.86019286 14375.38338732
0.06000000 1443728.13803008 15852.13569616
0.06100000 1435308.54627179 16018.04412494
0.06200000 1426802.41742519 18876.59686489
0.06300000 1418212.47054260 14976.32438915
0.06400000 1409538.22446136 13742.99833121
0.06500000 1400785.80941438 15254.55817810
0.06600000 1391955.43444971 16786.98332490
0.06700000 1383049.77102208 15517.81915709
0.06800000 1374071.18995078 21332.45622254
0.06900000 1365022.56689197 14332.73762341
0.07000000 1355904.91136103 18772.50437688
0.07100000 1346721.30023497 14544.59072377
0.07200000 1337473.73795166 14645.33811666
0.07300000 1328165.84267598 17691.16985337
0.07400000 1318799.33323326 23738.38911068
0.07500000 1309376.09147173 19404.95458517
0.07600000 1299896.77558930 18016.57015430
0.07700000 1290367.82933681 22645.95646670
0.07800000 1280788.38406234 15177.34306290
0.07900000 1271161.11884805 19830.11438414
0.08000000 1261490.44314663 19925.24248422
0.08100000 1251777.04483531 18476.23004864
0.08200000 1242022.74301653 20102.13903902
0.08300000 1232230.65716224 20183.93911159
0.08400000 1222403.43637590 24937.03127258
0.08500000 1212542.45883783 17205.97829865
0.08600000 1202650.51994012 21972.42603094
0.08700000 1192731.19838998 22041.67358127
0.08800000 1182784.14784425 18948.20293834
0.08900000 1172814.12108065 20582.88879174
0.09000000 1162821.56079810 17459.76655556
0.09100000 1152809.39825651 17499.64748769
0.09200000 1142779.49724513 23912.66210343
0.09300000 1132736.70047149 23957.38234078
0.09400000 1122678.06053401 20797.61204883
0.09500000 1112609.28042559 25634.51902590
0.09600000 1102531.57310584 19250.20217134
0.09700000 1092449.75019379 24088.51812424
0.09800000 1082362.96046817 16073.09071867
0.09900000 1072274.47131337 22517.76495642
0.10000000 1062184.97390501 24138.15466714
0.10100000 1052097.14505192 16097.08707637
0.10200000 1042013.65274670 24148.66753827
0.10300000 1031935.90341857 20927.66110578
0.10400000 1021867.59381456 19313.29843169
0.10500000 1011810.33570666 27349.23466091
0.10600001 1001761.78898907 20901.76071076
0.10700001 991730.26530106 17672.63415930
0.10800001 981713.17288202 33707.12337722
0.10900001 971715.19187247 24049.95213077
0.11000001 961736.09763303 17614.19745724
0.11100001 951779.21967517 15989.89164324
0.11200001 941845.05005665 19157.12922001
0.11300001 931936.24555228 20716.94371400
0.11400001 922054.57921280 22267.61913645
0.11500001 912202.34892373 25395.71458987
0.11600001 902379.78573022 19004.11918241
0.11700001 892590.64048434 18958.62609674
0.11800001 882833.33357326 23637.86361973
0.11900001 873111.22540235 18859.20335699
0.12000001 863425.44144743 17238.28975051
0.12100001 853780.60657899 18749.02300371
0.12200001 844174.21387010 20247.51947356
0.12300001 834611.07414891 23285.65006584
0.12400001 825088.77384813 17017.45676244
0.12500001 815610.79899208 15415.04482731
0.12600001 806180.26567027 16893.50826320
0.12700001 796796.08939760 18358.18276488
0.12800001 787460.23132849 22856.03429150
0.12900001 778174.31829267 22761.59988286
0.13000001 768939.92714976 19642.57136489
0.13100001 759756.44988269 22564.76762517
0.13200001 750627.92327663 17970.03333036
0.13300001 741553.69138665 19376.79886941
0.13400001 732534.39307375 16317.20437500
0.13500001 723573.20463032 17713.07288449
0.13600001 714669.48766574 17623.75039681
0.13700001 705825.25815504 14610.58353275
0.13800001 697038.77906540 17439.91107461
0.13900001 688315.91097881 20236.48873709
0.14000001 679653.26851132 17249.60076832
0.14100001 671054.81449102 17152.16186734
0.14200001 662519.04329539 18474.34439364
0.14300001 654049.38263514 16952.96079753
0.14400001 645641.46094658 18255.51316937
0.14500001 637302.67947438 26518.16574385
0.14600001 629029.66592649 18031.13622439
0.14700001 620825.62522930 15160.56248332
0.14800001 612687.67626646 17801.64127378
0.14900001 604619.14516125 20405.89711196
0.15000001 596619.54735850 16216.12006233
0.15100001 588690.67766791 16106.57770098
0.15200001 580832.71390374 18662.15597834
0.15300001 573046.15308927 15884.84011322
0.15400001 565328.55108003 17087.05626275
0.15500001 557685.04263777 14354.81367494
0.15600001 550111.85071549 18137.18857407
0.15700001 542614.62673179 14145.96398654
0.15800001 535186.84335352 17869.88954301
0.15900001 527834.77254929 17735.24919477
0.16000001 520554.08456593 20114.21077707
0.16100001 513349.62081248 12474.39637459
0.16200001 506218.66231087 17327.86562888
0.16300001 499161.57648268 13507.31289727
0.16400001 492179.74367143 19490.31876952
0.16500001 485271.75142316 15708.24733517
0.16600001 478439.49723926 16778.87396036
0.16700001 471680.34641692 13074.97982001
0.16800001 464996.61523809 15323.96417871
0.16900001 458389.32757063 16364.49976697
0.17000001 451855.63527145 17385.14638799
0.17100001 445397.28493099 13789.50059262
0.17200001 439013.01760720 14810.10484836
0.17300001 432704.37395305 14681.66010156
0.17400001 426470.72835356 12314.34286277
0.17500001 420310.66909415 16644.30328220
0.17600001 414223.91199594 16496.46807435
0.17700001 408214.39995890 11989.25749305
0.17800001 402276.82347625 10801.13322050
0.17900001 396412.83014033 14984.40568707
0.18000001 390624.19083773 15908.17092329
0.18100001 384909.24325832 10508.02283731
0.18200001 379264.60351768 13534.05801585
0.18300001 373694.33567930 10313.96415197
0.18400001 368195.83785125 10217.43498305
0.18500001 362770.38181722 12145.55295702
0.18600001 357416.72393264 12030.64749594
0.18700001 352133.42789252 10923.17944929
0.18800001 346919.83392462 9835.17775644
0.18900001 341780.63256688 11688.89818606
0.19000001 336707.44326792 10611.33557596
0.19100001 331706.68426668 11463.78354992
0.19200001 326773.27606139 14190.13018347
0.19300001 321910.90138132 11241.12920741
0.19400001 317114.93350353 16696.10203792
0.19500001 312387.54350615 10102.61363439
0.19600001 307726.02766159 10911.96545654
0.19700001 303133.45597861 12604.28969524
0.19800001 298605.70315208 10696.05679239
0.19900001 294143.94717793 10589.18259885
0.20000001 289745.96331726 12230.17768963
0.20100001 285414.00266055 11242.45809614
0.20200001 281144.49127729 9416.93518041
0.20300001 276939.10766358 9321.77080455
0.20400001 272796.25707776 10066.18236195
0.20500001 268715.13886347 13285.27709336
0.20600001 264695.26138111 9040.66707981
0.20700001 260736.32586446 9761.96850180
0.20800001 256837.10621104 9662.21239239
0.20900001 252999.77379085 10360.34122648
0.21000001 249218.18279594 10254.08261587
0.21100001 245496.45246333 7806.78755739
0.21200001 241830.87041814 8499.14634264
0.21300001 238222.36751116 7646.93835862
0.21400001 234670.47684849 12108.99717785
0.21500001 231174.60473701 7490.05754759
0.21600001 227732.34887024 8153.95713681
0.21700001 224344.85159735 8803.29239290
0.21800001 221010.62061127 7260.19923035
0.21900001 217727.83187377 9340.52442902
0.22000001 214497.29273428 8532.70270842
0.22100001 211319.20619188 9148.00886860
0.22200001 208191.45505585 7660.40495100
0.22300001 205113.00863321 10337.69612394
0.22400001 202082.85361543 9548.41528484
0.22500001 199103.89898238 7424.58474414
0.22600001 196170.29708552 9351.43850428
0.22700001 193285.14575043 7932.42275671
0.22800001 190445.18184470 7195.97153630
0.22900001 187651.28717096 10358.35154169
0.23000001 184902.36339298 9610.30079184
0.23100001 182199.15938778 7608.63725587
0.23200001 179537.54962888 6902.32142192
0.23300001 176920.25805120 7451.88162155
0.23400001 174343.80380951 6760.18131244
0.23500001 171809.14919929 6690.24858624
0.23600001 169315.91681466 6019.18112745
0.23700001 166862.38864429 5956.98755635
0.23800001 164448.44114078 7074.57227249
0.23900001 162073.45226532 6418.10901328
0.24000001 159736.36158839 6351.91671901
0.24100001 157437.61233094 6286.48415773
0.24200001 155175.90579427 5656.16203375
0.24300001 152949.94252705 7277.35860968
0.24400001 150759.33479751 5540.40581589
0.24500001 148603.46054699 7128.50833965
0.24600001 146482.15521887 7598.02975063
0.24700001 144395.55907820 8594.42408290
0.24800001 142341.57962034 7974.68737549
0.24900001 140318.81335991 5788.15132492
0.25000001 138329.44593555 5208.10388586
0.25100001 136370.55805108 5670.28807202
0.25200001 134444.65164837 8673.69711145
0.25300001 132546.83990069 5555.03832305
0.25400001 130679.92781023 5498.35822275
0.25500001 128840.45352194 7421.21047398
0.25600001 127031.10284866 6366.16402046
0.25700001 125248.95520734 5816.56175503
0.25800001 123493.93592732 7196.60945667
0.25900001 121767.24557768 5698.70736267
0.26000001 120065.80182763 6110.74927315
0.26100001 118390.42575732 6048.56713814
0.26200001 116741.10403066 5987.06780350
0.26300001 115115.72577431 5014.44125200
0.26400001 113515.62781717 4512.24641924
0.26500001 111939.45825236 5359.66151474
0.26600001 110386.48869626 5305.17489778
0.26700001 108856.98016855 4813.65589084
0.26800001 107350.45929292 6497.38685617
0.26900001 105865.01011177 5145.03973490
0.27000001 104402.16755982 5092.73797457
0.27100001 102960.52699341 5040.94764015
0.27200001 101540.41242105 4989.69610250
0.27300001 100140.89094084 6996.84438116
0.27400001 98759.72873670  4481.22290350
0.27500001 97400.83642739  4435.63430082
0.27600001 96059.13194800  3991.25712133
0.27700001 94738.49206305  5135.77389780
0.27800001 93435.10354716  5474.36297591
0.27900001 92150.65899262  4644.39343304
0.28000001 90883.83065193  4979.97973627
0.28100001 89634.90896502  3791.55682867
0.28200001 88403.85976156  3752.74402449
0.28300001 87189.76152120  5199.99762324
0.28400001 85991.67491623  4778.98755966
0.28500001 84810.84654177  5093.73968439
0.28600001 83645.95498316  4681.24609220
0.28700001 82497.53257315  4633.06164860
0.28800001 81363.07255088  4232.50723443
0.28900001 80246.25454989  4188.85468578
0.29000001 79143.22572890  3800.06216325
0.29100001 78055.78858956  4786.38118287
0.29200001 76982.70314520  3721.72895972
0.29300001 75924.36266895  4352.74391785
0.29400001 74879.37428180  3313.41246881
0.29500001 73849.51590847  4590.48612617
0.29600001 72832.56725758  4218.09833240
0.29700001 71829.31563508  3531.84761697
0.29800001 70840.07653244  3494.89534117
0.29900001 69864.13159616  3772.66328479
0.30000001 68900.03917783  3421.92060776
0.30100001 67950.31138487  3078.14925145
0.30200001 67011.84385685  4568.53267122
0.30300001 66087.14775249  3616.28889622
0.30400001 65174.24941699  2981.72205199
0.30500001 64274.13091170  3540.21929822
0.30600001 63384.74668519  4378.30158456
0.30700001 62508.22888616  4043.03243577
0.30800001 61643.34730503  3428.60313943
0.30900001 60790.47824157  3109.43310927
0.31000001 59949.33244122  3076.30013987
0.31100001 59118.48649182  3873.44341833
0.31200001 58300.23627578  3010.91584502
0.31300001 57492.08276348  2978.66494900
0.31400001 56696.62554653  3214.69882069
0.31500001 55910.56636745  3180.19316555
0.31600002 55136.95517504  3670.46727979
0.31700002 54373.46221357  2852.97569743
0.31800002 53620.36850446  3848.60213163
0.31900002 52878.57084230  3553.44012885
0.32000002 52147.77104486  3515.28141258
0.32100002 51426.59397644  2732.29506734
0.32200002 50717.04290888  2948.68901434
0.32300002 50016.34418991  2430.79444273
0.32400002 49327.37826301  2645.18078461
0.32500002 48647.64414768  4044.07884949
0.32600002 47978.54059909  3059.35178617
0.32700002 47319.82881354  2793.76282544
0.32800002 46671.83242940  2994.23155129
0.32900002 46032.16773075  2734.31089269
0.33000002 45403.55554608  2479.71530357
0.33100002 44783.94738510  3791.40916516
0.33200002 44175.70935395  3309.86518008
0.33300002 43576.50145777  3711.41080491
0.33400002 42987.56228301  2160.12510702
0.33500002 42408.17393722  2992.32089471
0.33600002 41838.17756140  2114.91997588
0.33700002 41277.59438981  2302.05154814
0.33800002 40727.63975279  2485.20069541
0.33900002 40186.47415728  2869.31439071
0.34000002 39654.92052981  2231.18420927
0.34100002 39133.20711978  3212.05379251
0.34200002 38621.25551650  2781.88916660
0.34300002 38118.02232819  1966.89004529
0.34400002 37624.97990376  2531.22064290
0.34500002 37141.06221477  2120.38334226
0.34600002 36667.14056370  2099.37723240
0.34700002 36200.99197546  3212.47618005
0.34800002 35745.30236342  2058.39333409
0.34900002 35298.21884329  2223.78789245
0.35000002 34860.75424672  2753.12819703
0.35100002 34432.93544023  2727.08861603
0.35200002 34012.75610377  2161.17062519
0.35300002 33602.96513204  2141.18103963
0.35400002 33201.30608492  1767.96963276
0.35500002 32809.16531818  1927.21046207
0.35600002 32425.75536267  1736.39928191
0.35700002 32050.95157774  1721.13618125
0.35800002 31685.54837674  2047.52023309
0.35900002 31329.21399650  2199.31092673
0.36000002 30981.53747916  2180.94543415
0.36100002 30641.85739954  2495.77940341
0.36200002 30312.44434651  1815.56394013
0.36300002 29990.10656166  2456.18984374
0.36400002 29676.92025574  2112.25489925
0.36500002 29371.63019841  2257.50360398
0.36600002 29075.54975046  2240.85272541
0.36700002 28787.31844705  2224.68407497
0.36800002 28508.33623143  1735.73013367
0.36900002 28237.28122753  1880.60301884
0.37000002 27973.82578822  1712.41782674
0.37100002 27718.52284418  1856.03237757
0.37200002 27472.21792930  1690.77773255
0.37300002 27233.38840420  2138.91042659
0.37400002 27002.58643701  1822.67467084
0.37500002 26779.62484174  1661.40800388
0.37600002 26564.84324656  1802.69034811
0.37700002 26357.69442426  1494.48134465
0.37800002 26157.80656371  2230.60706039
0.37900002 25966.72034212  1628.11344258
0.38000002 25782.18534625  1473.45196234
0.38100002 25604.57691509  1907.28502476
0.38200002 25435.51914612  1461.27064417
0.38300002 25273.03585003  1601.29962732
0.38400002 25118.13585262  1885.74413847
0.38500002 24969.68856455  1590.31954002
0.38600002 24829.28813556  2594.41244019
0.38700002 24694.98832271  3018.22161579
0.38800002 24567.30545828  2006.90327796
0.38900002 24446.68473761  1716.15734988
0.39000002 24333.30814742  1569.86344950
0.39100002 24225.52683594  1566.90714998
0.39200002 24125.18013276  1991.05121069
0.39300002 24030.24625164  1988.26266906
0.39400002 23942.98836637  1844.20876629
0.39500002 23860.33111192  1984.22522927
0.39600002 23784.28376141  2407.80208066
0.39700002 23713.58990495  1415.70138440
0.39800002 23649.98186912  1981.63207470
0.39900002 23590.88361861  1415.45308418
0.40000002 23537.94926417  1557.38848685
0.40100002 23490.04773785  1841.38492941
0.40200002 23448.05573748  1559.17854014
0.40300002 23411.18013524  1844.33285844
0.40400002 23379.49052153  1988.42576307
0.40500002 23352.46590596  1564.38176516
0.40600002 23331.10502544  1566.80043222
0.40700002 23314.20646412  1569.51245353
0.40800002 23301.64457095  1429.55596216
0.40900002 23293.66489420  1432.56045887
0.41000002 23290.76796958  1723.05109603
0.41100002 23291.86438369  1727.32474454
0.41200002 23296.26167189  1731.84417475
0.41300002 23306.29366967  1592.05299601
0.41400002 23319.40531712  1741.95965973
0.41500002 23336.23522984  1601.79926207
0.41600002 23356.02757462  2045.28743162
0.41700002 23380.85800129  1905.77382599
0.41800002 23409.67741816  1618.42812499
0.41900002 23439.74872983  1772.04508794
0.42000002 23473.78484506  2668.26524977
0.42100002 23511.89293035  2232.45433952
0.42200002 23552.15561009  2092.13808198
0.42300002 23595.28103528  1800.79193394
0.42400002 23640.89890300  1657.81811413
0.42500002 23689.76491013  2119.28646928
0.42600002 23739.95436205  2280.81622341
0.42700002 23793.40984045  1833.04438097
0.42800002 23848.61980712  1688.12463304
0.42900002 23906.82580082  1696.18937095
0.43000002 23966.93033516  2324.19317939
0.43100002 24027.21164166  2024.05240461
0.43200002 24090.63878371  1564.68706315
0.43300002 24155.03099948  1729.74185184
0.43400002 24221.37765968  1896.53396063
0.43500002 24288.76744391  1906.18255933
0.43600002 24357.86665567  1596.65823494
0.43700002 24427.57912855  2246.84883472
0.43800002 24497.90529053  1613.18713983
0.43900002 24570.14190496  1783.79238683
0.44000002 24642.42133148  2119.12512283
0.44100002 24715.85135057  1966.39322664
0.44200002 24789.74484018  1812.00648496
0.44300002 24864.10072575  1655.94918681
0.44400002 24938.77582036  1831.12970139
0.44500002 25013.25503680  2175.40289364
0.44600002 25087.63976082  2018.55159082
0.44700002 25163.36646228  2536.46745960
0.44800002 25237.53826331  2039.69793911
0.44900002 25312.60329737  2392.04112496
0.45000002 25387.51244130  1889.21182785
0.45100002 25461.14854637  2071.51914391
0.45200002 25534.85575140  2082.11223665
0.45300002 25607.38573153  2441.40827135
0.45400002 25679.79548874  1752.64612517
0.45500002 25751.67778094  2465.98078117
0.45600002 25822.17702768  2124.13238297
0.45700002 25892.19940033  1956.67360142
0.45800002 25960.77839339  1966.13964481
0.45900002 26028.16982649  2155.13256377
0.46000002 26094.96903720  2165.36063333
0.46100002 26159.66291671  1994.15119865
0.46200002 26223.60859994  2549.72158502
0.46300002 26286.30243001  1829.52673584
0.46400002 26346.76127413  2205.22402316
0.46500002 26406.85870737  1845.83951113
0.46600002 26464.21246270  2409.96362214
0.46700002 26519.83914421  2234.03135539
0.46800002 26574.72031800  2243.43799558
0.46900002 26626.56955206  2252.60789087
0.47000002 26677.14926230  2827.11102707
0.47100002 26725.85552026  3027.50505683
0.47200002 26772.62255141  2279.42119206
0.47300002 26817.37305835  2669.40144075
0.47400002 26859.33703630  2487.84621091
0.47500002 26899.53612622  2304.75236453
0.47600002 26938.23341543  1927.43069223
0.47700002 26973.69727483  2707.61986078
