# SAXS profile: number of points = 501, q_min = 0, q_max = 0.5, delta_q = 0.001
#    q    intensity    error
0.00000000 1700912.83420644 357.19169518
0.00100000 1700829.65095155 510.24890740
0.00200000 1700580.04002613 765.26104224
0.00300000 1700164.23285936 1020.09857605
0.00400000 1699582.07294307 2676.84186660
0.00500000 1698834.12910985 2293.42616507
0.00600000 1697920.24337369 1961.09796094
0.00700000 1696841.02752270 2443.45118118
0.00800000 1695596.28088452 2975.77159859
0.00900000 1694187.30941778 2541.28107276
0.01000000 1692613.37123705 3351.37461976
0.01100000 1690875.91158282 3956.64980537
0.01200000 1688974.73728328 3622.85097031
0.01300000 1686911.03239733 4251.01598913
0.01400000 1684684.93065978 4548.64951443
0.01500000 1682297.73119174 4441.26620811
0.01600000 1679748.91493617 5996.70389440
0.01700000 1677040.76366743 5433.61231803
0.01800000 1674173.14410054 6202.81177800
0.01900000 1671146.96408674 7520.16167772
0.02000000 1667963.15183068 8406.53466550
0.02100000 1664623.85227796 8789.21433852
0.02200000 1661127.67269371 8023.24702363
0.02300000 1657477.80090683 6563.61239036
0.02400000 1653673.83860551 6201.27717753
0.02500000 1649718.33268740 7077.29197045
0.02600000 1645611.15235912 7331.19801908
0.02700000 1641354.74150911 8961.79729910
0.02800000 1636948.69365581 9256.94528714
0.02900000 1632395.72351135 9549.51542100
0.03000000 1627697.13379977 12110.06723211
0.03100000 1622853.51037481 8568.66692905
0.03200000 1617865.98210143 11211.81177236
0.03300000 1612738.53742288 10692.45699604
0.03400000 1607469.31895791 12658.82147088
0.03500000 1602061.56543560 9516.24613813
0.03600000 1596516.63306146 13291.00158446
0.03700000 1590836.31165331 11788.09761452
0.03800000 1585022.12845729 12054.09384478
0.03900000 1579076.20156914 9474.45764818
0.04000000 1572998.43648534 17413.09349880
0.04100000 1566792.78606720 10857.87451089
0.04200000 1560460.04073220 12077.96127560
0.04300000 1554001.45758999 12307.69211541
0.04400000 1547420.27744711 11489.59609364
0.04500000 1540718.12276490 13820.24220336
0.04600000 1533894.78014178 11895.35457298
0.04700000 1526954.76826078 14292.29729563
0.04800000 1519898.38052232 12288.37897828
0.04900000 1512729.72900173 15883.66289386
0.05000000 1505447.99521756 12668.34546967
0.05100000 1498058.08015926 17527.28035435
0.05200000 1490558.03800963 21329.88651792
0.05300000 1482954.31458103 13213.12355888
0.05400000 1475246.57533453 15822.02025830
0.05500000 1467437.69830359 14791.77268893
0.05600000 1459528.53533051 13726.86651534
0.05700000 1451524.62179226 16416.74423878
0.05800000 1443424.24879275 17884.02727759
0.05900000 1435230.80287207 14208.78561207
0.06000000 1426947.85214212 18279.20283992
0.06100000 1418576.38924510 19789.14155474
0.06200000 1410119.21018285 17323.31530685
0.06300000 1401578.99291557 18837.22254553
0.06400000 1392954.96572483 14939.44270607
0.06500000 1384253.44747499 17815.34270237
0.06600000 1375474.76637826 16588.22645866
0.06700000 1366621.15875691 15333.49011884
0.06800000 1357695.44051609 21078.22270066
0.06900000 1348700.30233084 14161.35383749
0.07000000 1339636.75223264 18547.27170320
0.07100000 1330507.81960445 17243.38214972
0.07200000 1321315.59759185 14468.40647143
0.07300000 1312063.70075737 20389.47086513
0.07400000 1302753.57472833 17587.17408304
0.07500000 1293387.38644479 14744.61689659
0.07600000 1283965.84397015 17795.76743170
0.07700000 1274494.93284672 16402.75055484
0.07800000 1264974.32974823 16488.94116154
0.07900000 1255406.46093363 15064.87823780
0.08000000 1245795.58877992 16650.05882512
0.08100000 1236142.79763798 16725.01283675
0.08200000 1226449.34561080 19850.08359018
0.08300000 1216718.80530702 19929.85496628
0.08400000 1206953.39377081 16927.52214219
0.08500000 1197155.16777719 18531.96286718
0.08600000 1187326.17640061 18593.52879543
0.08700000 1177470.34084843 20205.39199776
0.08800000 1167587.15577411 20263.47604011
0.08900000 1157681.73564125 17191.57458176
0.09000000 1147753.94175761 18800.21044914
0.09100000 1137807.43425774 21982.44066262
0.09200000 1127843.39519971 22026.78254322
0.09300000 1117867.00721420 18914.31065089
0.09400000 1107875.02362563 20523.38577721
0.09500000 1097873.51430953 18971.25521897
0.09600000 1087863.47882181 17411.25579701
0.09700000 1077849.53292140 19013.26665460
0.09800000 1067831.33945717 15857.29613651
0.09900000 1057811.58766760 19040.60947335
0.10000000 1047791.43137480 23811.06139776
0.10100000 1037773.23267384 15877.93120668
0.10200000 1027759.97586554 25406.22779841
0.10300000 1017752.65846832 23815.41332845
0.10400000 1007754.86384845 17459.35383755
0.10500000 997768.92053492 17450.97924121
0.10600001 987791.93468982 17439.46742754
0.10700001 977832.30852014 22177.23780085
0.10800001 967887.39275508 17407.45557792
0.10900001 957961.93816298 23709.55908544
0.11000001 948055.60634436 25256.20254181
0.11100001 938171.59717551 22065.79700428
0.11200001 928311.00712252 23602.30846722
0.11300001 918475.72841542 20417.71640396
0.11400001 908668.15749316 15674.52645478
0.11500001 898890.07499493 17204.75684554
0.11600001 889142.31412131 18725.33801720
0.11700001 879427.76932075 18679.04670006
0.11800001 869745.64741734 20182.44869888
0.11900001 860098.83589148 17029.95775279
0.12000001 850488.57901806 21610.91581083
0.12100001 840919.56778686 15388.82881544
0.12200001 831389.02914405 15339.12831035
0.12300001 821901.96052954 21402.32806055
0.12400001 812456.13402938 16756.90855390
0.12500001 803054.88397091 16695.51182446
0.12600001 793700.96433240 22680.00612456
0.12700001 784393.74690993 16566.39671545
0.12800001 775135.07573815 19498.52374914
0.12900001 765926.60608881 14935.56952268
0.13000001 756769.75226948 19331.68423292
0.13100001 747663.99986620 19244.87226371
0.13200001 738612.92585606 16208.86142200
0.13300001 729616.65298940 26397.53174961
0.13400001 720675.25406090 21890.51187414
0.13500001 711792.16165631 17424.67293889
0.13600001 702966.98182111 14445.97215756
0.13700001 694200.81129744 15806.95321859
0.13800001 685493.09217972 14292.53164592
0.13900001 676848.33194536 22742.10502584
0.14000001 668264.49292075 15547.17416102
0.14100001 659744.57891785 18268.32825182
0.14200001 651287.73505648 15367.13483345
0.14300001 642896.61245097 18052.53772912
0.14400001 634567.70121104 13801.84815237
0.14500001 626307.66813182 15087.75243702
0.14600001 618113.74055418 14992.34948440
0.14700001 609988.62076721 14895.92282187
0.14800001 601929.47426912 13453.12438462
0.14900001 593939.97443812 18709.11007751
0.15000001 586019.34565017 18582.67432735
0.15100001 578169.13687830 18455.15971996
0.15200001 570390.31639422 14399.50421684
0.15300001 562682.47657631 20796.74531564
0.15400001 555044.08756706 20647.64103188
0.15500001 547479.36419978 14092.11949955
0.15600001 539985.01521929 13988.31247943
0.15700001 532566.39286768 18932.73616001
0.15800001 525217.43298405 16284.36727827
0.15900001 517944.07731895 17402.92181934
0.16000001 510741.90246650 17268.18453749
0.16100001 503615.94503720 15909.22845471
0.16200001 496563.33695096 18211.46124237
0.16300001 489584.70205676 15656.91951090
0.16400001 482681.15232835 16724.90271775
0.16500001 475851.29233527 14218.43728625
0.16600001 469096.74584274 22326.66067249
0.16700001 462415.80727172 13983.45467212
0.16800001 455809.97106994 12710.26164342
0.16900001 449280.24075165 17184.97002019
0.17000001 442823.78464340 12494.27367369
0.17100001 436442.79710239 12386.24716666
0.17200001 430136.08936011 14510.64165980
0.17300001 423904.29993877 15489.46385124
0.17400001 417747.58575517 12062.46210834
0.17500001 411664.27257035 17388.69969460
0.17600001 405654.11465488 14001.15242858
0.17700001 399720.89366486 12807.05803791
0.17800001 393859.61933449 11632.64440648
0.17900001 388071.61845813 11525.72761261
0.18000001 382358.67040323 11419.14223098
0.18100001 376719.26369497 11312.88002314
0.18200001 371150.18255494 11206.88029164
0.18300001 365654.83735895 14128.90358299
0.18400001 360231.55168845 10996.06863475
0.18500001 354880.66672354 12871.52239014
0.18600001 349601.49335333 15690.11576295
0.18700001 344392.60064217 15538.99487511
0.18800001 339253.18604811 11541.39393464
0.18900001 334187.62435790 11429.21729304
0.19000001 329188.00590382 10374.36049623
0.19100001 324260.60045099 11206.44688109
0.19200001 319400.15057914 10171.29827580
0.19300001 314610.40484700 12817.22849911
0.19400001 309886.93947754 9970.61274884
0.19500001 305231.64861620 12563.33525072
0.19600001 300642.07446506 8883.97372027
0.19700001 296121.11171077 10553.75692012
0.19800001 291664.69923740 9576.81085205
0.19900001 287273.90670618 9480.03936933
0.20000001 282946.56439564 11090.09111562
0.20100001 278685.06084509 9288.57351697
0.20200001 274485.74928494 10865.51889899
0.20300001 270350.05241910 9099.98319453
0.20400001 266276.73977182 9825.61216200
0.20500001 262264.74620148 12155.97156101
0.20600001 258313.58118560 10426.82819741
0.20700001 254423.17300591 13494.60573411
0.20800001 250592.22522635 8641.67329542
0.20900001 246822.54517834 9329.89264878
0.21000001 243108.50563688 9233.26148057
0.21100001 239453.99650367 9899.02868342
0.21200001 235855.05451321 10549.79708711
0.21300001 232312.96758865 11931.59457942
0.21400001 228826.98469067 7379.67060516
0.21500001 225397.08970448 7302.86605169
0.21600001 222019.89811777 10840.12203811
0.21700001 218697.42303550 7866.54667851
0.21800001 215427.76885265 9907.52355797
0.21900001 212209.40922914 8403.49300280
0.22000001 209042.46860600 10394.63724292
0.22100001 205927.93001810 10971.84063015
0.22200001 202863.17920492 6785.77366527
0.22300001 199847.30843514 8057.84385712
0.22400001 196879.62144903 7309.15629192
0.22500001 193962.43942559 7890.39240895
0.22600001 191090.37196947 6506.62747325
0.22700001 188266.31354967 7082.57905067
0.22800001 185487.21968210 10194.37807582
0.22900001 182753.35392080 7565.98921012
0.23000001 180064.36369605 7487.07659656
0.23100001 177420.54439129 7409.08228418
0.23200001 174818.13025297 7942.86212369
0.23300001 172259.37763813 6046.30444106
0.23400001 169741.32406130 7778.39654299
0.23500001 167264.39348480 8289.62373317
0.23600001 164828.52247804 7031.58510149
0.23700001 162432.19935167 8118.36170758
0.23800001 160074.68620310 10329.61998926
0.23900001 157755.88363599 10222.58174314
0.24000001 155474.43309877 5620.40102237
0.24100001 153230.98023119 6118.51333004
0.24200001 151024.15716529 6055.31386797
0.24300001 148852.45361991 7082.40007825
0.24400001 146716.07206165 7548.54226465
0.24500001 144613.70268479 6403.49505780
0.24600001 142545.60227306 8978.23518389
0.24700001 140511.55943206 6795.13933559
0.24800001 138509.86266290 7242.68106127
0.24900001 136538.87229516 8192.33272527
0.25000001 134600.90706625 5574.49682987
0.25100001 132692.98417014 6018.95404671
0.25200001 130817.39885763 7446.78078228
0.25300001 128969.77092890 8353.37245827
0.25400001 127152.43506767 5349.93895858
0.25500001 125362.17645013 5295.29858378
0.25600001 123601.52959256 7147.25878685
0.25700001 121867.54151454 5187.90148773
0.25800001 120160.49917445 5135.05917518
0.25900001 118481.04089437 6469.06513891
0.26000001 116826.59483125 5031.13754446
0.26100001 115197.59114855 8149.07798343
0.26200001 113594.47699971 4481.30232968
0.26300001 112014.61797992 4879.35699008
0.26400001 110459.68938647 4390.77286088
0.26500001 108928.28000058 5650.11015099
0.26600001 107419.48911589 5162.58089120
0.26700001 105933.77495804 5961.95313676
0.26800001 104470.60409156 6323.08361186
0.26900001 103028.15091182 6258.96046408
0.27000001 101607.84224425 4956.43077922
0.27100001 100208.18591858 4088.49417896
0.27200001 98829.72825071  4856.49307607
0.27300001 97471.15105753  4006.06449805
0.27400001 96130.86164821  5551.55752291
0.27500001 94812.10259525  6280.35397313
0.27600001 93510.16531385  4273.88230793
0.27700001 92228.79466234  4615.12910332
0.27800001 90964.43791573  4948.92047902
0.27900001 89718.56639984  4521.81596056
0.28000001 88489.70668507  4475.80957596
0.28100001 87278.41087638  5537.81543221
0.28200001 86084.51002187  5846.86019742
0.28300001 84907.16143317  4702.15882272
0.28400001 83745.32750193  3938.12421217
0.28500001 82600.35541328  4606.62203944
0.28600001 81470.79523961  3858.04969118
0.28700001 80357.44461258  5554.30683452
0.28800001 79257.59915793  3435.81708612
0.28900001 78174.79465889  3740.66410149
0.29000001 77105.51881209  4038.78726655
0.29100001 76051.40640852  5329.68281339
0.29200001 75011.09201263  3956.08518001
0.29300001 73985.15806145  3589.02018745
0.29400001 72972.24311228  4843.53286585
0.29500001 71974.05464253  3195.64817740
0.29600001 70988.13431727  3478.77368689
0.29700001 70015.72992031  3442.67360315
0.29800001 69056.77661633  5265.23418236
0.29900001 68110.79257388  4597.47871638
0.30000001 67176.26893119  4549.51302874
0.30100001 66255.52622876  3301.51302827
0.30200001 65345.80112254  3266.96348178
0.30300001 64449.27719297  3526.66461496
0.30400001 63564.30728995  3198.87391581
0.30500001 62691.61172743  3453.05413742
0.30600001 61829.41143620  5409.76460972
0.30700001 60979.70821358  3662.44144870
0.30800001 60141.07201085  3066.29270164
0.30900001 59314.00733947  4412.96235498
0.31000001 58498.24894804  3001.83778689
0.31100001 57692.66971908  3780.02389896
0.31200001 56899.11644292  3205.69637217
0.31300001 56115.36090680  3435.94371100
0.31400001 55343.97312374  3138.00342469
0.31500001 54581.46692780  3363.31015133
0.31600002 53831.13601688  2815.63770268
0.31700002 53090.37156580  2785.65192795
0.31800002 52359.85111256  2755.96089380
0.31900002 51640.27694602  2478.73341077
0.32000002 50931.07268051  2697.56439225
0.32100002 50231.32271830  2911.40760261
0.32200002 49542.85068912  2400.35122955
0.32300002 48862.75727279  3087.14915067
0.32400002 48193.97217751  2349.45625490
0.32500002 47534.41271341  2789.31947010
0.32600002 46884.88443184  2759.64442833
0.32700002 46245.45485575  2502.80413531
0.32800002 45616.44669688  2926.52327642
0.32900002 44995.24284177  2672.71755136
0.33000002 44384.97248168  3525.94238091
0.33100002 43783.30315712  3270.61290071
0.33200002 43192.70585504  2588.97091155
0.33300002 42610.78031270  2348.28021424
0.33400002 42038.83396913  2323.69665768
0.33500002 41476.02264703  3553.66578868
0.33600002 40922.35751838  2275.48779757
0.33700002 40377.83213713  3070.73427945
0.33800002 39843.54199880  2228.64862725
0.33900002 39317.76431637  2606.76789763
0.34000002 38801.25490239  2580.08956692
0.34100002 38294.24165540  2357.39362795
0.34200002 37796.89525968  2722.51049449
0.34300002 37307.90078718  2117.59654897
0.34400002 36828.83817668  1905.89246591
0.34500002 36358.42247723  2075.70243753
0.34600002 35897.74936247  1868.47794281
0.34700002 35444.70308829  2220.25630660
0.34800002 35001.74588233  2015.57563209
0.34900002 34567.16419468  1814.77620617
0.35000002 34141.96992921  2696.36220286
0.35100002 33726.12351743  2493.03516848
0.35200002 33317.63175462  2293.41929045
0.35300002 32919.27862132  2971.62342189
0.35400002 32528.91035900  2078.59747039
0.35500002 32147.70428061  2918.36873282
0.35600002 31774.81274324  2552.31195449
0.35700002 31410.54348890  2192.77014482
0.35800002 31055.28867429  2006.79284918
0.35900002 30708.96601346  2155.76951625
0.36000002 30370.92534971  2137.96139126
0.36100002 30040.66932919  1957.45010621
0.36200002 29720.55141812  2265.59774192
0.36300002 29407.22244607  2087.32474809
0.36400002 29102.93801444  1752.72452494
0.36500002 28806.09850264  2372.18232406
0.36600002 28518.47574154  2197.91902951
0.36700002 28238.38912210  1558.75915338
0.36800002 27967.27147288  1702.78740429
0.36900002 27704.02741903  1537.57359459
0.37000002 27448.10604014  1680.23589084
0.37100002 27200.18791934  1517.77055780
0.37200002 26961.01531007  1810.16265367
0.37300002 26729.15872118  1799.40705035
0.37400002 26505.00605796  1639.99732752
0.37500002 26288.72733865  2372.29486742
0.37600002 26080.32086120  1622.32643602
0.37700002 25879.36427925  1907.56803139
0.37800002 25685.71301317  1752.27942477
0.37900002 25500.51754749  2034.94139669
0.38000002 25321.66450327  1736.55983390
0.38100002 25149.60942630  2161.60903259
0.38200002 24985.92639570  2009.61815521
0.38300002 24828.68618674  1573.14563132
0.38400002 24678.88786243  1567.72642573
0.38500002 24535.35232406  1562.65666355
0.38600002 24399.81391194  1699.69111763
0.38700002 24270.07549010  2260.02953671
0.38800002 24147.06308950  1831.67555743
0.38900002 24030.71853874  1686.95652134
0.39000002 23921.60788095  1823.90307929
0.39100002 23817.88352370  1820.63910281
0.39200002 23721.48754954  1678.05810876
0.39300002 23630.48811213  1815.53048767
0.39400002 23547.01048298  2092.74065582
0.39500002 23468.02544890  1394.00077771
0.39600002 23395.43785738  1811.15790754
0.39700002 23328.16304548  1531.96053978
0.39800002 23267.84117484  1531.83839632
0.39900002 23211.99528177  1671.26373947
0.40000002 23162.10525003  1532.52076648
0.40100002 23117.23496330  1951.55706806
0.40200002 23078.24037789  1813.60360602
0.40300002 23044.10790003  1536.12030540
0.40400002 23015.17339190  1537.98903478
0.40500002 22990.76073091  1540.15113434
0.40600002 22972.00890123  1542.68533086
0.40700002 22957.53337853  1545.50122027
0.40800002 22947.50983375  1548.61277451
0.40900002 22941.81658767  1693.10614439
0.41000002 22941.10230938  1838.61473170
0.41100002 22944.41387342  1559.76132902
0.41200002 22950.93556274  1848.35368312
0.41300002 22963.01775888  1711.20416447
0.41400002 22978.13703985  1573.42800836
0.41500002 22997.04412591  1435.01562145
0.41600002 23018.66750009  1727.78126442
0.41700002 23045.44561867  2167.42426314
0.41800002 23075.90204898  1595.35256375
0.41900002 23107.85928801  1601.37472454
0.42000002 23143.58608690  1753.82103677
0.42100002 23183.24066110  1467.49920338
0.42200002 23225.26816273  1621.00766823
0.42300002 23269.93501946  2219.95190605
0.42400002 23317.13372884  1932.40754935
0.42500002 23367.53338617  2090.45963578
0.42600002 23419.16340617  1949.99673342
0.42700002 23474.22964555  1959.15929906
0.42800002 23530.84131610  1817.05165253
0.42900002 23590.49604077  2891.01542679
0.43000002 23651.90714946  1987.82463057
0.43100002 23713.64429128  1843.97306747
0.43200002 23778.47813784  2625.50078801
0.43300002 23844.21172542  1707.48408257
0.43400002 23911.95314001  1716.28051796
0.43500002 23980.60076169  1725.16450055
0.43600002 24051.11966961  1891.86116286
0.43700002 24122.10985660  1901.78723122
0.43800002 24193.78224040  1911.79276323
0.43900002 24267.32229361  1601.64334728
0.44000002 24341.01469644  1771.17401832
0.44100002 24415.77725779  2590.02577425
0.44200002 24490.91845067  2115.64809062
0.44300002 24566.70003427  2454.21344973
0.44400002 24642.70911644  2467.35136721
0.44500002 24718.52626825  2645.87117714
0.44600002 24794.31431598  3158.67182198
0.44700002 24871.41080575  2172.76655096
0.44800002 24947.05471703  2520.27632223
0.44900002 25023.38798040  2195.80239934
0.45000002 25099.70668208  2037.59428502
0.45100002 25174.84835883  2730.96767939
0.45200002 25249.99584326  2230.45848852
0.45300002 25324.08110292  1897.02700532
0.45400002 25397.97430218  1906.75301110
0.45500002 25471.34864255  2090.68839567
0.45600002 25543.39655827  3151.79985070
0.45700002 25615.00897003  1759.75119964
0.45800002 25685.16344124  1945.26594542
0.45900002 25754.28178309  2310.15918543
0.46000002 25822.70130295  1964.20386770
0.46100002 25889.09119998  1973.52551571
0.46200002 25954.81774138  1982.81839533
0.46300002 26019.15542912  2173.11996444
0.46400002 26081.45873335  2183.01819945
0.46500002 26143.33938126  2192.90341123
0.46600002 26202.52735437  1835.48712817
0.46700002 26260.10484474  2949.53511596
0.46800002 26316.81816514  1851.38824567
0.46900002 26370.81478894  2230.97103688
0.47000002 26423.23941573  2053.48214852
0.47100002 26473.96474343  2061.79247194
0.47200002 26522.84871246  2258.15544641
0.47300002 26569.67110308  2266.92444596
0.47400002 26613.72119710  2275.47327020
0.47500002 26656.19588038  2093.57772368
0.47600002 26697.16214978  2101.20024659
0.47700002 26734.79351717  2300.26174325
