# SAXS profile: number of points = 501, q_min = 0, q_max = 0.5, delta_q = 0.001
#    q    intensity    error
0.00000000 1719190.39626458 283.66641538
0.00100000 1719106.76233875 515.73204095
0.00200000 1718855.80377310 1237.57621790
0.00300000 1718437.75599208 1649.70030452
0.00400000 1717852.44296772 1803.74513365
0.00500000 1717100.46094103 1854.46857122
0.00600000 1716181.63111780 1801.99078604
0.00700000 1715096.58604733 2058.11598879
0.00800000 1713845.09899327 3007.79827572
0.00900000 1712428.50462746 2825.50715342
0.01000000 1710846.03200987 3105.18568218
0.01100000 1709099.15771853 3076.37861784
0.01200000 1707187.68573576 3661.91774646
0.01300000 1705112.81594887 3938.81077856
0.01400000 1702874.59960832 4597.76162277
0.01500000 1700474.42536808 6529.82208418
0.01600000 1697911.74117485 4329.67513355
0.01700000 1695188.85297547 4577.01010835
0.01800000 1692305.61158534 6752.29969406
0.01900000 1689262.96558814 5067.78912544
0.02000000 1686061.72384934 6904.42307149
0.02100000 1682704.21056156 6663.50897594
0.02200000 1679188.91614914 6951.84242870
0.02300000 1675519.01092801 6635.05558529
0.02400000 1671694.18689583 9403.28023006
0.02500000 1667717.00797979 9105.73527943
0.02600000 1663587.22676069 6737.52857654
0.02700000 1659307.32406891 9756.72751239
0.02800000 1654876.96883482 9358.32968793
0.02900000 1650298.87009036 8168.97978202
0.03000000 1645574.31458925 7651.92091456
0.03100000 1640703.74660503 8662.91618068
0.03200000 1635688.63961158 12144.98870849
0.03300000 1630532.66366946 10810.43205849
0.03400000 1625234.02326919 10238.97481903
0.03500000 1619796.09340251 11370.96910078
0.03600000 1614220.11296836 12542.49085740
0.03700000 1608508.04003710 13752.74437835
0.03800000 1602661.14134707 11250.68173293
0.03900000 1596681.78623755 11496.10939330
0.04000000 1590569.66627890 11738.40468108
0.04100000 1584328.98077840 9981.27304170
0.04200000 1577960.39440312 11195.62951769
0.04300000 1571465.10685657 13483.17124269
0.04400000 1564846.51712101 12675.25737734
0.04500000 1558106.05063968 16126.39837343
0.04600000 1551243.66179126 17498.02931843
0.04700000 1544263.91140976 13342.44081511
0.04800000 1537166.81673774 16947.26494306
0.04900000 1529956.84476742 20654.41836577
0.05000000 1522633.08298291 17472.21544084
0.05100000 1515200.32789825 15364.13204061
0.05200000 1507656.65821706 14383.04518966
0.05300000 1500008.62283232 12150.07041135
0.05400000 1492255.76075144 16004.44378041
0.05500000 1484401.08605676 16209.66061591
0.05600000 1476445.50030090 17673.05346330
0.05700000 1468394.27741625 12775.03080984
0.05800000 1460245.88073357 16800.12964228
0.05900000 1452003.77190770 15681.64146903
0.06000000 1443671.39266544 14530.55324603
0.06100000 1435249.96666500 13347.82531375
0.06200000 1426742.05567053 16179.25566758
0.06300000 1418150.30481585 14975.66791905
0.06400000 1409474.19269042 19239.32362998
0.06500000 1400719.96999444 20800.69252743
0.06600000 1391887.82932450 19583.86267490
0.06700000 1382980.25419918 21159.59887949
0.06800000 1373999.79368591 18487.16808941
0.06900000 1364949.24503635 15765.16451828
0.07000000 1355829.68773533 15883.54553562
0.07100000 1346644.14830843 14543.75748293
0.07200000 1337394.59139625 20502.26004657
0.07300000 1328084.94829352 16215.91797847
0.07400000 1318716.34374936 16319.11551868
0.07500000 1309291.14843114 17911.10375008
0.07600000 1299809.82803786 19516.64548294
0.07700000 1290278.82825333 16605.88929825
0.07800000 1280697.39595942 16693.89133921
0.07900000 1271068.23260968 18303.38340808
0.08000000 1261395.39695424 15325.95479195
0.08100000 1251680.10708497 18474.79924738
0.08200000 1241923.74021976 15461.95129129
0.08300000 1232129.58191265 18629.80015285
0.08400000 1222300.25534155 20259.62768325
0.08500000 1212437.20723963 15640.44070763
0.08600000 1202543.28112712 18831.82866663
0.08700000 1192621.85699830 18891.13110194
0.08800000 1182672.68923511 23683.02171418
0.08900000 1172700.62580012 25330.33470704
0.09000000 1162705.76014864 19045.12124589
0.09100000 1152691.73777248 19088.57607432
0.09200000 1142659.81016054 20722.13663093
0.09300000 1132614.88069779 15969.87056830
0.09400000 1122554.00208676 19195.67433783
0.09500000 1112483.25163309 22427.66340708
0.09600000 1102403.51511377 16039.97189891
0.09700000 1092319.52254660 17662.80750996
0.09800000 1082230.78216356 25713.80459321
0.09900000 1072140.03277071 17690.31137256
0.10000000 1062048.56480947 22526.05111895
0.10100000 1051958.57240145 20923.45698913
0.10200000 1041873.12900463 22535.71684037
0.10300000 1031793.29099785 19315.17131608
0.10400000 1021722.71679547 17701.34690124
0.10500000 1011663.61945428 19302.54276736
0.10600001 1001613.00761246 20898.65638719
0.10700001 991579.60104822 17669.94932219
0.10800001 981560.43817410 27282.47366301
0.10900001 971560.46678363 30458.42206721
0.11000001 961579.33184092 19212.35595450
0.11100001 951620.43730241 20783.39132903
0.11200001 941684.26420002 17557.70393258
0.11300001 931773.44392047 22306.65729767
0.11400001 921889.87809698 15902.60114594
0.11500001 912035.72786069 19043.30689444
0.11600001 902211.28301734 19000.57051511
0.11700001 892420.20438470 17375.42219766
0.11800001 882661.05246690 20482.15068717
0.11900001 872937.01103881 17284.15363268
0.12000001 863249.39346762 36036.34762779
0.12100001 853602.92112204 20307.21445013
0.12200001 843994.44821478 20243.20779412
0.12300001 834429.56446004 15520.39063019
0.12400001 824905.46918186 21653.76958629
0.12500001 815425.91609417 18493.86064846
0.12600001 805993.49756509 21495.84759302
0.12700001 796607.60504570 18353.84008520
0.12800001 787270.14204902 19803.78135658
0.12900001 777982.60474825 21238.92611066
0.13000001 768746.67381618 16616.46013775
0.13100001 759561.49311975 15039.31827269
0.13200001 750431.35504718 26947.99123008
0.13300001 741355.58564954 17881.49756885
0.13400001 732334.59525880 22244.66437972
0.13500001 723371.99343420 19183.82617036
0.13600001 714466.97232740 16150.52667097
0.13700001 705621.08124037 14606.35707041
0.13800001 696833.36582670 17434.77163513
0.13900001 688108.94655047 20230.40398261
0.14000001 679445.01034204 20118.36770502
0.14100001 670845.24743611 14289.00444430
0.14200001 662308.25552192 19889.11785140
0.14300001 653837.24702207 15535.17372200
0.14400001 645428.17683889 16845.67621010
0.14500001 637088.16209418 13952.23140802
0.14600001 628814.08523863 18024.95660368
0.14700001 620608.93546984 16533.02282089
0.14800001 612469.92596050 15057.57384014
0.14900001 604400.34182400 14958.90916592
0.15000001 596399.70671794 21613.52639125
0.15100001 588469.80318321 17442.24578936
0.15200001 580610.95670586 14657.52429368
0.15300001 572823.51511412 14555.44620591
0.15400001 565105.18070299 15766.43528565
0.15500001 557460.80027783 15653.50001054
0.15600001 549886.88042690 12949.83664522
0.15700001 542388.81409860 12854.61550083
0.15800001 534960.41894308 19138.20989099
0.15900001 527607.77457059 12662.58718738
0.16000001 520326.46056660 12565.88461582
0.16100001 513121.38095112 14962.62017483
0.16200001 505989.80165416 13608.59635790
0.16300001 498932.30457380 17183.22938070
0.16400001 491950.08053920 19481.22410905
0.16500001 485041.75883677 16908.55651132
0.16600001 478209.04505813 16770.79200199
0.16700001 471449.67908669 14256.63896870
0.16800001 464765.69019171 15316.35404345
0.16900001 458158.26772483 14019.64365436
0.17000001 451624.35462327 12742.58176740
0.17100001 445165.80252993 11485.27824762
0.17200001 438781.66481410 12525.02321359
0.17300001 432473.02179840 11287.54640199
0.17400001 426239.30802332 15664.29530962
0.17500001 420079.33191698 18853.16130682
0.17600001 413992.74475535 13189.80947085
0.17700001 407983.27844124 13071.78485865
0.17800001 402046.01173728 14033.41670252
0.17900001 396182.11122616 13905.99276087
0.18000001 390394.07492049 11659.11959822
0.18100001 384679.34607107 12602.09597257
0.18200001 379035.17152650 12485.41913987
0.18300001 373465.28353419 15461.46346870
0.18400001 367967.40341894 13274.42470543
0.18500001 362542.47424911 12137.92261128
0.18600001 357189.37635919 11021.07872824
0.18700001 351906.75917824 11908.52529321
0.18800001 346694.03026802 14743.16433371
0.18900001 341555.43430769 11681.19640523
0.19000001 336483.13970112 12532.31513030
0.19100001 331483.30641882 10501.39164354
0.19200001 326550.71274954 10399.00793888
0.19300001 321689.32074112 9361.15967591
0.19400001 316894.34925605 9269.16015374
0.19500001 312167.96522546 11013.28633359
0.19600001 307507.56826333 13630.27360739
0.19700001 302916.24041708 13494.91914832
0.19800001 298389.70797764 13360.39980609
0.19900001 293929.14627126 12345.02472682
0.20000001 289532.40789926 11348.22326394
0.20100001 285201.90251483 10369.94166555
0.20200001 280933.75558229 11120.76324033
0.20300001 276729.80504971 10161.51892171
0.20400001 272588.50259672 10058.51622124
0.20500001 268508.83359459 9126.61568527
0.20600001 264490.56647329 11497.40546805
0.20700001 260533.26710419 8128.63831788
0.20800001 256635.80822961 12872.85274930
0.20900001 252800.16274949 9555.84660365
0.21000001 249020.38321259 11034.09370176
0.21100001 245300.60780524 11700.83954545
0.21200001 241636.76438955 12352.47197955
0.21300001 238030.15358127 11461.15243677
0.21400001 234480.22196833 8318.18626758
0.21500001 230986.48675954 8980.75502980
0.21600001 227546.06715147 7406.62483595
0.21700001 224160.79868058 8796.07015610
0.21800001 220828.75692310 8705.07000949
0.21900001 217548.10146947 7896.99645672
0.22000001 214319.67366567 7104.69751794
0.22100001 211143.87406185 7734.20047259
0.22200001 208018.52530260 9045.68600050
0.22300001 204942.33323496 7574.66899454
0.22400001 201914.63911917 11584.85296727
0.22500001 198938.04403917 8767.20001538
0.22600001 196006.89799307 7341.43871149
0.22700001 193124.30605931 7265.33673752
0.22800001 190286.90962718 9150.89791672
0.22900001 187495.49901592 8409.17352854
0.23000001 184749.20772472 7041.71638544
0.23100001 182048.58578294 7602.34930183
0.23200001 179389.82018147 10031.47921897
0.23300001 176775.19630142 6204.80968363
0.23400001 174201.46662352 6140.60198890
0.23500001 171669.63686987 6077.10543262
0.23600001 169179.19285687 6615.75264957
0.23700001 166728.59394505 7142.65330244
0.23800001 164317.40213254 8247.09080311
0.23900001 161945.42689499 6996.04277277
0.24000001 159611.24746543 6346.94155568
0.24100001 157315.45024584 7423.71644825
0.24200001 155056.81494663 5651.82117215
0.24300001 152833.71980826 7831.20017341
0.24400001 150646.29997237 7197.12732163
0.24500001 148493.40805605 9314.99192800
0.24600001 146375.25634196 6507.84420482
0.24700001 144291.74707740 6977.94921876
0.24800001 142240.94782389 5843.96961780
0.24900001 140221.28122403 6835.78778305
0.25000001 138235.09547772 7806.82738643
0.25100001 136279.40263392 6181.63399592
0.25200001 134356.67992188 5098.83624426
0.25300001 132462.18911130 6560.85253708
0.25400001 130598.54894447 7493.09210020
0.25500001 128762.28332564 5933.36629636
0.25600001 126956.29472934 4894.16539337
0.25700001 125177.32447344 4844.36268632
0.25800001 123425.66650998 5754.10484495
0.25900001 121702.25451029 6644.94341067
0.26000001 120004.21302300 6107.61471079
0.26100001 118332.11260028 5580.54269428
0.26200001 116686.15208924 5523.92270128
0.26300001 115064.14364016 5923.50239488
0.26400001 113467.42384593 6314.46243582
0.26500001 111894.63700904 5357.51547350
0.26600001 110344.98197136 4861.24841078
0.26700001 108818.82497224 6999.22715342
0.26800001 107315.75015363 6062.26701305
0.26900001 105833.73475527 6000.77304459
0.27000001 104374.19029160 6788.49765781
0.27100001 102935.98241020 4199.78828108
0.27200001 101519.31098302 5404.38077594
0.27300001 100123.03762062 5761.07985733
0.27400001 98745.28201061  4073.24307570
0.27500001 97389.73738721  4838.32238237
0.27600001 96051.49267286  5188.22162226
0.27700001 94734.16651236  4345.45642358
0.27800001 93434.11654054  4301.23975851
0.27900001 92153.12763675  3870.43154392
0.28000001 90889.57275635  5746.49350949
0.28100001 89643.91251579  5687.90651833
0.28200001 88416.09873583  3753.26356898
0.28300001 87205.45120303  6315.41907503
0.28400001 86010.54011815  4044.64584049
0.28500001 84832.98332215  4003.26867245
0.28600001 83671.26363580  4682.66249102
0.28700001 82526.11931525  3565.12852317
0.28800001 81394.93993210  4234.16497568
0.28900001 80281.24412989  4889.12799893
0.29000001 79181.38598554  4493.14796043
0.29100001 78097.15581737  4446.85226273
0.29200001 77027.15418240  3723.87794522
0.29300001 75971.84459901  4020.43020649
0.29400001 74929.98715238  4973.47813267
0.29500001 73903.26124585  3937.56594557
0.29600001 72889.23063832  3571.93691652
0.29700001 71889.05649313  3856.12917283
0.29800001 70902.76095358  4769.98346896
0.29900001 69929.81386303  4090.89430465
0.30000001 68968.62442272  4048.11360213
0.30100001 68021.68282364  3389.52061556
0.30200001 67086.05766487  3353.96761173
0.30300001 66164.07209356  4525.62274545
0.30400001 65254.06247113  3283.91084933
0.30500001 64356.63886122  4135.55780901
0.30600001 63469.97445953  3507.35095468
0.30700001 62596.19378172  3759.52757652
0.30800001 61733.96074742  4292.05382417
0.30900001 60883.59685154  4529.73982021
0.31000001 60045.01286411  4761.86997064
0.31100001 59216.71663566  4988.41644557
0.31200001 58400.86826949  3564.49716359
0.31300001 57595.19023074  3255.28030597
0.31400001 56802.20861975  4025.85672654
0.31500001 56018.33424321  3186.32300262
0.31600002 55247.11301098  2889.70038286
0.31700002 54485.85556102  3118.77051998
0.31800002 53734.97865616  2571.21885044
0.31900002 52995.42029819  2798.15832423
0.32000002 52266.67241454  3019.96847511
0.32100002 51547.59716250  3236.67377909
0.32200002 50840.08090493  2955.84244377
0.32300002 50141.35485032  3411.61794556
0.32400002 49454.33095364  2893.07849778
0.32500002 48776.51508510  2385.17170060
0.32600002 48109.17260641  3775.60804493
0.32700002 47452.25109564  3268.51121024
0.32800002 46806.05619674  3233.83057576
0.32900002 46167.96470974  2513.84579748
0.33000002 45541.01310516  2939.44483007
0.33100002 44922.92080639  2684.59387452
0.33200002 44316.26690627  2213.59763679
0.33300002 43718.52435707  3723.50689582
0.33400002 43130.96952609  2384.06445345
0.33500002 42552.87416664  2788.06444743
0.33600002 41984.24548343  2546.76445163
0.33700002 41424.95570908  2520.29442469
0.33800002 40876.07090767  2702.11279532
0.33900002 40336.13473914  2674.28585985
0.34000002 39805.52940010  2239.65821776
0.34100002 39284.94133366  2418.38110303
0.34200002 38773.98368573  2593.39802164
0.34300002 38271.67218312  2369.78205381
0.34400002 37779.46588124  2541.61368753
0.34500002 37296.30953158  2516.38212327
0.34600002 36823.12177140  2299.97229477
0.34700002 36357.60911979  2467.22747172
0.34800002 35902.60022790  2443.35157423
0.34900002 35456.01984815  2047.58524321
0.35000002 35019.10862855  2581.25861926
0.35100002 34591.81928968  2191.73777400
0.35200002 34171.92177430  1809.40334365
0.35300002 33762.53118768  1972.06954008
0.35400002 33361.14826900  2309.42559830
0.35500002 32969.21794541  1936.61195384
0.35600002 32585.89279072  1744.97464159
0.35700002 32211.19980324  2421.63811591
0.35800002 31845.92800887  2057.88396541
0.35900002 31489.60560259  1870.48266139
0.36000002 31141.80911856  2023.59485237
0.36100002 30801.94113442  2676.07277251
0.36200002 30472.47440201  2322.91683369
0.36300002 30149.81642261  2304.65207651
0.36400002 29836.43968515  1796.89966515
0.36500002 29530.72946659  2269.73197431
0.36600002 29234.29200671  2896.82613216
0.36700002 28945.64947631  2876.03986820
0.36800002 28666.03952018  1745.33189886
0.36900002 28394.46329769  2363.83918151
0.37000002 28130.34941235  1878.54482274
0.37100002 27874.41236509  2022.00996875
0.37200002 27627.36574303  2627.77701713
0.37300002 27387.76693241  1843.74455723
0.37400002 27156.01850942  1680.27872487
0.37500002 26932.20116620  1974.66908305
0.37600002 26716.50237035  1812.98193674
0.37700002 26508.40189755  2555.14497995
0.37800002 26307.55957045  1645.14331567
0.37900002 26115.37232674  1637.43392246
0.38000002 25929.68041059  1630.06943623
0.38100002 25750.84229332  1623.07566664
0.38200002 25580.52783017  1616.56153281
0.38300002 25416.84761791  1610.41154136
0.38400002 25260.62018015  1750.56106142
0.38500002 25110.76038539  2180.86964279
0.38600002 24968.98873045  1739.33983736
0.38700002 24833.19727952  2023.40901019
0.38800002 24704.06957703  1729.77903373
0.38900002 24581.79608952  2157.05270905
0.39000002 24466.84767200  2008.97295752
0.39100002 24357.35372383  1575.43371350
0.39200002 24255.38225593  2430.75324794
0.39300002 24158.73667263  1570.55954550
0.39400002 24069.75988378  1853.97334288
0.39500002 23985.34159713  1424.72935837
0.39600002 23907.41524352  2277.89863232
0.39700002 23834.87567839  1422.94214542
0.39800002 23769.36126883  1707.11560721
0.39900002 23708.32480909  1991.49937832
0.40000002 23653.40336928  1565.02750808
0.40100002 23603.47254935  2561.92103189
0.40200002 23559.48403130  1709.00505260
0.40300002 23520.48557199  1710.40979183
0.40400002 23486.79468680  1712.18741379
0.40500002 23457.60094966  1571.42476207
0.40600002 23434.07543416  1859.84548495
0.40700002 23414.99241370  1719.59712434
0.40800002 23400.26872439  1722.72786512
0.40900002 23390.10813951  1582.34089061
0.41000002 23384.83312035  1874.17753923
0.41100002 23383.72048472  1445.11399443
0.41200002 23385.72523350  1593.62032155
0.41300002 23393.46105206  2033.82760023
0.41400002 23404.17846637  1602.60119642
0.41500002 23418.74403124  2338.12751487
0.41600002 23436.05024809  1759.11001497
0.41700002 23458.61074870  1765.02595637
0.41800002 23484.90890180  1918.83457274
0.41900002 23512.56830507  1777.55024809
0.42000002 23544.08766470  1784.17104777
0.42100002 23579.75728112  1791.11844795
0.42200002 23617.57124138  1498.53496627
0.42300002 23658.17412292  1655.12594007
0.42400002 23701.30767998  2115.34181068
0.42500002 23747.68174747  1669.22462913
0.42600002 23795.34199670  1981.31924524
0.42700002 23846.27780738  1837.11732933
0.42800002 23898.89678340  1537.89408089
0.42900002 23954.65938373  1699.58316381
0.43000002 24012.12218707  1707.62215025
0.43100002 24069.93339427  1715.70493365
0.43200002 24130.77135170  1724.02304092
0.43300002 24192.65186441  1732.43588211
0.43400002 24256.47278964  2532.37587924
0.43500002 24321.27558269  2385.91724773
0.43600002 24387.83286953  1918.34702443
0.43700002 24454.96626902  2410.03704002
0.43800002 24522.79274376  2099.27377231
0.43900002 24592.47168238  2596.96513273
0.44000002 24662.27848838  1957.69175918
0.44100002 24733.15544123  1803.78911181
0.44200002 24804.49626493  2637.21416787
0.44300002 24876.39036389  2485.15151513
0.44400002 24948.51651148  2164.90762288
0.44500002 25020.53847460  1673.87410328
0.44600002 25092.46041426  1850.69450556
0.44700002 25165.73265930  2029.36477782
0.44800002 25237.47562311  1699.74406377
0.44900002 25309.98474301  2050.10886134
0.45000002 25382.54507775  2403.98095824
0.45100002 25453.84342771  1898.34773281
0.45200002 25525.16992611  2428.20953015
0.45300002 25595.32883520  1917.34617391
0.45400002 25665.41091353  2627.49656680
0.45500002 25734.94062391  2288.35102873
0.45600002 25803.11606420  2122.56442804
0.45700002 25870.89569251  2665.99592747
0.45800002 25937.14564207  2142.92707451
0.45900002 26002.39730883  2332.41514914
0.46000002 26066.94268757  2343.28792396
0.46100002 26129.44173292  2897.23263666
0.46200002 26191.21008121  2000.87758899
0.46300002 26251.73557608  2192.54505923
0.46400002 26310.12991663  2385.67114326
0.46500002 26368.12650697  2027.44534321
0.46600002 26423.38799875  2406.24594215
0.46700002 26477.05082601  2788.03358412
0.46800002 26529.89044251  2239.65345731
0.46900002 26579.87550778  2998.21009938
0.47000002 26628.40170631  2257.55600366
0.47100002 26675.22836804  2644.04876116
0.47200002 26720.12058242  2464.53043873
0.47300002 26763.07024442  2093.13982303
0.47400002 26803.15531337  2100.69739725
0.47500002 26841.63453875  2299.79135628
0.47600002 26878.60243750  3077.06255289
0.47700002 26912.31336589  2701.45814371
