# SAXS profile: number of points = 501, q_min = 0, q_max = 0.5, delta_q = 0.001
#    q    intensity    error
0.00000000 1700912.83420644 357.19169518
0.00100000 1700829.72575876 612.29871581
0.00200000 1700580.34334887 765.26117874
0.00300000 1700164.92032526 1734.16828051
0.00400000 1699583.29017157 1402.15626767
0.00500000 1698836.03719509 1834.74299279
0.00600000 1697922.98574205 2139.38304913
0.00700000 1696844.76547835 2239.83518352
0.00800000 1695601.16702689 2975.78017377
0.00900000 1694193.46838780 2795.41934234
0.01000000 1692620.98229663 3072.10721552
0.01100000 1690885.09925495 3956.67130453
0.01200000 1688985.67053673 3622.87442214
0.01300000 1686923.86739155 4605.30236109
0.01400000 1684699.77654998 4169.63213180
0.01500000 1682314.76754201 5248.82230846
0.01600000 1679768.29465857 5140.09121144
0.01700000 1677062.61833482 4528.06927263
0.01800000 1674197.61146284 6680.04877032
0.01900000 1671174.17935496 5514.87504072
0.02000000 1667993.25431531 6830.43268540
0.02100000 1664657.02941874 6042.70529076
0.02200000 1661164.04331737 6877.21945178
0.02300000 1657517.52840693 5967.06337388
0.02400000 1653716.96996453 6821.58281215
0.02500000 1649765.11453596 7720.90108865
0.02600000 1645661.64669930 6664.92997397
0.02700000 1641409.05051813 6893.91832793
0.02800000 1637007.01115269 9969.37315511
0.02900000 1632458.17556432 8080.66834006
0.03000000 1627763.94461920 11353.65403559
0.03100000 1622924.54816297 10127.04964651
0.03200000 1617941.57220718 9610.57338156
0.03300000 1612818.81616033 10692.98924409
0.03400000 1607554.30081321 8439.66046868
0.03500000 1602151.49822319 11247.10403690
0.03600000 1596611.50375818 10633.43310644
0.03700000 1590936.29111748 13602.50591814
0.03800000 1585127.27965463 9272.99501513
0.03900000 1579186.69781082 10422.63268822
0.04000000 1573114.40695320 14511.98107661
0.04100000 1566914.33355857 10858.71683504
0.04200000 1560587.24686120 10065.78820924
0.04300000 1554134.45688552 11283.01668072
0.04400000 1547559.15413919 11490.62725313
0.04500000 1540862.93623156 11695.15022941
0.04600000 1534045.62630473 11896.52438503
0.04700000 1527111.82946008 12094.72625182
0.04800000 1520061.66640137 13406.94452146
0.04900000 1512899.37897777 11346.74587050
0.05000000 1505624.03138284 13821.62925171
0.05100000 1498240.66640946 11686.27774239
0.05200000 1490747.13716990 13036.58432207
0.05300000 1483150.17208004 18020.27543084
0.05400000 1475449.14209157 19475.92958385
0.05500000 1467647.11911503 18492.35456350
0.05600000 1459744.94458375 13728.90184446
0.05700000 1451747.87710759 12630.20712040
0.05800000 1443654.61803232 16609.24715599
0.05900000 1435468.22066126 12919.21458935
0.06000000 1427192.28363582 13058.81000536
0.06100000 1418828.17770420 14514.61293620
0.06200000 1410378.28426377 18659.30557301
0.06300000 1401845.39879423 16149.25974917
0.06400000 1393228.73672680 14942.37890020
0.06500000 1384534.69847566 19189.65181852
0.06600000 1375763.47166337 22122.27765942
0.06700000 1366917.38677389 20913.83699639
0.06800000 1357999.25581623 18271.88084230
0.06900000 1349011.73681178 16997.54867964
0.07000000 1339955.72250100 17124.63493548
0.07100000 1330834.46043361 24434.12183800
0.07200000 1321649.89721149 24602.51398914
0.07300000 1312405.62899957 20394.78443026
0.07400000 1303103.17935326 14659.91145475
0.07500000 1293744.89397006 17698.43097908
0.07600000 1284331.07774225 25217.84189370
0.07700000 1274867.89249301 16407.55054571
0.07800000 1265355.09000701 16493.90437174
0.07900000 1255795.04724482 16576.49540113
0.08000000 1246191.95327613 18169.47953112
0.08100000 1236546.75385396 15209.52578601
0.08200000 1226861.13869927 16801.86408292
0.08300000 1217138.39401136 16869.53893272
0.08400000 1207380.77526230 23091.15841076
0.08500000 1197590.24140587 23173.37225908
0.08600000 1187768.96386426 15500.38570620
0.08700000 1177920.75684413 18658.26566456
0.08800000 1168045.28695524 18712.08637581
0.08900000 1158147.47636633 23452.48749797
0.09000000 1148227.57703503 21942.63002791
0.09100000 1138288.52625507 15708.38240032
0.09200000 1128331.93090681 26758.39299874
0.09300000 1118363.07098361 18922.70405026
0.09400000 1108378.63064588 25271.03396640
0.09500000 1098384.43424345 17398.41025619
0.09600000 1088381.83742581 19003.14777475
0.09700000 1078375.24701455 17437.32856400
0.09800000 1068364.27567278 25384.33638350
0.09900000 1058351.85409476 20637.86212529
0.10000000 1048338.73573921 23823.49889003
0.10100000 1038327.64440015 17475.05507714
0.10200000 1028321.42149594 20653.83672223
0.10300000 1018321.07738527 27005.87624263
0.10400000 1008330.27192879 19057.44303601
0.10500000 998350.98604391 20635.91585243
0.10600001 988380.73270171 26967.96956070
0.10700001 978427.68436962 17435.58215594
0.10800001 968489.37292563 20585.24259031
0.10900001 958570.40426844 20561.33613929
0.11000001 948670.47105801 17374.90049526
0.11100001 938792.79939183 20503.23570387
0.11200001 928938.30247569 28341.90894279
0.11300001 919109.28699310 17288.44650229
0.11400001 909307.60139263 25096.89098011
0.11500001 899535.57142573 32869.03132763
0.11600001 889793.39605037 23423.81225409
0.11700001 880084.59389004 31154.99609095
0.11800001 870408.07826408 20197.82040740
0.11900001 860766.71894265 20141.94217198
0.12000001 851161.85112155 20083.16482323
0.12100001 841597.96281530 18481.49213405
0.12200001 832072.63588064 16886.91494076
0.12300001 822590.44734257 21420.25625800
0.12400001 813149.54976151 22869.83216461
0.12500001 803752.84969173 21267.30140497
0.12600001 794403.63786194 18160.06801729
0.12700001 785100.93631116 19596.12029382
0.12800001 775846.56373506 18015.15805897
0.12900001 766642.21326804 19434.38102233
0.13000001 757489.29381850 17861.59839014
0.13100001 748387.54421603 22227.11111095
0.13200001 739340.20867215 19174.78921582
0.13300001 730347.60010019 14679.98745407
0.13400001 721409.72084062 16069.40228933
0.13500001 712529.95663342 20349.85652091
0.13600001 703707.67387093 20245.67073187
0.13700001 694944.68238063 20139.49784503
0.13800001 686239.74272019 15738.90924147
0.13900001 677597.89074496 15652.51201435
0.14000001 669016.49512710 14149.69953925
0.14100001 660499.03094768 18289.21902951
0.14200001 652044.25296850 25175.42979452
0.14300001 643655.29826869 13902.95509837
0.14400001 635328.25144122 13818.39012066
0.14500001 627070.03246409 16479.40123052
0.14600001 618877.49238283 16375.49922095
0.14700001 610753.74963229 20338.10082224
0.14800001 602695.87846914 14817.27887122
0.14900001 594707.37120495 16057.09978012
0.15000001 586787.67653569 13290.74150063
0.15100001 578938.27847514 18479.71072089
0.15200001 571159.93336705 15729.74530717
0.15300001 563452.47884868 19523.62931341
0.15400001 555814.17730096 16799.48430171
0.15500001 548249.53791141 15394.84775108
0.15600001 540754.91883589 14008.25683356
0.15700001 533336.06330936 17696.09141580
0.15800001 525986.43192209 21326.12088885
0.15900001 518712.38245715 13694.00754323
0.16000001 511509.38339395 17294.13306887
0.16100001 504382.40662953 13482.14236562
0.16200001 497328.64204413 13375.65445919
0.16300001 490348.53943957 15681.34703156
0.16400001 483443.38770494 17947.83661586
0.16500001 476611.60853287 16614.68145786
0.16600001 469855.26985134 14123.85007856
0.16700001 463172.11659554 19842.29441180
0.16800001 456563.91012651 13888.67480182
0.16900001 450031.59059985 16066.12854303
0.17000001 443572.55333640 14790.92748943
0.17100001 437188.70929053 13535.36307879
0.17200001 430878.78819804 13417.56609810
0.17300001 424643.80763545 14408.16507349
0.17400001 418483.71331980 15379.27719081
0.17500001 412396.82023611 10887.27656841
0.17600001 406382.95937490 15105.25531337
0.17700001 400445.82066435 11761.09430840
0.17800001 394580.24812063 13772.82421117
0.17900001 388787.97566937 11547.00342279
0.18000001 383070.57476229 12480.43991527
0.18100001 377426.48657099 11334.11792711
0.18200001 371852.59222371 11228.08955259
0.18300001 366352.35040781 11122.45788380
0.18400001 360923.82678373 13020.32766631
0.18500001 355567.62510699 9920.33720914
0.18600001 350282.96507162 11790.52516134
0.18700001 345068.27421786 11677.11095122
0.18800001 339922.98377570 12527.86215895
0.18900001 334851.45111481 11451.92016920
0.19000001 329845.60586542 11340.09246546
0.19100001 324911.75849279 10293.20499541
0.19200001 320044.86083846 10191.82907498
0.19300001 315248.52745502 10091.10584067
0.19400001 310518.17143305 9082.65694361
0.19500001 305855.88950563 14387.46172223
0.19600001 301259.19295534 10682.65148702
0.19700001 296730.80165836 14100.64836117
0.19800001 292266.95786335 8724.16910451
0.19900001 287868.62031677 12954.08852646
0.20000001 283533.51633750 9403.38951375
0.20100001 279264.04041364 10154.04098934
0.20200001 275056.76262627 9213.02669961
0.20300001 270912.81237366 9947.91894055
0.20400001 266831.13676460 9025.56362766
0.20500001 262810.76817032 10557.10905640
0.20600001 258851.04790014 8037.32541721
0.20700001 254951.91366143 12727.20013158
0.20800001 251111.91122937 11808.53818375
0.20900001 247333.33401811 7791.00038986
0.21000001 243610.05367946 7710.25856344
0.21100001 239946.20122014 7630.28955951
0.21200001 236338.10283264 11326.50411371
0.21300001 232786.35918029 8966.93097954
0.21400001 229290.83938689 10352.48188775
0.21500001 225851.12793258 10244.60764736
0.21600001 222464.24244157 9413.57486398
0.21700001 219131.62448315 8598.72535126
0.21800001 215852.02489437 7090.73935303
0.21900001 212623.42521564 7718.23070026
0.22000001 209446.24425591 8331.77199045
0.22100001 206321.40701939 7557.55349647
0.22200001 203246.09138061 9518.01490941
0.22300001 200219.81824297 7400.12483218
0.22400001 197241.43617628 9319.65830002
0.22500001 194313.55977584 7245.95298668
0.22600001 191430.68755692 9777.32282932
0.22700001 188595.75133486 7094.97250073
0.22800001 185805.62296297 6382.42345060
0.22900001 183060.75865831 6315.59647238
0.23000001 180360.74041727 9374.24992651
0.23100001 177705.70158968 6184.15870779
0.23200001 175091.98260758 10403.09063863
0.23300001 172521.96343744 8477.72968427
0.23400001 169992.54656304 5992.23754975
0.23500001 167504.22707209 7708.54489444
0.23600001 165056.89600471 7628.10480964
0.23700001 162649.03061530 9290.51306817
0.23800001 160279.98276076 6895.24518450
0.23900001 157949.55612855 6823.42114750
0.24000001 155656.43425926 8440.47054695
0.24100001 153401.39960549 7239.01238980
0.24200001 151182.89045329 5510.61661769
0.24300001 148999.46804541 5998.71886726
0.24400001 146851.22887536 7015.81779139
0.24500001 144737.16507482 5340.80164390
0.24600001 142657.18475378 6871.08362870
0.24700001 140611.38084704 6276.89233795
0.24800001 138597.83699569 6729.61829368
0.24900001 136615.18574227 6659.99062000
0.25000001 134665.34049326 6084.18037132
0.25100001 132745.63907236 7024.89955205
0.25200001 130858.27593776 5959.28616814
0.25300001 128998.73542395 6880.79287305
0.25400001 127169.54526187 6809.92947096
0.25500001 125367.56184574 5776.93752317
0.25600001 123595.20673422 5717.51453404
0.25700001 121849.46669406 5658.68950100
0.25800001 120130.65438007 5133.78375783
0.25900001 118439.61631402 5542.97430576
0.26000001 116773.46433684 5486.01761412
0.26100001 115132.83608138 4524.72067209
0.26200001 113518.10747387 4478.28955174
0.26300001 111926.76021301 5761.98988841
0.26400001 110360.30651550 4825.50463072
0.26500001 108817.38566318 6512.72084012
0.26600001 107297.30331460 5156.70864131
0.26700001 105800.24130450 5529.12087221
0.26800001 104325.81007227 4209.54663562
0.26900001 102872.11755555 4582.95305397
0.27000001 101440.56870349 4948.27117552
0.27100001 100029.81602202 4489.33835552
0.27200001 98640.33350063  4039.32184801
0.27300001 97270.92044263  5197.18552520
0.27400001 95919.72653947  5143.69557910
0.27500001 94590.22186920  3916.03537071
0.27600001 93277.53218511  4650.81797485
0.27700001 91985.62734390  4219.38092595
0.27800001 90710.67477866  4555.49030298
0.27900001 89454.34311577  3757.08258868
0.28000001 88215.25012700  4090.10026572
0.28100001 86993.77598852  4415.80427817
0.28200001 85789.65752039  4005.94824751
0.28300001 84602.30111204  4324.86983754
0.28400001 83430.62040825  4636.65694865
0.28500001 82275.85434814  5647.41490976
0.28600001 81136.65678985  6636.57315625
0.28700001 80013.60892820  5184.88210396
0.28800001 78904.39834924  3420.50583034
0.28900001 77812.27283705  3723.31743149
0.29000001 76733.77268502  3684.37226987
0.29100001 75670.61033074  3645.81017831
0.29200001 74621.42277847  5903.30103544
0.29300001 73586.62897726  4218.72163896
0.29400001 72564.98512471  4495.40104127
0.29500001 71558.31378500  4130.34606719
0.29600001 70564.04873596  3772.35422400
0.29700001 69583.37124184  4665.56526262
0.29800001 68616.27582531  3077.44011645
0.29900001 67662.32566464  4567.20719857
0.30000001 66720.01266756  3012.40871455
0.30100001 65791.60234137  2980.35972715
0.30200001 64874.43147352  3833.10596507
0.30300001 63970.52904742  2917.05626266
0.30400001 63078.38441108  2885.83622343
0.30500001 62198.72613508  3425.90599771
0.30600001 61329.58507354  3389.07303161
0.30700001 60473.09973170  3632.01454184
0.30800001 59627.97681932  3040.13254206
0.30900001 58794.56874066  3007.34233347
0.31000001 57972.64882379  2704.42419567
0.31100001 57160.97433645  2675.13372560
0.31200001 56361.55173442  3440.02747298
0.31300001 55572.19491777  4187.92080729
0.31400001 54795.16297556  3624.70020245
0.31500001 54027.42909521  2560.90026036
0.31600002 53271.87107115  3293.00086618
0.31700002 52526.16962785  3006.59809185
0.31800002 51790.75927605  4708.55710253
0.31900002 51066.51878042  2451.19301752
0.32000002 50352.89638412  2666.94128326
0.32100002 49648.88655445  3836.86613460
0.32200002 48956.33452469  2846.32142404
0.32300002 48272.36374093  3284.45178445
0.32400002 47599.89328348  2784.59388894
0.32500002 46936.68733341  3213.28576700
0.32600002 46283.88532025  2497.24715070
0.32700002 45641.30379479  3143.77315425
0.32800002 45009.28255269  2665.44983899
0.32900002 44385.36935040  2636.49106426
0.33000002 43772.54446213  2607.96832255
0.33100002 43168.40526854  2794.72268943
0.33200002 42575.58363972  2339.31555386
0.33300002 41991.62018949  2734.91435245
0.33400002 41417.82428695  2289.37034588
0.33500002 40853.43064775  3294.42080345
0.33600002 40298.27636734  2648.20135689
0.33700002 39752.40965625  2620.08144452
0.33800002 39217.07758329  2193.60733850
0.33900002 38690.42090784  2565.17502767
0.34000002 38173.17328467  2147.81369658
0.34100002 37665.66693134  2125.47368560
0.34200002 37167.97126683  2294.75065469
0.34300002 36678.77046681  2838.93696858
0.34400002 36199.74099587  2060.67035378
0.34500002 35729.56071915  2039.80071806
0.34600002 35269.33461834  2386.49963998
0.34700002 34816.89577730  2544.41886391
0.34800002 34374.76561878  2339.37478498
0.34900002 33941.07692658  2494.66927226
0.35000002 33516.97772411  1941.13585683
0.35100002 33102.51329363  1922.59406315
0.35200002 32695.49310774  2423.71701887
0.35300002 32298.80473803  2572.59991923
0.35400002 31910.25128489  1869.14305754
0.35500002 31531.14796007  2694.02140931
0.35600002 31160.55997408  1835.51287221
0.35700002 30798.63479069  2315.44147323
0.35800002 30445.86925761  2131.36317833
0.35900002 30102.23794520  2113.17720384
0.36000002 29767.15542218  2095.45900520
0.36100002 29440.03524116  2238.03158504
0.36200002 29123.09060187  1585.75235838
0.36300002 28813.13916710  1887.83696765
0.36400002 28512.37640262  2185.47375478
0.36500002 28219.27566412  1704.16213808
0.36600002 27935.49957929  1537.84932468
0.36700002 27659.46825666  1679.48299210
0.36800002 27392.60281538  1667.79870142
0.36900002 27133.70263370  1807.10468100
0.37000002 26882.28020872  1495.99896448
0.37100002 26638.96981738  2824.26371382
0.37200002 26404.52232801  2068.26633193
0.37300002 26177.67734767  1762.28132253
0.37400002 25958.69631845  1752.21208450
0.37500002 25747.61349188  1887.81511065
0.37600002 25544.53913215  1733.45250762
0.37700002 25349.09940889  2155.94100686
0.37800002 25161.04026175  1716.48624797
0.37900002 24981.51311031  2135.91947212
0.38000002 24808.70860801  2552.07197541
0.38100002 24642.65024221  1694.42871092
0.38200002 24485.09442320  1406.66874125
0.38300002 24334.12435960  1962.30388132
0.38400002 24190.66317434  1676.41303740
0.38500002 24053.68167422  1949.79152888
0.38600002 23924.66450720  1805.47489257
0.38700002 23801.74434155  1523.78774494
0.38800002 23685.48547784  1382.04814311
0.38900002 23576.18998395  1655.04861528
0.39000002 23474.01970211  1927.45184906
0.39100002 23377.54920244  1649.51994987
0.39200002 23288.40630818  1647.42194029
0.39300002 23204.65520626  1782.81374396
0.39400002 23128.58101940  1507.40533936
0.39500002 23057.17469287  1506.55586581
0.39600002 22992.19708774  1369.18540144
0.39700002 22932.59618276  1369.07605698
0.39800002 22879.99339613  1780.17797053
0.39900002 22831.95014245  1643.90048814
0.40000002 22789.97346711  1370.81696899
0.40100002 22753.13119157  1509.21526344
0.40200002 22722.13950664  1510.90873808
0.40300002 22696.16676377  1925.54287947
0.40400002 22675.40301433  1928.54311774
0.40500002 22659.14632706  1517.93628437
0.40600002 22648.71222329  1382.70394675
0.40700002 22642.56904715  1801.44287875
0.40800002 22640.88837265  1944.62599447
0.40900002 22643.65711523  1671.10197428
0.41000002 22651.41373718  1675.75166768
0.41100002 22663.22572846  1400.58741638
0.41200002 22678.32152002  1545.41429321
0.41300002 22698.98403961  1550.56767322
0.41400002 22722.73625438  1555.93943874
0.41500002 22750.20965351  1419.61314964
0.41600002 22780.60016671  2137.38991192
0.41700002 22815.95532116  1859.72860635
0.41800002 22855.18348892  1723.73802041
0.41900002 22895.78258409  1586.67780826
0.42000002 22940.26613199  1738.41344986
0.42100002 22988.66391794  1746.21899395
0.42200002 23039.40179871  1900.40514742
0.42300002 23092.82673586  1762.44462000
0.42400002 23148.76818263  1623.30744573
0.42500002 23207.90113970  1779.58194372
0.42600002 23268.24958068  2831.62976690
0.42700002 23332.01564940  1647.70702324
0.42800002 23397.38199329  1957.30808340
0.42900002 23465.64638914  1664.88769020
0.43000002 23535.73208905  1521.58515166
0.43100002 23606.10218322  1835.61059275
0.43200002 23679.57833510  1691.78755432
0.43300002 23753.87732240  1701.01523566
0.43400002 23830.19450195  2021.39634442
0.43500002 23907.37664971  1719.89675768
0.43600002 23986.39026203  1886.76954742
0.43700002 24065.82408635  2529.79954784
0.43800002 24145.86204081  1908.00610888
0.43900002 24227.81584304  2078.74669784
0.44000002 24309.75195132  2251.32623490
0.44100002 24392.79192583  2264.13905385
0.44200002 24476.20618439  1951.73277364
0.44300002 24560.11155790  1799.27385800
0.44400002 24644.20626580  1645.00084620
0.44500002 24728.00499750  1654.30361273
0.44600002 24811.80310101  2162.72091979
0.44700002 24896.76277142  1673.06253753
0.44800002 24980.28428869  2860.11778518
0.44900002 25064.41301274  1691.84795854
0.45000002 25148.45766521  1871.42256585
0.45100002 25231.10910033  1881.73620588
0.45200002 25313.80289101  2580.10948194
0.45300002 25395.30169399  2075.30415279
0.45400002 25476.56370689  1738.77555540
0.45500002 25557.24932019  2272.55071726
0.45600002 25636.50165393  1933.12049883
0.45700002 25715.20819418  1943.29837533
0.45800002 25792.38285603  1775.80564380
0.45900002 25868.40405131  2320.39595338
0.46000002 25943.67391609  2870.40821812
0.46100002 26016.81592950  2704.44814405
0.46200002 26089.15516487  2174.27029449
0.46300002 26160.05531626  2184.88792357
0.46400002 26228.72359055  2012.39891286
0.46500002 26296.97541755  2021.97453569
0.46600002 26362.35229348  2031.35115225
0.46700002 26426.06598858  2597.15388845
0.46800002 26488.74822244  2608.87693608
0.46900002 26548.56993643  2058.84169615
0.47000002 26606.84865517  2631.68352522
0.47100002 26663.26476073  2076.53515799
0.47200002 26717.64991581  2085.17908651
0.47300002 26769.90170277  2474.34213166
0.47400002 26819.29355551  2293.04970768
0.47500002 26866.93618639  2110.12926809
0.47600002 26912.95610265  1925.62210042
0.47700002 26955.53940342  2705.79717356
