# SAXS profile: number of points = 501, q_min = 0, q_max = 0.5, delta_q = 0.001
#    q    intensity    error
0.00000000 1700912.83420644 306.16431016
0.00100000 1700829.72096171 561.27382125
0.00200000 1700580.32087035 1147.89175294
0.00300000 1700164.86917542 1122.10885363
0.00400000 1699583.19822291 1274.68744710
0.00500000 1698835.89009722 2140.53330625
0.00600000 1697922.77523761 2495.94658121
0.00700000 1696844.48567048 2647.07750766
0.00800000 1695600.80046861 2746.87341273
0.00900000 1694193.00987321 3303.67651048
0.01000000 1692620.40459458 3072.10616699
0.01100000 1690884.40630030 3956.66968301
0.01200000 1688984.85121493 3952.22472512
0.01300000 1686922.89298842 4251.04587782
0.01400000 1684698.65797707 3790.57214849
0.01500000 1682313.47351869 6056.32877435
0.01600000 1679766.80668926 6853.44887767
0.01700000 1677060.96252703 6339.29072272
0.01800000 1674195.73986025 6680.04130263
0.01900000 1671172.09754072 6016.21982261
0.02000000 1667990.97608080 8932.09208096
0.02100000 1664654.50294370 8789.37617404
0.02200000 1661161.26597731 8023.40927919
0.02300000 1657514.50627239 5967.05249419
0.02400000 1653713.67666619 7441.71188432
0.02500000 1649761.53794260 9007.69840855
0.02600000 1645657.80897233 6664.91443118
0.02700000 1641404.91265723 7583.29104380
0.02800000 1637002.54244313 7833.05752481
0.02900000 1632453.37262482 10284.45671974
0.03000000 1627758.79388421 10596.71023527
0.03100000 1622919.14122532 10906.01713085
0.03200000 1617935.81931499 9610.53920937
0.03300000 1612812.60570266 9047.87913510
0.03400000 1607547.76280940 11815.47660182
0.03500000 1602144.55135581 9516.73907452
0.03600000 1596604.24450095 10633.38475978
0.03700000 1590928.56334757 14509.26916875
0.03800000 1585119.16758634 10200.24231548
0.03900000 1579178.16118632 11370.08328709
0.04000000 1573105.46910146 12576.97880827
0.04100000 1566904.87855150 12832.95155036
0.04200000 1560577.40520597 11072.29720361
0.04300000 1554124.16780724 12308.66398038
0.04400000 1547548.33227568 11490.54690079
0.04500000 1540851.67080691 14884.62783161
0.04600000 1534033.87048225 12977.92714758
0.04700000 1527099.50912364 15393.16376787
0.04800000 1520048.92405299 15641.30415627
0.04900000 1512886.08252130 14750.63999119
0.05000000 1505610.22842070 14973.29441889
0.05100000 1498226.27516790 12854.78203977
0.05200000 1490732.25836839 15406.71860821
0.05300000 1483134.71969640 13214.73096854
0.05400000 1475433.13867907 14606.78875409
0.05500000 1467630.49698672 14793.71609974
0.05600000 1459727.84813346 14976.80842073
0.05700000 1451730.14412570 15156.06341214
0.05800000 1443636.30265447 12776.18187504
0.05900000 1435449.33231419 18086.66243191
0.06000000 1427172.84025178 14364.49530823
0.06100000 1418808.09919564 14514.40753305
0.06200000 1410357.54727549 13327.87944475
0.06300000 1401824.05106353 16149.01382330
0.06400000 1393206.80201933 13583.76695496
0.06500000 1384512.09804879 16448.00449422
0.06600000 1375740.24559201 16591.42813813
0.06700000 1366893.48241853 18125.00842510
0.06800000 1357974.63726029 14055.03815355
0.06900000 1348986.51463590 19830.10269357
0.07000000 1339929.74535134 18551.32819312
0.07100000 1330807.82958657 21559.08784908
0.07200000 1321622.59795807 15918.94493816
0.07300000 1312377.66456177 20394.34986288
0.07400000 1303074.54031603 16125.54819212
0.07500000 1293715.50427658 20647.70041606
0.07600000 1284301.08217911 17800.41383350
0.07700000 1274837.07090656 20881.83220057
0.07800000 1265323.59886915 17992.90241972
0.07900000 1255762.88316108 19589.90189615
0.08000000 1246158.93911880 19683.08136674
0.08100000 1236513.14479442 16730.02363401
0.08200000 1226826.72669397 29020.58758174
0.08300000 1217103.27432359 18402.60237144
0.08400000 1207344.84432506 16933.01223647
0.08500000 1197553.65723687 24717.50864574
0.08600000 1187731.57653208 23249.84670223
0.08700000 1177882.77095892 18657.66396811
0.08800000 1168006.52684841 17152.17665230
0.08900000 1158107.93703317 17197.90367272
0.09000000 1148187.24594423 20374.58363639
0.09100000 1138247.52392773 15707.81656817
0.09200000 1128290.15981308 15739.64846895
0.09300000 1118320.44036319 17345.15084512
0.09400000 1108335.27894863 17373.15631401
0.09500000 1098340.33341935 18979.32185357
0.09600000 1088336.98684135 19002.36468351
0.09700000 1078329.63404578 25362.31418511
0.09800000 1068317.92477492 23796.78289323
0.09900000 1058304.61701257 19049.48400198
0.10000000 1048290.91974892 17469.76899917
0.10100000 1038278.88958749 15885.66775782
0.10200000 1028272.00091586 20652.84410983
0.10300000 1018270.82619361 19062.03076304
0.10400000 1008279.21886567 19056.47813308
0.10500000 998299.30319929 19047.55160122
0.10600001 988328.29226944 17448.93682105
0.10700001 978374.44336751 23774.50009260
0.10800001 968435.48036856 20584.09710396
0.10900001 958515.73689607 17397.06144347
0.11000001 948615.04332603 15794.44121482
0.11100001 938736.59858291 20502.00827815
0.11200001 928881.34834117 22042.35543383
0.11300001 919051.52388705 20430.51633789
0.11400001 909249.11004878 17253.00267552
0.11500001 899476.29265910 15650.88822924
0.11600001 889733.53281868 20299.27150718
0.11700001 880024.02193213 17134.06851395
0.11800001 870346.74602212 23303.53522230
0.11900001 860704.66853621 18591.22171606
0.12000001 851099.11492256 20081.68456254
0.12100001 841534.53423230 18480.09924230
0.12200001 832008.43574651 24560.89018033
0.12300001 822525.56270878 22948.46428078
0.12400001 813083.95294263 18294.38980319
0.12500001 803686.68690233 16708.64700802
0.12600001 794336.69366720 16645.32620018
0.12700001 785033.26788264 18087.16734440
0.12800001 775778.26855963 18013.57224492
0.12900001 766573.38414982 14948.18169546
0.13000001 757419.72150279 16371.62805196
0.13100001 748317.44533616 17780.02333930
0.13200001 739269.41267702 19172.95312160
0.13300001 730276.17788010 22017.82780107
0.13400001 721337.62170717 21910.63129235
0.13500001 712457.33695532 15987.54339506
0.13600001 703634.50143251 18797.59659209
0.13700001 694870.77764307 18698.97350809
0.13800001 686165.36116849 20029.16783700
0.13900001 677522.90212884 18496.37610037
0.14000001 668940.92551927 15562.91136616
0.14100001 660422.90197712 14067.00847555
0.14200001 651967.69049489 15383.17838278
0.14300001 643578.05886889 13901.28672726
0.14400001 635250.55477175 22106.72034883
0.14500001 626991.90454157 20596.68503578
0.14600001 618798.80550753 17737.86859665
0.14700001 610674.74092592 13556.97988813
0.14800001 602616.33769339 13468.47578287
0.14900001 594627.29233164 13379.11470870
0.15000001 586707.17970476 15946.70189679
0.15100001 578857.30788747 17157.33141535
0.15200001 571078.56849034 18348.75527142
0.15300001 563370.72659019 19520.79659752
0.15400001 555732.00118055 19381.15445579
0.15500001 548167.01493626 17957.95225680
0.15600001 540672.06656425 12732.82776851
0.15700001 533252.74639470 17693.32696045
0.15800001 525902.89334897 15051.34151805
0.15900001 518628.56137490 17425.92048471
0.16000001 511425.31895123 18526.38305350
0.16100001 504297.94261467 13479.88464240
0.16200001 497243.81330307 18236.41771376
0.16300001 490263.49461251 20502.82031259
0.16400001 483358.20070243 11963.11603216
0.16500001 476526.06175839 14238.59939756
0.16600001 469769.57801130 22358.68412107
0.16700001 463086.23752946 12836.75111040
0.16800001 456477.87427989 12728.88612531
0.16900001 449945.38077717 13768.32930190
0.17000001 443486.12970961 13650.50371703
0.17100001 437102.14850061 14660.40675299
0.17200001 430792.17830436 15650.68057687
0.17300001 424557.11151102 14405.22347385
0.17400001 418396.99049928 15376.09012700
0.17500001 412309.95221505 13061.97990306
0.17600001 406296.01231360 12944.59156367
0.17700001 400358.82384465 13896.45543199
0.17800001 394493.36799670 16947.43588960
0.17900001 388701.04211463 14692.90008593
0.18000001 382983.65030978 15597.00989559
0.18100001 377339.64377486 14421.92186632
0.18200001 371765.76316087 11225.46774891
0.18300001 366265.62752184 11119.82497686
0.18400001 360837.22929392 13017.20366172
0.18500001 355481.11743161 9917.92364489
0.18600001 350196.66632340 10805.31864989
0.18700001 344982.06078823 16538.44077554
0.18800001 339836.97952648 9634.37882476
0.18900001 334765.57118053 11448.98307531
0.19000001 329760.01850574 11337.14997189
0.19100001 324826.41994318 13097.00187094
0.19200001 319959.82809561 11115.40495326
0.19300001 315163.70662476 13756.89644422
0.19400001 310433.65144968 11804.24015417
0.19500001 305771.68055837 10787.62539987
0.19600001 301175.29521492 8899.73039417
0.19700001 296647.29936715 9691.46772832
0.19800001 292183.80330010 10466.02432882
0.19900001 287785.81949959 9496.93249231
0.20000001 283451.11933228 10255.26198212
0.20100001 279182.17663132 11842.90849242
0.20200001 274975.26793627 11722.19622616
0.20300001 270831.80918518 9116.19912805
0.20400001 266750.73533496 9022.84404918
0.20500001 262730.78002365 8118.38148646
0.20600001 258771.66346016 10445.31868930
0.20700001 254872.98986223 7952.03765959
0.20800001 251033.66531665 10230.87751360
0.20900001 247255.58995734 8567.40659701
0.21000001 243532.92422752 7707.81741617
0.21100001 239869.73858130 9916.21546172
0.21200001 236262.30534026 9058.29721497
0.21300001 232711.23989168 8964.03738441
0.21400001 229216.38480956 10349.12026342
0.21500001 225777.45524831 7315.18989589
0.21600001 222391.21479856 9410.48469912
0.21700001 219059.34740521 10028.53739836
0.21800001 215780.51201266 10632.58523214
0.21900001 212552.72942129 9819.93656357
0.22000001 209376.36393993 6940.82679279
0.22100001 206252.30362263 8928.66264600
0.22200001 203177.86573146 9514.81990211
0.22300001 200152.47701653 10760.19767321
0.22400001 197174.94944463 9981.98228765
0.22500001 194248.00704465 10536.01240032
0.22600001 191366.03001519 6516.01363015
0.22700001 188531.97549777 8382.13202701
0.22800001 185742.89422666 7656.32246209
0.22900001 182998.96769190 6313.46468394
0.23000001 180299.92734924 7496.87133372
0.23100001 177645.85445092 7418.49123271
0.23200001 175033.25247745 7340.89495608
0.23300001 172464.18676229 7264.19188998
0.23400001 169935.78359741 6589.26032063
0.23500001 167448.59589497 6520.44863254
0.23600001 165002.37836554 6452.41831116
0.23700001 162595.59725381 6385.12940616
0.23800001 160227.59971837 6318.57569375
0.23900001 157898.34696389 6821.20891148
0.24000001 155606.39462050 7312.72286108
0.24100001 153352.60158578 7793.37958123
0.24200001 151135.19405903 8263.31712605
0.24300001 148952.98742896 6542.01551734
0.24400001 146805.97759093 7553.16790435
0.24500001 144693.08656255 7474.84520541
0.24600001 142614.36225743 6340.63484591
0.24700001 140569.86014455 7843.79856712
0.24800001 138557.65134935 6210.15422726
0.24900001 136576.08962033 5121.60360305
0.25000001 134627.65129188 5575.60444203
0.25100001 132709.27204479 7524.61608092
0.25200001 130823.15598785 7943.58240739
0.25300001 128964.94818044 7370.34713721
0.25400001 127137.17998805 4862.99736462
0.25500001 125336.44640963 5775.50372381
0.25600001 123565.41242082 5716.13624903
0.25700001 121821.14879507 5657.37441771
0.25800001 120103.67578685 6999.04203763
0.25900001 118414.02765886 5541.77675664
0.26000001 116749.21773560 5484.87850874
0.26100001 115110.07354126 5880.97393549
0.26200001 113496.72691274 6716.16913285
0.26300001 111906.82261764 7533.56765509
0.26400001 110341.71165125 4824.69157025
0.26500001 108800.29439779 4775.24514708
0.26600001 107281.63767927 4726.29277161
0.26700001 105785.99081743 4677.85673530
0.26800001 104313.00917123 5050.83614308
0.26900001 102860.80648069 5832.20800344
0.27000001 101430.80230965 4535.47853990
0.27100001 100021.50133382 6529.40391606
0.27200001 98633.48731570  4846.84979606
0.27300001 97265.52702687  6396.18135998
0.27400001 95915.81002612  3956.52735082
0.27500001 94587.75776669  4307.52669255
0.27600001 93276.62009778  5038.33687303
0.27700001 91986.10625207  5753.73121837
0.27800001 90712.75805511  4175.96201470
0.27900001 89457.82227715  4132.95158481
0.28000001 88220.25377363  4090.33225980
0.28100001 87000.22559696  4048.12068862
0.28200001 85797.61989045  5098.95279142
0.28300001 84611.72132372  4325.35139879
0.28400001 83441.50118486  4993.97408228
0.28500001 82288.28138044  4236.20092597
0.28600001 81150.58480163  3493.53284107
0.28700001 80029.03675848  4494.43091709
0.28800001 78921.31940178  3763.36329381
0.28900001 77830.64759746  5078.44999612
0.29000001 76753.61045261  4690.41335678
0.29100001 75691.84538663  3646.83328335
0.29200001 74644.14462446  3608.67134269
0.29300001 73610.84526747  3895.48611595
0.29400001 72590.70035722  3212.13864286
0.29500001 71585.48942079  5403.27299726
0.29600001 70592.63123572  3459.39205747
0.29700001 69613.36265562  4045.23269541
0.29800001 68647.70870477  4002.50484550
0.29900001 67695.18863509  4264.79708590
0.30000001 66754.26525589  3315.35074088
0.30100001 65827.23620338  4174.76351765
0.30200001 64911.48696562  5015.38627783
0.30300001 64008.88244453  3502.56621318
0.30400001 63118.08453649  3176.41775468
0.30500001 62239.84647793  4570.89454174
0.30600001 61371.99956881  3391.41685673
0.30700001 60516.93789810  3355.05919591
0.30800001 59673.09830109  3595.60270836
0.30900001 58841.02691179  2736.10788094
0.31000001 58020.33454701  2977.31360824
0.31100001 57210.06190920  3212.91722894
0.31200001 56411.76718184  2913.38585404
0.31300001 55623.67636430  3405.83786504
0.31400001 54847.94369352  2591.56546222
0.31500001 54081.40765376  3332.49649741
0.31600002 53327.09097729  3549.98461444
0.31700002 52582.56707894  3009.82628211
0.31800002 51848.30196295  3225.22377631
0.31900002 51125.22163813  2944.81290579
0.32000002 50412.74896350  3398.32356854
0.32100002 49709.85816518  3601.47939460
0.32200002 49018.34750360  2612.43295390
0.32300002 48335.50712557  2584.01633329
0.32400002 47664.11300488  2555.98818092
0.32500002 47001.97810478  2987.91588960
0.32600002 46350.12397143  2728.16842614
0.32700002 45708.55315357  2698.63310597
0.32800002 45077.53786376  2447.03425881
0.32900002 44454.59261446  3960.90438951
0.33000002 43842.67101534  2612.14646279
0.33100002 43239.44834400  2799.32201835
0.33200002 42647.51097604  2556.29192896
0.33300002 42064.43176287  2107.42813112
0.33400002 41491.41926637  2501.93270024
0.33500002 40927.97851109  4125.54042929
0.33600002 40373.54873818  3061.32447805
0.33700002 39828.49903183  2221.23549620
0.33800002 39293.89427022  1998.09461827
0.33900002 38767.96617754  2174.88300556
0.34000002 38251.44077021  2347.87354567
0.34100002 37744.58993778  2517.18682216
0.34200002 37247.52135837  2874.57759697
0.34300002 36758.98903814  2465.79310146
0.34400002 36280.55429717  1877.51877380
0.34500002 35810.88583002  1858.58506260
0.34600002 35351.20491001  2024.03333298
0.34700002 34899.32069679  1821.74462665
0.34800002 34457.64714256  2345.01528735
0.34900002 34024.45472425  1786.28395762
0.35000002 33600.77592598  2299.80521718
0.35100002 33186.72643350  3154.06662962
0.35200002 32780.05660941  2256.41530358
0.35300002 32383.71344814  2407.40537176
0.35400002 31995.55570886  2044.51610663
0.35500002 31616.72490360  2025.99982778
0.35600002 31246.38037803  2509.86562274
0.35700002 30884.68107671  2653.61192380
0.35800002 30532.16013804  1808.57259144
0.35900002 30188.76120772  2119.25113716
0.36000002 29853.72138264  2424.86863416
0.36100002 29526.75889934  2084.29400943
0.36200002 29209.91857542  1590.48014177
0.36300002 28899.98327921  2840.29049122
0.36400002 28599.25551868  2035.55210796
0.36500002 28306.17393972  1554.00902290
0.36600002 28022.34556873  1542.63019663
0.36700002 27746.29488266  2297.39332511
0.36800002 27479.32694118  2129.37314554
0.36900002 27220.25343233  2115.01379188
0.37000002 26968.70174087  1800.96998757
0.37100002 26725.19278141  1938.64557620
0.37200002 26490.60585598  1482.14946785
0.37300002 26263.52737039  2652.09111949
0.37400002 26044.19015791  1904.48149551
0.37500002 25832.90181339  1456.97573129
0.37600002 25629.42402499  2029.08159618
0.37700002 25433.66107054  2307.34184162
0.37800002 25245.21141522  2152.78550542
0.37900002 25065.26731936  1571.59233537
0.38000002 24892.01618784  1564.83667178
0.38100002 24725.43023851  1700.12066374
0.38200002 24567.41285707  1552.53772905
0.38300002 24415.91341980  2390.80635533
0.38400002 24271.90170356  1541.87262876
0.38500002 24134.29543810  2375.53881251
0.38600002 24004.66396620  1393.47080925
0.38700002 23881.05563180  2362.79175615
0.38800002 23764.12188535  1663.96389324
0.38900002 23654.15680789  1798.89871046
0.39000002 23551.18683630  2210.04347742
0.39100002 23453.93344697  2482.36443363
0.39200002 23364.03606729  1652.77198970
0.39300002 23279.46784429  1513.39827626
0.39400002 23202.53520355  1512.22530354
0.39500002 23130.25432786  1511.33088939
0.39600002 23064.33365750  1510.82924781
0.39700002 23003.83899805  1510.66217857
0.39800002 22950.29195907  1373.57503883
0.39900002 22901.29727157  1786.30127182
0.40000002 22858.27716190  1374.92543643
0.40100002 22820.34905656  2064.10066996
0.40200002 22788.30713091  1515.30855446
0.40300002 22761.30514971  1793.13570465
0.40400002 22739.35929223  1657.69937095
0.40500002 22722.04067967  1798.90404584
0.40600002 22710.46646426  1525.12144767
0.40700002 22703.07408482  1945.19947975
0.40800002 22700.20087831  1392.65738987
0.40900002 22701.68186499  1814.99955110
0.41000002 22708.24239973  1399.96321028
0.41100002 22718.82493268  2386.83986052
0.41200002 22732.55206670  1830.76616744
0.41300002 22751.95434801  1412.89643196
0.41400002 22774.31403435  1559.47122739
0.41500002 22800.48542225  1707.30042932
0.41600002 22829.46403710  1570.78134750
0.41700002 22863.43534002  1720.24495650
0.41800002 22901.23936197  1727.21155452
0.41900002 22940.44853407  1734.29799135
0.42000002 22983.45855872  1596.54602443
0.42100002 23030.42599163  1749.39124122
0.42200002 23079.64856296  1610.84414778
0.42300002 23131.55935491  1765.40069362
0.42400002 23186.01716563  2069.35213009
0.42500002 23243.60472115  1633.79305327
0.42600002 23302.38159537  1492.51761191
0.42700002 23364.58540281  2100.00903552
0.42800002 23428.37391818  2110.66230631
0.42900002 23495.06887886  2121.60482030
0.43000002 23563.50093422  1675.71844834
0.43100002 23632.29077686  1837.64701789
0.43200002 23704.10697603  1539.58182105
0.43300002 23776.77468722  1857.44172659
0.43400002 23851.46116663  1867.56949785
0.43500002 23926.95960210  1721.30555535
0.43600002 24004.31402140  1730.83114453
0.43700002 24082.07393912  1898.63079933
0.43800002 24160.37120459  1590.96051922
0.43900002 24240.67873597  2239.83882135
0.44000002 24320.92293558  2091.47786696
0.44100002 24402.23162081  2265.01524638
0.44200002 24483.93588307  1789.65337818
0.44300002 24566.12309190  1963.32465055
0.44400002 24648.47500453  1974.34294143
0.44500002 24730.56140039  1819.92209970
0.44600002 24812.59614287  1663.68465022
0.44700002 24895.85456319  1673.00150593
0.44800002 24977.61638750  1850.46679776
0.44900002 25059.96757396  2029.85746969
0.45000002 25142.29761085  1870.96416538
0.45100002 25223.21847810  1881.14772325
0.45200002 25304.13250789  2235.24065102
0.45300002 25383.89888364  2074.37231508
0.45400002 25463.39099364  2259.23947298
0.45500002 25542.38442757  1921.80909541
0.45600002 25619.87393691  2107.49092993
0.45700002 25696.80323382  2294.98160558
0.45800002 25772.27375021  2306.74747134
0.45900002 25846.54629662  2318.43531269
0.46000002 25920.11759120  2150.85145966
0.46100002 25991.53836414  1801.21369400
0.46200002 26062.17674005  2534.02556453
0.46300002 26131.32020031  2000.61396935
0.46400002 26198.32070392  2010.06625128
0.46500002 26264.88817132  2203.09892423
0.46600002 26328.55360343  2028.74679407
0.46700002 26390.62258653  1852.62179338
0.46800002 26451.59605619  2233.04384490
0.46900002 26509.83252263  1868.94328143
0.47000002 26566.42287886  3190.76037110
0.47100002 26621.19075945  2450.21451363
0.47200002 26673.96983775  2271.02189963
0.47300002 26724.61393066  2660.16819674
0.47400002 26772.39439449  3433.55974384
0.47500002 26818.44548219  2106.32080801
0.47600002 26862.89809980  2306.44854017
0.47700002 26903.90148522  2314.81179351
