# SAXS profile: number of points = 501, q_min = 0, q_max = 0.5, delta_q = 0.001
#    q    intensity    error
0.00000000 1719190.39626458 335.24212727
0.00100000 1719106.75018499 567.30524103
0.00200000 1718855.75892744 1082.87916241
0.00300000 1718437.64562341 1134.16888651
0.00400000 1717852.24173034 1417.22815328
0.00500000 1717100.15519912 1545.39020085
0.00600000 1716181.20567988 2522.78647506
0.00700000 1715095.98465246 2058.11526712
0.00800000 1713844.32288739 3470.53490037
0.00900000 1712427.53551636 4366.69040223
0.01000000 1710844.83092114 3387.47291149
0.01100000 1709097.72620794 3076.37604112
0.01200000 1707185.95444651 3994.81530855
0.01300000 1705110.80656191 6445.31913307
0.01400000 1702872.28104943 4214.60908243
0.01500000 1700471.74045233 4897.35883058
0.01600000 1697908.73002092 4762.63420062
0.01700000 1695185.42935518 5950.10112395
0.01800000 1692301.78328778 6269.97838922
0.01900000 1689258.69610706 5067.77631699
0.02000000 1686056.97962158 6373.29567127
0.02100000 1682698.98071118 6108.19757692
0.02200000 1679183.20090553 6951.81876759
0.02300000 1675512.78726592 7238.21557046
0.02400000 1671687.47001687 8776.35961777
0.02500000 1667709.67788580 6504.06804080
0.02600000 1663579.30822415 7411.24615712
0.02700000 1659298.79705189 8362.86632017
0.02800000 1654867.82693946 7918.54291505
0.02900000 1650289.15502767 7426.30153860
0.03000000 1645563.90282081 9182.24699980
0.03100000 1640692.63991681 8662.85753737
0.03200000 1635676.86885435 9715.92104849
0.03300000 1630520.15445975 9978.78380532
0.03400000 1625220.78488843 9385.65046579
0.03500000 1619782.11326304 11370.87096019
0.03600000 1614205.32248888 11646.49193999
0.03700000 1608492.46192264 10085.24820267
0.03800000 1602644.76492027 11250.56677041
0.03900000 1596664.63274234 9579.98824010
0.04000000 1590551.68901851 14672.84001112
0.04100000 1584310.13396908 14971.73146020
0.04200000 1577940.69180377 15266.57690146
0.04300000 1571444.56189176 12445.84150789
0.04400000 1564825.02848656 13731.34026268
0.04500000 1558083.66651647 15051.08891790
0.04600000 1551220.40104852 15310.54607009
0.04700000 1544239.75575471 12230.37943439
0.04800000 1537141.56740922 12427.79015075
0.04900000 1529930.67350602 18359.16893665
0.05000000 1522606.00252359 17471.90469256
0.05100000 1515172.28356177 15363.84767103
0.05200000 1507627.59283772 13184.20391377
0.05300000 1499978.57501870 15794.77513127
0.05400000 1492224.72595635 13541.94001957
0.05500000 1484368.99753377 16209.31020922
0.05600000 1476412.36518270 12623.32631137
0.05700000 1468360.13186635 15329.68049225
0.05800000 1460210.70593765 18092.01149133
0.05900000 1451967.56439956 18294.79216591
0.06000000 1443634.10567643 15851.10322087
0.06100000 1435211.57479130 20021.20240396
0.06200000 1426702.70798181 13482.34122064
0.06300000 1418109.75787914 20420.78146824
0.06400000 1409432.63233350 13741.96880792
0.06500000 1400677.36313559 20800.05981554
0.06600000 1391844.11757467 18184.44424694
0.06700000 1382935.51911895 15516.53725067
0.06800000 1373953.93474826 15642.46627932
0.06900000 1364902.29807057 17197.76976087
0.07000000 1355781.57235952 15882.98186397
0.07100000 1346595.04088683 26177.80882095
0.07200000 1337344.38783480 16108.31390609
0.07300000 1328033.66064560 14741.17432387
0.07400000 1318663.91714514 16318.46673942
0.07500000 1309237.52358841 20895.43185589
0.07600000 1299755.22592357 18014.60827584
0.07700000 1290223.18824442 25662.54041746
0.07800000 1280640.66835583 21245.82968437
0.07900000 1271010.23337468 16777.33586747
0.08000000 1261336.46313375 19922.81036980
0.08100000 1251620.09375393 20013.40623812
0.08200000 1241862.56391061 21645.66550469
0.08300000 1232067.53309731 17076.45681016
0.08400000 1222237.06101177 17141.87558531
0.08500000 1212372.92670409 15639.61148869
0.08600000 1202477.98993743 21969.27390765
0.08700000 1192555.60955580 17315.90826387
0.08800000 1182605.27522130 17366.55928222
0.08900000 1172632.19573211 17413.58892453
0.09000000 1162636.39201742 20630.98374550
0.09100000 1152621.27585669 17496.79178952
0.09200000 1142588.32439302 15939.10787421
0.09300000 1132542.48732361 19162.61978601
0.09400000 1122480.74521181 19194.42164521
0.09500000 1112408.93338835 19222.42727246
0.09600000 1102328.29988592 19246.65302075
0.09700000 1092243.30539101 20872.77054731
0.09800000 1082153.65266043 25711.97199613
0.09900000 1072061.94368800 19297.11589378
0.10000000 1061969.58439356 19306.60795221
0.10100000 1051878.72286662 22531.24330349
0.10200000 1041792.35350204 20924.40040429
0.10300000 1031711.69585917 22532.58449751
0.10400000 1021640.32322131 24136.25377160
0.10500000 1011580.37531494 19300.95446911
0.10600001 1001528.93819161 20896.90227864
0.10700001 991494.63884644 27305.76363878
0.10800001 981474.70003647 22465.95694112
0.10900001 971474.02101187 16029.32210113
0.11000001 961492.11184989 19210.61329900
0.11100001 951532.57468342 19182.89760862
0.11200001 941595.67962986 15960.04752108
0.11300001 931684.14006826 17524.97949977
0.11400001 921799.88150977 20671.36331616
0.11500001 911945.06398765 17454.62934663
0.11600001 902119.96771336 23748.30926840
0.11700001 892328.30433400 15794.21173054
0.11800001 882568.48209148 18904.61777678
0.11900001 872843.96991599 21995.66907791
0.12000001 863155.81009514 20366.16229854
0.12100001 853508.63433439 17181.12961852
0.12200001 843899.67411026 17126.94469294
0.12300001 834334.27693940 17070.48011045
0.12400001 824809.77405579 15465.18399223
0.12500001 815329.61988222 24655.56886702
0.12600001 805896.83179885 21493.26951691
0.12700001 796510.54332810 16822.30346786
0.12800001 787172.63805076 18278.14951697
0.12900001 777884.72660692 15168.75288377
0.13000001 768648.29334164 18124.72761130
0.13100001 759462.95376964 18044.84063216
0.13200001 750332.51054903 16466.04772021
0.13300001 741256.34469575 20858.95452309
0.13400001 732235.06779368 19276.08906845
0.13500001 723272.17478631 16230.22836743
0.13600001 714366.94406597 16148.26553201
0.13700001 705520.91226955 17525.14028714
0.13800001 696732.99129609 14526.88355355
0.13900001 688008.43943644 15892.99570047
0.14000001 679344.42765484 15804.94885476
0.14100001 670744.54166037 15715.54535229
0.14200001 662207.43918304 17045.22028851
0.14300001 653736.31678989 15532.77561957
0.14400001 645327.10525009 18246.62476164
0.14500001 636987.07267735 16740.02105962
0.14600001 628712.90854407 16635.74434486
0.14700001 620507.84682037 13775.27484928
0.14800001 612368.91122801 15055.09039282
0.14900001 604299.36812080 19035.43099391
0.15000001 596298.83274755 14856.78611889
0.15100001 588368.97235699 14756.29452299
0.15200001 580510.24752971 13322.71080947
0.15300001 572723.00676551 14552.89228865
0.15400001 565004.69956772 14449.99587335
0.15500001 557360.55060734 14346.46124969
0.15600001 549786.79326936 14242.22755180
0.15700001 542288.98438887 14137.47449026
0.15800001 534860.80380874 15307.71692751
0.15900001 527508.33562651 12660.20065261
0.16000001 520227.32386530 15076.18855725
0.16100001 513022.57009385 13713.09394592
0.16200001 505891.36972619 14842.85348844
0.16300001 498834.17933242 15952.71780814
0.16400001 491852.36232923 13390.68119658
0.16500001 484944.29807410 12075.11359213
0.16600001 478111.99528705 11976.70604740
0.16700001 471353.03988148 13065.90688242
0.16800001 464669.49585852 15313.18395905
0.16900001 458062.46780463 15184.77152472
0.17000001 451529.03892556 13898.06447439
0.17100001 445070.99263903 11482.83215232
0.17200001 438687.25135800 17075.90206548
0.17300001 432379.11462658 13542.11450962
0.17400001 426145.96486304 12304.96531654
0.17500001 419986.53347495 12196.40950812
0.17600001 413900.42849328 15384.67965370
0.17700001 407891.66592808 16336.06199198
0.17800001 401954.95094617 15109.48731972
0.17900001 396091.64915935 12833.37003893
0.18000001 390304.09368197 11656.43230840
0.18100001 384590.09781339 12599.17219951
0.18200001 378946.47654439 15603.12190877
0.18300001 373377.27688399 12366.25599457
0.18400001 367880.00351353 12250.40469572
0.18500001 362455.73631013 15168.77328118
0.18600001 357103.39722706 17028.47630126
0.18700001 351821.43468305 11905.63791215
0.18800001 346609.23648976 14739.55847811
0.18900001 341471.51587031 12651.52026075
0.19000001 336399.85960919 9637.85643318
0.19100001 331400.70954417 12407.64315160
0.19200001 326468.95704847 10396.40442845
0.19300001 321608.21876996 14974.07937349
0.19400001 316814.06529676 12973.53658695
0.19500001 312088.37621331 12845.55817196
0.19600001 307428.72384663 16352.13459414
0.19700001 302838.07282646 9893.72030679
0.19800001 298312.36587741 13356.93681339
0.19900001 293852.64993520 10578.69589762
0.20000001 289456.68221026 8727.11938109
0.20100001 285126.92685152 11231.15017949
0.20200001 280859.50810246 10262.60691111
0.20300001 276656.37407040 9312.25399135
0.20400001 272515.75928444 12569.78999112
0.20500001 268437.01432531 9124.17454819
0.20600001 264419.56036364 9852.27328485
0.20700001 260462.97637530 13002.31239526
0.20800001 256566.30723795 11260.69575697
0.20900001 252731.55018394 9553.25304855
0.21000001 248952.42192158 11031.08233681
0.21100001 245233.39354173 7798.42228328
0.21200001 241570.42455976 9261.81051547
0.21300001 237964.65914797 9166.39910373
0.21400001 234415.52568021 10583.86148483
0.21500001 230922.46384310 8230.07700047
0.21600001 227482.95492696 7404.57053295
0.21700001 224098.34570863 10259.22275159
0.21800001 220767.02416271 9427.85621262
0.21900001 217487.15278937 7894.78401953
0.22000001 214259.58839063 7102.70569098
0.22100001 211084.55121706 9137.85065426
0.22200001 207959.81268500 8347.50727588
0.22300001 204884.50872985 8949.35576449
0.22400001 201857.44569145 10219.03367135
0.22500001 198881.73331789 6742.09107829
0.22600001 195951.25305700 7339.35453031
0.22700001 193069.31276471 11885.34745584
0.22800001 190232.59658168 7841.38800192
0.22900001 187442.00016853 7760.09917396
0.23000001 184696.37834242 8959.62173711
0.23100001 181996.48815703 7600.17370487
0.23200001 179338.28370758 6267.87331201
0.23300001 176724.31846546 8684.23342011
0.23400001 174151.23987290 7366.59779503
0.23500001 171619.99736989 9113.02229135
0.23600001 169130.24542099 9018.87076364
0.23700001 166680.24967340 6545.53371426
0.23800001 164269.67423266 7066.88171974
0.23900001 161898.20588112 9325.33709984
0.24000001 159564.60013641 6921.91268133
0.24100001 157269.41746296 7421.54416112
0.24200001 155011.24967573 9605.27254051
0.24300001 152788.79032431 8388.10498559
0.24400001 150601.79040031 8301.92408853
0.24500001 148449.48088503 6573.34332454
0.24600001 146331.72666355 6505.90887522
0.24700001 144248.74773031 6439.26440330
0.24800001 142198.44226383 6904.44569075
0.24900001 140179.22332310 6308.06534796
0.25000001 138193.44961335 5202.98362409
0.25100001 136238.23924859 5664.78625595
0.25200001 134315.89896860 5097.28860701
0.25300001 132421.77625036 6054.32389660
0.25400001 130558.41753632 5992.63164844
0.25500001 128722.58185286 7414.42106552
0.25600001 126916.82308662 6360.43688992
0.25700001 125138.30875680 4842.85277802
0.25800001 123386.88550237 6231.65494714
0.25900001 121663.83870965 5693.86792102
0.26000001 119966.02505377 7045.00515462
0.26100001 118294.23334014 5113.85994926
0.26200001 116648.56808076 4601.78622853
0.26300001 115026.71225531 5466.06962501
0.26400001 113430.17232759 5410.61947605
0.26500001 111857.60891233 5355.74256815
0.26600001 110308.12687402 4859.62475939
0.26700001 108782.12304769 4373.04155345
0.26800001 107279.18667533 4328.71538719
0.26900001 105797.22939264 5570.22439111
0.27000001 104337.84872683 4241.33375145
0.27100001 102899.71102652 5877.63177198
0.27200001 101483.08863177 6233.59901420
0.27300001 100086.96045155 6170.36140384
0.27400001 98709.18382044  5293.28023287
0.27500001 97353.73354607  5642.62266337
0.27600001 96015.38573421  4787.32735927
0.27700001 94698.08764218  3948.91044157
0.27800001 93398.04489930  3908.70836402
0.27900001 92116.93271405  3868.91135710
0.28000001 90853.34187462  4212.41539538
0.28100001 89607.67519633  4169.44532422
0.28200001 88379.80089877  4126.89499829
0.28300001 87168.92739364  4456.07577927
0.28400001 85973.99041267  5513.08239615
0.28500001 84796.32571713  4001.53879999
0.28600001 83634.46337304  3600.46381863
0.28700001 82489.20325922  4988.94724926
0.28800001 81357.75936049  4584.91674578
0.28900001 80243.92406989  3490.61086226
0.29000001 79143.87298234  4145.55626304
0.29100001 78059.40237947  3760.90218466
0.29200001 76989.22519356  3383.67660742
0.29300001 75933.70540353  4688.14719353
0.29400001 74891.58917314  4639.53416890
0.29500001 73864.55460264  4591.42093144
0.29600001 72850.32948995  4219.12703213
0.29700001 71849.76405524  3211.68460530
0.29800001 70863.26742286  3496.03946380
0.29900001 69889.97627836  3145.04908141
0.30000001 68928.44722376  4045.75540132
0.30100001 67981.28155707  3079.55220032
0.30200001 67045.30543688  3351.93020400
0.30300001 66123.10005652  4824.34160851
0.30400001 65212.64890470  3878.52247722
0.30500001 64314.95353133  3542.46780821
0.30600001 63427.94007056  3212.94245638
0.30700001 62553.72651159  3467.97876199
0.30800001 61691.08887273  3431.25852555
0.30900001 60840.43275282  3111.98828264
0.31000001 60001.47778970  4198.60360712
0.31100001 59172.77053146  3323.14295038
0.31200001 58356.57443583  3013.82542943
0.31300001 57550.49488338  3252.75412481
0.31400001 56757.03475450  3218.12402295
0.31500001 55972.91556341  4775.60938198
0.31600002 55201.19073662  2887.29841819
0.31700002 54439.59459638  2856.44566372
0.31800002 53688.32346778  2825.88503953
0.31900002 52948.26304734  4066.42679458
0.32000002 52219.21248981  2765.79072048
0.32100002 51499.69967479  2487.43561207
0.32200002 50791.73176367  2460.85952047
0.32300002 50092.62021553  3164.85189508
0.32400002 49405.18826674  3371.90425887
0.32500002 48726.95319958  3574.12218643
0.32600002 48059.23392960  2593.03608946
0.32700002 47401.98332596  3031.83099709
0.32800002 46755.31998308  2768.85018051
0.32900002 46116.91422776  3195.90230732
0.33000002 45489.60093067  2936.12643111
0.33100002 44871.20051389  2904.96165883
0.33200002 44264.08620875  3979.78417949
0.33300002 43665.96264126  2187.66483192
0.33400002 43078.11360752  2597.61037355
0.33500002 42499.73827834  2141.98691066
0.33600002 41930.70661022  2331.55705148
0.33700002 41371.05473594  3146.26886167
0.33800002 40821.98666922  2075.79812043
0.33900002 40281.62289630  2259.79915150
0.34000002 39750.88077081  3456.53800112
0.34100002 39229.88790584  2414.99201385
0.34200002 38718.64511864  2390.48926284
0.34300002 38216.09857826  2169.14585803
0.34400002 37723.65094049  2537.85873721
0.34500002 37240.29327524  2319.32557503
0.34600002 36766.88065830  2487.83109757
0.34700002 36301.22675039  2842.38618917
0.34800002 35845.95837074  2251.84321150
0.34900002 35399.26008808  2044.30736691
0.35000002 34962.11268239  2208.90638389
0.35100002 34534.64114598  2005.77205276
0.35200002 34114.75510978  2348.28927920
0.35300002 33705.14927199  1968.71786222
0.35400002 33303.70332135  2128.10674303
0.35500002 32911.68885247  2987.72325554
0.35600002 32528.39333686  2438.65376397
0.35700002 32153.65455964  1899.31646480
0.35800002 31788.25980759  1882.97765889
0.35900002 31431.95538538  2376.25593969
0.36000002 31084.21156524  2693.13621758
0.36100002 30744.43563742  2337.19210786
0.36200002 30414.94174647  1821.70302219
0.36300002 30092.44670182  1971.65720129
0.36400002 29779.07280287  1956.48517582
0.36500002 29473.55974258  2427.14775977
0.36600002 29177.21757371  2409.30885527
0.36700002 28888.71585976  2391.98578649
0.36800002 28609.41101055  2216.94336422
0.36900002 28337.98673116  2044.58583950
0.37000002 28074.18378104  2031.02692185
0.37100002 27818.44334052  2173.17689670
0.37200002 27571.71672959  2159.69267373
0.37300002 27332.37610672  1533.34637222
0.37400002 27101.07721362  1829.32279858
0.37500002 26877.61095302  1667.48706252
0.37600002 26662.22920095  1658.52404601
0.37700002 26454.54283982  1649.96991508
0.37800002 26254.06941324  1791.05270022
0.37900002 26062.35906225  1634.10999061
0.38000002 25877.14538434  1774.65471453
0.38100002 25698.87311721  2061.56369913
0.38200002 25529.11555719  2199.97163736
0.38300002 25365.90775603  1753.29162716
0.38400002 25210.28505000  1747.07283673
0.38500002 25061.03555740  1886.34423577
0.38600002 24919.91251184  2169.90148477
0.38700002 24784.77143784  1442.47376602
0.38800002 24656.29928750  1438.69513158
0.38900002 24534.80396854  1722.34332019
0.39000002 24420.59516444  1718.72156910
0.39100002 24311.95298155  2287.26864487
0.39200002 24210.71685169  1569.94400863
0.39300002 24114.89551124  1425.19039224
0.39400002 24026.74129024  1708.30138667
0.39500002 23943.13416945  2702.22225039
0.39600002 23866.18247539  1421.23123374
0.39700002 23794.53424791  1704.64051428
0.39800002 23729.95148490  1420.23766366
0.39900002 23669.91034043  1988.27256280
0.40000002 23615.97854882  1704.60141242
0.40100002 23567.07939796  1563.20445053
0.40200002 23524.11782201  2133.04948457
0.40300002 23486.23481094  1565.59248668
0.40400002 23453.55738885  1567.28404677
0.40500002 23425.52231829  1569.27581446
0.40600002 23403.11547980  1571.63629451
0.40700002 23385.20611306  2146.76202289
0.40800002 23371.62818989  1433.84945739
0.40900002 23362.61669167  1724.16119354
0.41000002 23358.67500833  2016.08733550
0.41100002 23358.73964457  2309.71228549
0.41200002 23362.09340865  1881.46628181
0.41300002 23371.08338733  1596.47878183
0.41400002 23383.17802333  1892.28377120
0.41500002 23398.98303190  1606.10627141
0.41600002 23417.74952285  1611.25833227
0.41700002 23441.57094170  1763.74388123
0.41800002 23469.33387723  1622.55247449
0.41900002 23498.42057409  2072.56079284
0.42000002 23531.45418674  2526.21938392
0.42100002 23568.50510751  2088.64102160
0.42200002 23607.80898421  1947.29021634
0.42300002 23649.91155532  2105.78822467
0.42400002 23694.53166858  1963.68440508
0.42500002 23742.41184535  1668.85420769
0.42600002 23791.62156948  1676.23877711
0.42700002 23844.12359060  1530.79280706
0.42800002 23898.37576393  1691.64660861
0.42900002 23955.61252651  2163.19191365
0.43000002 24014.78514221  2173.57830622
0.43100002 24074.09630630  2028.00196894
0.43200002 24136.61703967  1881.20802122
0.43300002 24200.09986109  1575.42657561
0.43400002 24265.53473982  2533.32194689
0.43500002 24332.03941460  1909.57854375
0.43600002 24400.24721691  1919.32353704
0.43700002 24469.10399177  2089.90627098
0.43800002 24538.55976864  1939.03708481
0.43900002 24609.95639863  2111.53435907
0.44000002 24681.42790247  2122.47949306
0.44100002 24754.03634738  1969.43122513
0.44200002 24827.12961557  1979.71540936
0.44300002 24900.68991017  3150.93345056
0.44400002 24974.57844160  2333.87446597
0.44500002 25048.30321749  2010.87787760
0.44600002 25121.92347089  1684.42504855
0.44700002 25196.97391051  2370.53141784
0.44800002 25270.42909812  2042.35617650
0.44900002 25344.79720720  1710.77389256
0.45000002 25419.03469147  2751.35644540
0.45100002 25492.00874922  1901.19410262
0.45200002 25565.02968321  1737.14384930
0.45300002 25636.94327150  2793.40147125
0.45400002 25708.78241585  2105.54937965
0.45500002 25780.04120499  1939.69039219
0.45600002 25849.93127875  2126.41544777
0.45700002 25919.42416350  1958.73097687
0.45800002 25987.44374049  1968.15914496
0.45900002 26054.31835223  1977.52285666
0.46000002 26120.63092342  1986.86588536
0.46100002 26184.81921417  2358.99047481
0.46200002 26248.27604555  2369.82571509
0.46300002 26310.50329739  2380.57445118
0.46400002 26370.56655048  2023.28181448
0.46500002 26430.23895519  2216.96854864
0.46600002 26487.16594501  3154.22430606
0.46700002 26542.43521790  2049.60694467
0.46800002 26596.91193239  2993.74854900
0.46900002 26648.42101506  2630.19927885
0.47000002 26698.70544296  2640.76908053
0.47100002 26747.05882316  1893.69185443
0.47200002 26793.54595534  2471.30282832
0.47300002 26838.01729106  1908.18311984
0.47400002 26879.73097577  3064.28947648
0.47500002 26919.69273008  1922.06615203
0.47600002 26958.15158361  2314.62700468
0.47700002 26993.37957624  2322.51048882
