# SAXS profile: number of points = 501, q_min = 0, q_max = 0.5, delta_q = 0.001
#    q    intensity    error
0.00000000 1719190.39626458 412.60569510
0.00100000 1719106.73551443 773.59804935
0.00200000 1718855.69613906 928.18210531
0.00300000 1718437.50273117 1237.27504604
0.00400000 1717851.98111210 1288.38903479
0.00500000 1717099.74862944 2163.54576891
0.00600000 1716180.61773709 2522.78561078
0.00700000 1715095.18914190 2058.11431251
0.00800000 1713843.27023611 2776.42621500
0.00900000 1712426.22188795 3082.36733116
0.01000000 1710843.19067830 3952.04794111
0.01100000 1709095.74822634 3076.37248075
0.01200000 1707183.61508875 3994.80983446
0.01300000 1705108.04965614 3938.79976843
0.01400000 1702869.11499507 3831.45567859
0.01500000 1700468.07843474 5713.57299796
0.01600000 1697904.54044136 6061.51948035
0.01700000 1695180.73894476 4576.98820047
0.01800000 1692296.50337871 5787.65430199
0.01900000 1689252.85854871 7094.86232604
0.02000000 1686050.49985825 5842.16524628
0.02100000 1682691.83221518 5552.88329807
0.02200000 1679175.34525545 6372.47072476
0.02300000 1675504.20593892 7841.36004072
0.02400000 1671678.15669783 6895.67271080
0.02500000 1667699.62786113 8455.23749941
0.02600000 1663568.43376135 6737.45246489
0.02700000 1659287.09510608 9059.70795422
0.02800000 1654855.19786663 7198.62044085
0.02900000 1650275.61461650 8911.48872809
0.03000000 1645549.38823778 9182.16600843
0.03100000 1640677.28189473 9450.30157855
0.03200000 1635660.52868270 13764.08398281
0.03300000 1630502.68493526 10810.23329948
0.03400000 1625202.38663837 11945.23809295
0.03500000 1619762.57758962 9621.39015518
0.03600000 1614184.73921504 15229.83371832
0.03700000 1608470.75448685 9168.28372459
0.03800000 1602621.91307892 9375.33862540
0.03900000 1596640.56952082 10537.82824684
0.04000000 1590526.43402076 9781.73802250
0.04100000 1584283.60171577 11977.18458431
0.04200000 1577912.91586904 11195.29265747
0.04300000 1571415.46742644 11408.47682307
0.04400000 1564794.64701835 14787.31010107
0.04500000 1558051.96278299 12900.67085127
0.04600000 1551187.31514871 16403.80662026
0.04700000 1544205.26922089 12230.10630103
0.04800000 1537105.66152921 11297.72713790
0.04900000 1529893.35186512 13769.04080770
0.05000000 1522567.28931302 15141.93239732
0.05100000 1515132.03393182 12999.83345672
0.05200000 1507585.87888495 13183.83912523
0.05300000 1499935.26671099 17009.26671744
0.05400000 1492179.91365868 13541.53334795
0.05500000 1484322.59800610 14961.97248587
0.05600000 1476364.44785151 17672.08326544
0.05700000 1468310.57158163 14051.73282595
0.05800000 1460159.53614678 14214.65374811
0.05900000 1451914.74900174 16987.40335673
0.06000000 1443579.72492534 17171.38163021
0.06100000 1435155.48871901 20020.42000321
0.06200000 1426644.87479105 20222.69204544
0.06300000 1418050.14999457 14974.61028409
0.06400000 1409371.32025562 15115.50811664
0.06500000 1400614.28992157 15252.69033073
0.06600000 1391779.34211553 19582.33625979
0.06700000 1382868.89973852 18336.84246868
0.06800000 1373885.52331746 17063.65899834
0.06900000 1364832.11760168 15763.81169634
0.07000000 1355709.48087169 20213.62930637
0.07100000 1346521.16833225 14542.42929912
0.07200000 1337268.62838071 17571.71060010
0.07300000 1327956.22355928 14740.31477217
0.07400000 1318584.46922563 20767.70636356
0.07500000 1309156.22962654 17909.25806074
0.07600000 1299671.98859320 19514.57582358
0.07700000 1290138.04433017 15094.61582643
0.07800000 1280553.59900337 19726.92911777
0.07900000 1270921.34408675 15251.05684437
0.08000000 1261245.50066952 16856.54690721
0.08100000 1251527.36573912 18472.54478501
0.08200000 1241767.82212330 17006.01112199
0.08300000 1231970.81087537 26388.81600743
0.08400000 1222138.29259810 18698.71675444
0.08500000 1212272.22189261 21893.63735518
0.08600000 1202375.40874297 20398.29976706
0.08700000 1192451.04725684 20462.46093180
0.08800000 1182498.71053825 23679.53779061
0.08900000 1172523.70451375 22160.69905619
0.09000000 1162525.67062157 15868.47614941
0.09100000 1152508.81426823 19085.54686094
0.09200000 1142473.89072802 19125.01382941
0.09300000 1132426.09304682 19160.65039475
0.09400000 1122362.23756681 20791.76142809
0.09500000 1112288.46538269 25627.12744696
0.09600000 1102205.94052653 20848.22634509
0.09700000 1092118.89408496 19264.97819736
0.09800000 1082027.34819313 17674.91756377
0.09900000 1071933.49666322 19294.80384723
0.10000000 1061839.30981824 16086.86630027
0.10100000 1051746.42142160 19310.06520549
0.10200000 1041658.18062943 17702.98161248
0.10300000 1031575.50632512 16092.57865568
0.10400000 1021501.97379141 16088.65684411
0.10500000 1011440.34249159 20906.47286294
0.10600001 1001387.01134374 20893.94097482
0.10700001 991350.78095825 19271.86008872
0.10800001 981328.97543639 17649.20245382
0.10900001 971326.41174653 19232.26385776
0.11000001 961342.50667394 19207.62418744
0.11100001 951381.22239620 19179.84634637
0.11200001 941442.33303280 17553.19312575
0.11300001 931528.91586244 15929.14521120
0.11400001 921642.88867804 22257.67680956
0.11500001 911786.19434338 19038.09663436
0.11600001 901959.37126876 34824.65296463
0.11700001 892165.87262987 18949.60402709
0.11800001 882404.36717989 22051.28617440
0.11900001 872678.04931718 23562.30844139
0.12000001 862988.19081760 18795.88368139
0.12100001 853339.45988815 18739.33542192
0.12200001 843728.54651711 17123.47165827
0.12300001 834161.48112518 18618.48513591
0.12400001 824635.35101276 18554.29627202
0.12500001 815153.72272516 20028.32791110
0.12600001 805719.09492269 16883.84442973
0.12700001 796331.22684758 21405.38438642
0.12800001 786991.93169513 15228.29459600
0.12900001 777702.46931492 18198.23863969
0.13000001 768464.57073493 16610.36247936
0.13100001 759277.78058350 16537.07084063
0.13200001 750145.72227446 17958.48943782
0.13300001 741068.26911414 22343.20936712
0.13400001 732045.30950215 23718.26914608
0.13500001 723081.10898568 16225.94085066
0.13600001 714174.74936608 17611.55014977
0.13700001 705327.19633164 21900.41047877
0.13800001 696538.09017181 17427.38383790
0.13900001 687812.15637718 18777.27275460
0.14000001 679146.96734370 18673.14674775
0.14100001 670545.83987679 14282.62706299
0.14200001 662007.59555642 18460.08267277
0.14300001 653535.26810948 18351.27119410
0.14400001 645125.02674379 14031.46999354
0.14500001 636783.95679635 18129.24010519
0.14600001 628508.75045803 13858.61860137
0.14700001 620302.70457858 22033.15310608
0.14800001 612162.76441737 19154.57380231
0.14900001 604092.30275945 17669.70068938
0.15000001 596090.93336936 14851.60630564
0.15100001 588160.08610156 14751.05565546
0.15200001 580300.63950109 15981.48036598
0.15300001 572512.58589310 15870.04962985
0.15400001 564793.65702296 13131.45314547
0.15500001 557148.80137533 20859.65210792
0.15600001 549574.35594543 12942.47669333
0.15700001 542075.82709212 14131.91747927
0.15800001 534647.14814986 12751.33508522
0.15900001 527294.25667121 12655.06275744
0.16000001 520012.68776358 12558.30700227
0.16100001 512807.51702582 12461.22325195
0.16200001 505675.81397884 17309.28392960
0.16300001 498618.31270475 14719.21328591
0.16400001 491636.17888220 15818.39480231
0.16500001 484727.87439248 21725.50435596
0.16600001 477895.23177773 13168.40373336
0.16700001 471136.20366574 11872.63289294
0.16800001 464452.49166436 15306.03258549
0.16900001 457845.37805141 14010.06922990
0.17000001 451311.85473841 13891.37954479
0.17100001 444853.68131380 16068.11572781
0.17200001 438470.19655341 11378.30213788
0.17300001 432162.15441034 14663.26259161
0.17400001 425929.11977262 13416.76790646
0.17500001 419769.84190810 12190.11678472
0.17600001 413683.95522132 10983.30952986
0.17700001 407675.28210405 17415.88887405
0.17800001 401739.05654737 10786.69417778
0.17900001 395876.01270126 10688.65284780
0.18000001 390088.96651571 10590.91594116
0.18100001 384375.42545589 10493.44961062
0.18200001 378732.26013386 11435.82113495
0.18300001 373163.64452569 14419.04390562
0.18400001 367667.00294103 12243.31177632
0.18500001 362243.41945427 12127.91025628
0.18600001 356891.71511044 10010.81308179
0.18700001 351610.53330215 13881.58451060
0.18800001 346399.24263606 10802.46089198
0.18900001 341262.20976384 9725.97343780
0.19000001 336191.52368154 9631.88760857
0.19100001 331193.44610810 10492.20886846
0.19200001 326262.62839760 9445.30353841
0.19300001 321402.94405728 13093.95655962
0.19400001 316609.84918168 9260.83852617
0.19500001 311885.28833458 14671.08465654
0.19600001 307226.73518061 9078.55045361
0.19700001 302637.45933338 10785.99956036
0.19800001 298113.02718346 8898.67428197
0.19900001 293654.53940569 11452.52757807
0.20000001 289259.99614250 13953.90287339
0.20100001 284931.67770593 11223.45931528
0.20200001 280665.79732928 17092.54786521
0.20300001 276464.14869138 10151.76401977
0.20400001 272325.11608667 8373.99771547
0.20500001 268247.92365367 12433.29184903
0.20600001 264232.08608540 9024.84732683
0.20700001 260277.31046722 10556.84821156
0.20800001 256382.46541615 11252.62693903
0.20900001 252549.44571300 9546.36949922
0.21000001 248772.17145987 11810.45939837
0.21100001 245055.12974754 10130.57954267
0.21200001 241393.99717464 10797.55400407
0.21300001 237790.20422145 8396.37250800
0.21400001 234243.06336749 7554.33915074
0.21500001 230752.19931282 7476.37161120
0.21600001 227314.62986755 8139.00070721
0.21700001 223932.34668880 8054.84689123
0.21800001 220603.15983052 8696.17697168
0.21900001 217325.53499443 7888.91729330
0.22000001 214100.17230876 8516.90525714
0.22100001 210927.41093493 7726.27142787
0.22200001 207805.07756705 8341.29620795
0.22300001 204732.15433470 8254.80085311
0.22400001 201707.56777353 8169.15688112
0.22500001 198734.27733316 8084.51078421
0.22600001 195806.36250010 8000.64835009
0.22700001 192926.95691134 7257.91246222
0.22800001 190092.81956353 7182.65752688
0.22900001 187304.78458947 7108.21691132
0.23000001 184561.85303664 7674.08221218
0.23100001 181864.60494767 7594.66626179
0.23200001 179209.20321234 6889.69814334
0.23300001 176597.98196396 6198.58946009
0.23400001 174027.64224481 7361.36961511
0.23500001 171499.26508451 7892.39655247
0.23600001 169012.30384554 6609.22645448
0.23700001 166565.30281107 9514.21054657
0.23800001 164157.56110923 7062.05861295
0.23900001 161789.05058328 8736.60914473
0.24000001 159458.39123922 7493.74745074
0.24100001 157166.22350830 7416.67443817
0.24200001 154911.13930253 6775.81355360
0.24300001 152691.57540691 6147.36311667
0.24400001 150507.72172585 8296.73855260
0.24500001 148358.53106886 6569.31606649
0.24600001 146243.85321822 6502.00202166
0.24700001 144163.99699254 6435.48113018
0.24800001 142116.88575052 6900.48571406
0.24900001 140100.74969942 8406.04537963
0.25000001 138118.22834939 5720.16669770
0.25100001 136166.18758876 6176.49856123
0.25200001 134247.04838621 5604.14330001
0.25300001 132356.24368177 8572.71430885
0.25400001 130496.17592129 6488.92265468
0.25500001 128663.54164626 4940.68023297
0.25600001 126861.17202192 5379.54825411
0.25700001 125085.88279975 6293.07106140
0.25800001 123337.72425554 5750.00497685
0.25900001 121618.00476721 4743.10241034
0.26000001 119923.52956128 5164.50704492
0.26100001 118255.05911375 6506.39366030
0.26200001 116612.77082790 5060.41142952
0.26300001 114994.22991647 5009.14889218
0.26400001 113401.08149845 7212.30912457
0.26500001 111831.90867510 6246.93071419
0.26600001 110285.68065836 4858.63589131
0.26700001 108763.08575657 5246.73150517
0.26800001 107263.60048156 5626.51242951
0.26900001 105784.98058188 4712.72110794
0.27000001 104328.95972892 4665.06965504
0.27100001 102894.18608348 7556.54938357
0.27200001 101480.93685819 4571.20901710
0.27300001 100088.12186415 5347.70860428
0.27400001 98713.67895728  6107.90917454
0.27500001 97361.55177475  4030.76843423
0.27600001 96026.59380478  5585.86722598
0.27700001 94712.63878425  5134.37239149
0.27800001 93415.90643666  4300.40145634
0.27900001 92138.17904956  3869.80370323
0.28000001 90877.82704527  6511.85100512
0.28100001 89635.44548241  4170.73747569
0.28200001 88410.81030863  4128.34298275
0.28300001 87203.31788521  4829.31997306
0.28400001 86011.56424943  5515.49181855
0.28500001 84837.08184842  4003.46208192
0.28600001 83678.33600798  3962.58778921
0.28700001 82536.37793612  4278.68603473
0.28800001 81408.09921150  3529.04126786
0.28900001 80297.38783590  4191.52384343
0.29000001 79200.43662337  4148.51906670
0.29100001 78119.15019675  3763.78083464
0.29200001 77052.01995531  4063.72372480
0.29300001 75999.49791338  5362.52482661
0.29400001 74960.48847694  3980.40212654
0.29500001 73936.45708969  3282.77885018
0.29600001 72925.16104911  3573.69768638
0.29700001 71927.53752521  3858.19329549
0.29800001 70944.00359086  6045.49355218
0.29900001 69973.64095097  3463.69539104
0.30000001 69014.84794233  3427.62258532
0.30100001 68070.54057108  4933.75301416
0.30200001 67137.30964185  4271.94721475
0.30300001 66217.88614496  3925.39647651
0.30400001 65310.16934967  4780.70462272
0.30500001 64415.13907630  3252.32052593
0.30600001 63530.80008484  4095.83087538
0.30700001 62659.21855640  3473.82724123
0.30800001 61799.11551805  4583.02262380
0.30900001 60950.98722188  2834.22104000
0.31000001 60114.54155395  3645.64654514
0.31100001 59288.22937622  3052.15819279
0.31200001 58474.47950212  3019.91463687
0.31300001 57670.77749751  4346.06999798
0.31400001 56879.65935996  3493.83324161
0.31500001 56097.75615261  3722.64727454
0.31600002 55328.28136651  3157.03188425
0.31700002 54568.89746809  3123.52383897
0.31800002 53819.76757555  3090.33120051
0.31900002 53081.80315417  3567.09734086
0.32000002 52354.78479633  3025.05960877
0.32100002 51637.26905864  2992.89625635
0.32200002 50931.24535607  2961.14274521
0.32300002 50234.04699070  3173.78723915
0.32400002 49548.49853365  2415.48941789
0.32500002 48872.03795563  3584.76415379
0.32600002 48206.04940172  3310.30956917
0.32700002 47550.54959472  3041.33329609
0.32800002 46905.59023390  3935.14467901
0.32900002 46268.68894325  2290.30021114
0.33000002 45642.95931804  2492.79034120
0.33100002 45026.00055301  2914.98341384
0.33200002 44420.33587301  2884.43464651
0.33300002 43823.60844188  2415.11917560
0.33400002 43237.11041374  3041.73086165
0.33500002 42659.92539735  3010.08447858
0.33600002 42092.09790092  2340.53121462
0.33700002 41533.65133262  2526.90746674
0.33800002 40985.68366786  2292.53432453
0.33900002 40446.34171832  2269.03987785
0.34000002 39916.58056871  3266.77310845
0.34100002 39396.60142282  2627.35947332
0.34200002 38886.18848233  3001.04173825
0.34300002 38384.48884657  2970.95957743
0.34400002 37892.80477186  2941.42910972
0.34500002 37410.15916504  2135.74608788
0.34600002 36937.33724931  2114.84734437
0.34700002 36472.28142673  2284.62381677
0.34800002 36017.54082193  2639.72569186
0.34900002 35571.33563216  2801.24281370
0.35000002 35134.57837438  2404.78633073
0.35100002 34707.51345595  2015.81247700
0.35200002 34287.88985954  1997.09823946
0.35300002 33878.51538590  2878.31880351
0.35400002 33477.27697569  2673.99762508
0.35500002 33085.39173597  2650.14000357
0.35600002 32702.11511108  1926.31818186
0.35700002 32327.45962663  2083.18159701
0.35800002 31961.95257326  1721.15122759
0.35900002 31605.60580842  2218.71363284
0.36000002 31257.66142921  1861.86269122
0.36100002 30917.65988661  2014.59481364
0.36200002 30587.90717942  2165.16511225
0.36300002 30265.11044540  1982.97013031
0.36400002 29951.36906556  1639.83753401
0.36500002 29645.34663305  1953.03552870
0.36600002 29348.56920500  1777.20269239
0.36700002 29059.54593923  1924.90441419
0.36800002 28779.56140951  2070.83343931
0.36900002 28507.48703354  1582.16560531
0.37000002 28242.96382403  1728.89311238
0.37100002 27986.47915215  1873.97473280
0.37200002 27738.92279428  1707.19208424
0.37300002 27498.70180054  1542.67724409
0.37400002 27266.41431589  1993.85664130
0.37500002 27041.96870651  1525.16710730
0.37600002 26825.53287289  1972.07914257
0.37700002 26616.77742770  2112.83989230
0.37800002 26415.25258029  1952.21933443
0.37900002 26222.35349638  1644.14164211
0.38000002 26035.88109010  1934.33587722
0.38100002 25856.31310242  1926.03685424
0.38200002 25685.24592145  2213.42617214
0.38300002 25520.64509704  2351.98276357
0.38400002 25363.64836974  1611.22583902
0.38500002 25212.86792664  1459.82512211
0.38600002 25070.23013758  1746.39231412
0.38700002 24933.54371228  1886.47200664
0.38800002 24803.49495546  2170.92599882
0.38900002 24680.34347373  1588.18017778
0.39000002 24564.41626602  2161.05462338
0.39100002 24454.01243647  2013.05439914
0.39200002 24351.01678505  1435.49250749
0.39300002 24253.40643904  1576.71402730
0.39400002 24163.41410979  2290.69176614
0.39500002 24077.89972780  2288.36369855
0.39600002 23999.02085444  1572.05593555
0.39700002 23925.41953362  1571.18237521
0.39800002 23858.85610143  1427.95260532
0.39900002 23796.72166308  2141.70505115
0.40000002 23740.75068000  1713.60746527
0.40100002 23689.74747879  1571.34102472
0.40200002 23644.65622219  2001.04735089
0.40300002 23604.60102295  2145.65833465
0.40400002 23569.74842262  2004.60719832
0.40500002 23539.48088059  1720.26534426
0.40600002 23514.79272897  1579.13598053
0.40700002 23494.60077933  1725.44356299
0.40800002 23478.75131199  1584.46360736
0.40900002 23467.43788059  1587.57224784
0.41000002 23461.10272935  1735.65246216
0.41100002 23458.76935646  1739.70241791
0.41200002 23459.72639977  2615.99421479
0.41300002 23466.29355251  1457.25689866
0.41400002 23475.94125032  1753.65289449
0.41500002 23489.28647870  2345.17047316
0.41600002 23505.54844171  1764.32654964
0.41700002 23526.94226032  1622.65328458
0.41800002 23552.15096936  1480.25275856
0.41900002 23578.72432029  2228.18955385
0.42000002 23609.15133740  2087.28516864
0.42100002 23643.65280096  1496.64329322
0.42200002 23680.40471195  2103.53045024
0.42300002 23719.92280741  1508.58716204
0.42400002 23761.93691786  1514.82355029
0.42500002 23807.20594882  1825.53663866
0.42600002 23853.82150884  1680.62107404
0.42700002 23903.66503363  1994.99997824
0.42800002 23955.29978095  1849.82833674
0.42900002 24009.94572648  1858.36988729
0.43000002 24066.46060305  2178.25545240
0.43100002 24123.11503075  2032.13130649
0.43200002 24183.05063088  2041.89597678
0.43300002 24243.86330371  2051.75824862
0.43400002 24306.62406864  1586.00729564
0.43500002 24370.51117034  2071.98095789
0.43600002 24436.08989168  2082.32149880
0.43700002 24502.30172520  2092.74168952
0.43800002 24569.13935311  1617.87790307
0.43900002 24637.91278222  2276.54324896
0.44000002 24706.73754568  2778.39630237
0.44100002 24776.73423243  2299.77658044
0.44200002 24847.20793192  2311.53586345
0.44300002 24918.24255214  2655.28805219
0.44400002 24989.49768951  1668.04904982
0.44500002 25060.64717327  2514.83606302
0.44600002 25131.70164464  2022.09681016
0.44700002 25204.22277050  1693.72385045
0.44800002 25275.11825001  2042.73515377
0.44900002 25346.95645624  2053.10357026
0.45000002 25418.66880989  1891.53032913
0.45100002 25489.17916062  2246.61635769
0.45200002 25559.77607242  2084.14423972
0.45300002 25629.18917553  1745.34786557
0.45400002 25698.66034144  2104.72038171
0.45500002 25767.43566644  1762.49268311
0.45600002 25834.94413061  1948.08405449
0.45700002 25902.05350469  2313.31250814
0.45800002 25967.69329962  1787.87576841
0.45900002 26032.26112639  2155.47132342
0.46000002 26096.33539159  1985.01784564
0.46100002 26158.20484201  2175.31641776
0.46200002 26219.37583887  2003.02931214
0.46300002 26279.39252950  2377.75954876
0.46400002 26337.27379645  2388.13241468
0.46500002 26394.77933330  2213.99419541
0.46600002 26449.52521319  2593.90506060
0.46700002 26502.69725075  2604.68520925
0.46800002 26555.06974868  2054.96416990
0.46900002 26604.55924428  2438.30797031
0.47000002 26652.81302802  2824.53199452
0.47100002 26699.17515097  2079.33185931
0.47200002 26743.68906621  2087.21131210
0.47300002 26786.22103828  1904.50040609
0.47400002 26826.05143323  1911.35625521
0.47500002 26864.13865414  2301.71950898
0.47600002 26900.79292323  1924.75182489
0.47700002 26934.19979225  2317.41865997
