# SAXS profile: number of points = 501, q_min = 0, q_max = 0.5, delta_q = 0.001
#    q    intensity    error
0.00000000 1700912.83420644 331.67800267
0.00100000 1700829.62569740 561.27378981
0.00200000 1700579.93555323 918.31319428
0.00300000 1700163.99192323 1326.12796094
0.00400000 1699581.63013252 1657.09215235
0.00500000 1698833.44276142 3057.90031801
0.00600000 1697919.26871030 1782.81530473
0.00700000 1696839.69146582 2036.20771438
0.00800000 1695594.52775771 2289.05270912
0.00900000 1694185.11703810 3049.53334103
0.01000000 1692610.64500180 2792.80768485
0.01100000 1690872.64181416 3043.57088778
0.01200000 1688970.83692498 3622.84260404
0.01300000 1686906.46223471 3896.75409963
0.01400000 1684679.66699857 4548.63530254
0.01500000 1682291.63068461 4441.25010277
0.01600000 1679742.00707672 5140.01077143
0.01700000 1677032.99375588 5886.38607214
0.01800000 1674164.40777267 5725.64253222
0.01900000 1671137.27784466 7018.77688365
0.02000000 1667952.40005283 5254.05029784
0.02100000 1664611.99303290 9338.47370431
0.02200000 1661114.66423634 5730.84585198
0.02300000 1657463.60240833 8950.30386041
0.02400000 1653658.45895452 6821.34145422
0.02500000 1649701.68003908 6433.83684599
0.02600000 1645593.14330272 9330.51354929
0.02700000 1641335.35946043 6893.60882547
0.02800000 1636927.81489807 9256.82721776
0.02900000 1632373.44456324 7345.68083781
0.03000000 1627673.25359124 9082.41717251
0.03100000 1622828.15460948 8568.53305060
0.03200000 1617839.05405434 10410.79479234
0.03300000 1612709.79560453 8224.82033675
0.03400000 1607439.01870428 10970.77180885
0.03500000 1602029.43593351 8650.95935353
0.03600000 1596482.73960352 11518.62349856
0.03700000 1590800.59231140 9974.32017508
0.03800000 1584984.53866115 9272.15998028
0.03900000 1579036.70986069 14211.33104687
0.04000000 1572957.01989662 11608.42334476
0.04100000 1566749.32088097 13818.72965090
0.04200000 1560414.57085525 11071.14189384
0.04300000 1553953.90758649 12307.31551937
0.04400000 1547370.61688429 12533.70257885
0.04500000 1540666.32769191 11693.65797053
0.04600000 1533840.84306142 15139.00982478
0.04700000 1526898.63436616 14291.77188235
0.04800000 1519839.83581898 14522.07030693
0.04900000 1512668.98971712 17017.52692644
0.05000000 1505385.01305019 11516.19588610
0.05100000 1497992.72683171 11684.34381359
0.05200000 1490490.28456905 16589.15764033
0.05300000 1482884.11984747 13212.49812378
0.05400000 1475174.00064215 12170.18607284
0.05500000 1467362.60768774 14791.01577548
0.05600000 1459451.03344465 13726.13761007
0.05700000 1451444.55355398 17678.59548750
0.05800000 1443341.69740969 16605.64700406
0.05900000 1435145.66768532 16791.20509617
0.06000000 1426860.22334283 16972.50314960
0.06100000 1418486.08019505 17149.49751098
0.06200000 1410026.29996196 19987.12373623
0.06300000 1401483.26600374 14799.66398096
0.06400000 1392856.64229434 19012.49405647
0.06500000 1384152.44600994 21924.97577040
0.06600000 1375371.12923725 13822.48049557
0.06700000 1366514.76097861 13938.45121429
0.06800000 1357586.32907152 19671.42682905
0.06900000 1348588.39207274 15576.19665770
0.07000000 1339521.94102559 18545.68214197
0.07100000 1330390.42226715 22989.14757354
0.07200000 1321195.32364216 23147.34315459
0.07300000 1311940.88554565 16018.79896308
0.07400000 1302627.71341690 16120.01870899
0.07500000 1293258.64012458 16217.46410732
0.07600000 1283834.32489189 19276.77329196
0.07700000 1274360.63619267 17892.02417108
0.07800000 1264837.16714139 16487.15324687
0.07900000 1255266.38230447 21088.47621184
0.08000000 1245652.68473743 19675.08507841
0.08100000 1235997.15831838 19763.59548878
0.08200000 1226300.75163660 19847.67859659
0.08300000 1216567.46615990 19927.37603093
0.08400000 1206799.08296011 20002.69573896
0.08500000 1196997.95423535 15441.27433453
0.08600000 1187166.31526668 17041.77325579
0.08700000 1177307.68282916 23310.69321463
0.08800000 1167421.42159750 17143.58438129
0.08900000 1157513.30454264 17189.07337982
0.09000000 1147582.48728000 20363.85219339
0.09100000 1137633.34440361 25118.94542455
0.09200000 1127666.48656290 20450.23269471
0.09300000 1117687.39431303 29942.84670072
0.09400000 1107692.61079592 23676.93066852
0.09500000 1097688.26292497 23710.06759362
0.09600000 1087675.67202987 17408.24994916
0.09700000 1077658.83423584 19009.90272963
0.09800000 1067637.97290067 15854.42464301
0.09900000 1057615.36096697 17450.65427653
0.10000000 1047592.66483220 15871.02961858
0.10100000 1037571.71227235 15874.84794439
0.10200000 1027555.85988693 17463.31266019
0.10300000 1017545.92469880 17461.08888921
0.10400000 1007545.42124397 22216.37758360
0.10500000 997557.04012130 17447.27345260
0.10600001 987577.55111687 17435.68248538
0.10700001 977615.27823269 19004.84190317
0.10800001 967667.92580691 18985.64559783
0.10900001 957740.08071195 18963.25449061
0.11000001 947831.19853234 23672.08529758
0.11100001 937944.90052789 25211.96011300
0.11200001 928081.85569708 15730.98819464
0.11300001 918244.20929395 17272.17439001
0.11400001 908434.38822469 17237.54332818
0.11500001 898653.93950791 23454.86892560
0.11600001 888903.99496807 20280.34560023
0.11700001 879187.16700043 17117.77494766
0.11800001 869502.93309405 20176.81651274
0.11900001 859854.01853522 21668.32228770
0.12000001 850241.74062046 16975.07715110
0.12100001 840670.71633410 21537.98476709
0.12200001 831137.92273014 26068.64217456
0.12300001 821648.89031415 21395.73811183
0.12400001 812201.19038543 19797.40494845
0.12500001 802798.09870868 22759.32717082
0.12600001 793442.16334305 19649.59610115
0.12700001 784133.22685700 25594.10973077
0.12800001 774872.92214643 14993.79175018
0.12900001 765662.69681179 23888.67726645
0.13000001 756504.14691765 20811.43006265
0.13100001 747396.91649478 16278.30560858
0.13200001 738344.11307466 16202.96232524
0.13300001 729346.36889415 17591.83524706
0.13400001 720403.23725872 21882.24936339
0.13500001 711518.78678655 21772.47590220
0.13600001 702692.42394950 15884.36299234
0.13700001 693924.79515037 17237.09272432
0.13800001 685215.93014015 14286.75281712
0.13900001 676569.81161860 19891.15339962
0.14000001 667985.00249269 21191.82520350
0.14100001 659463.89623244 15451.23981745
0.14200001 651005.93705760 16756.89361021
0.14300001 642613.74404623 16656.54903133
0.14400001 634283.91289679 17934.37848312
0.14500001 626023.04673194 17822.87698120
0.14600001 617828.17514323 23159.29023777
0.14700001 609702.39531276 17596.01195884
0.14800001 601642.47167363 14791.38086393
0.14900001 593652.35065257 14692.89637187
0.15000001 585731.17809342 21226.89889565
0.15100001 577880.19329878 17128.36973758
0.15200001 570101.00703063 17008.96434736
0.15300001 562392.72188638 15589.52698635
0.15400001 554753.99635255 16767.44033103
0.15500001 547188.94640269 20486.75512015
0.15600001 539694.25577490 15251.76038800
0.15700001 532275.57522238 13876.42490097
0.15800001 524926.34407656 13771.44328684
0.15900001 517653.00367576 14908.40720955
0.16000001 510450.73143041 13560.12432052
0.16100001 503324.92093312 12230.79615602
0.16200001 496272.31025642 15774.01612613
0.16300001 489293.94539153 16851.28427480
0.16400001 482390.65855743 13133.08629923
0.16500001 475560.98440539 15393.90979197
0.16600001 468806.74478324 12917.97046240
0.16700001 462126.36570071 12810.14346205
0.16800001 455520.94539334 11547.45651095
0.16900001 448991.80388815 14884.07900169
0.17000001 442535.95966564 13621.25748170
0.17100001 436155.46375915 12378.09264599
0.17200001 429849.66011016 13385.51904793
0.17300001 423618.61446506 14373.38026757
0.17400001 417462.81897307 13150.07941868
0.17500001 411380.35828868 13032.53036608
0.17600001 405371.16559951 11838.86545047
0.17700001 399438.80472529 11731.51824887
0.17800001 393578.72900218 15851.38405926
0.17900001 387791.82724846 13611.49377934
0.18000001 382080.13561046 10373.47617182
0.18100001 376442.00126742 12332.24054405
0.18200001 370874.19582496 11198.54687193
0.18300001 365380.34976250 10084.49812983
0.18400001 359958.44706796 11986.61685362
0.18500001 354609.04554885 13851.02997349
0.18600001 349331.45335836 13718.24682148
0.18700001 344124.15934011 12615.59227743
0.18800001 338986.38689351 13454.37033147
0.18900001 333922.48057985 11420.14937540
0.19000001 328924.77775352 10366.06486069
0.19100001 323999.20795196 11197.41315590
0.19200001 319140.70830813 10163.03633629
0.19300001 314352.89857559 10977.20373696
0.19400001 309631.47874323 10868.06541745
0.19500001 304978.08717214 9862.99180522
0.19600001 300390.59812224 10651.85111278
0.19700001 295871.80395213 9666.13229191
0.19800001 291417.61864383 10438.57959314
0.19900001 287029.08114498 8610.87284130
0.20000001 282704.15796763 14490.00230144
0.20100001 278444.94865504 8436.88234299
0.20200001 274248.13650117 11691.19861161
0.20300001 270114.85007238 9092.06628317
0.20400001 266044.00748985 12271.28042548
0.20500001 262034.57194113 9716.24238683
0.20600001 258086.02612113 12020.35723477
0.20700001 254198.29134475 8724.08577133
0.20800001 250370.08682359 8634.01285224
0.20900001 246603.18148720 10098.40075927
0.21000001 242891.80287133 8456.27851671
0.21100001 239240.15439095 12172.53963085
0.21200001 235644.08588283 8281.71178987
0.21300001 232104.89886286 12665.96492974
0.21400001 228621.84722934 8847.66590606
0.21500001 225195.01337479 10944.47816744
0.21600001 221820.79768973 9386.34749801
0.21700001 218501.40834685 10002.99494706
0.21800001 215234.74209624 7777.50777337
0.21900001 212019.56682766 6996.64603613
0.22000001 208855.77817559 7615.92631127
0.22100001 205744.37844171 9591.80337649
0.22200001 202682.83875978 8813.66366022
0.22300001 199670.35614614 8721.60156887
0.22400001 196705.84498023 8630.46935661
0.22500001 193792.13445426 8540.41976925
0.22600001 190923.33573790 7801.12786715
0.22700001 188102.60047400 7719.73108851
0.22800001 185326.85219446 7002.57544132
0.22900001 182596.45999511 8189.45161807
0.23000001 179911.03450251 8727.48469646
0.23100001 177270.67373871 7402.82368543
0.23200001 174671.64534942 6715.25172305
0.23300001 172116.45762977 7249.54553823
0.23400001 169601.84158034 5978.46519846
0.23500001 167128.48987435 6507.98370351
0.23600001 164696.19569294 7025.94004057
0.23700001 162303.51732188 7532.50659518
0.23800001 159949.57858862 7454.45046271
0.23900001 157634.32141277 6809.80300713
0.24000001 155356.51930398 7862.59381388
0.24100001 153116.72071041 5558.13722469
0.24200001 150913.58780350 7151.04069633
0.24300001 148745.40633561 7621.71498117
0.24400001 146612.66895435 6465.61900673
0.24500001 144514.08433196 5865.82696051
0.24600001 142449.53317037 6333.30654435
0.24700001 140419.17943901 6790.67183891
0.24800001 138421.26368143 6721.04477600
0.24900001 136453.86403814 6140.42417220
0.25000001 134519.67059961 5571.13242144
0.25100001 132615.38654820 5012.86184868
0.25200001 130743.44259176 5954.05665731
0.25300001 128899.54539608 5402.18020313
0.25400001 127085.80624209 6319.34201436
0.25500001 125299.27828577 6736.08951934
0.25600001 123542.34315598 5715.06906479
0.25700001 121812.00390474 6599.77468382
0.25800001 120108.51389755 5132.83758427
0.25900001 118432.82253374 4618.88029736
0.26000001 116781.96144484 5943.61820896
0.26100001 115156.56436370 6335.91447108
0.26200001 113557.16993083 6719.74584861
0.26300001 111980.80566997 5764.77214866
0.26400001 110429.47008639 5267.48597237
0.26500001 108901.68704561 6952.28402997
0.26600001 107396.36410738 4731.34704464
0.26700001 105914.24731681 7238.18000414
0.26800001 104454.67146053 4214.74619288
0.26900001 103015.64326893 4589.34712481
0.27000001 101598.80806717 4542.99091771
0.27100001 100202.59418869 4497.09264000
0.27200001 98827.60135812  4856.38856056
0.27300001 97472.45930077  4406.73009353
0.27400001 96135.44788594  5948.38111945
0.27500001 94820.14635232  5495.77594267
0.27600001 93521.48140629  4274.39950996
0.27700001 92243.48615431  4231.20891015
0.27800001 90982.44017830  4569.13836200
0.27900001 89739.77729780  4522.88498987
0.28000001 88514.15066800  4850.13311540
0.28100001 87306.05514488  4431.65556890
0.28200001 86115.35915736  4021.15688617
0.28300001 84941.13003759  5427.73846630
0.28400001 83782.45314670  5730.72006647
0.28500001 82640.48023916  3545.27677006
0.28600001 81513.87106308  4561.92400997
0.28700001 80403.65954487  3820.78208242
0.28800001 79306.69075163  3781.73972749
0.28900001 78226.85758961  3402.86846622
0.29000001 77160.37624775  4378.46575743
0.29100001 76109.22033367  4000.30081009
0.29200001 75071.72370788  3959.28289577
0.29300001 74048.50378085  3918.64700558
0.29400001 73038.37117727  3555.14288534
0.29500001 72042.82528067  4478.18223143
0.29600001 71059.58520025  3482.27513758
0.29700001 70089.71675984  3759.61258497
0.29800001 69133.41646218  4340.88742515
0.29900001 68189.98302784  3989.11419597
0.30000001 67257.70972587  3340.35431167
0.30100001 66339.55607368  4207.25484536
0.30200001 65432.15919380  5055.61601945
0.30300001 64538.08917805  4120.11180818
0.30400001 63655.37742387  3203.45702051
0.30500001 62784.97115796  3746.37940636
0.30600001 61924.98369470  4562.63301463
0.30700001 61077.40652452  3386.13157803
0.30800001 60240.84049263  3350.59570683
0.30900001 59415.89587945  2762.83928920
0.31000001 58602.20634837  3280.55166670
0.31100001 57798.49582029  3245.96367895
0.31200001 57006.91073382  2944.12204424
0.31300001 56225.07169575  3707.48140315
0.31400001 55455.42954412  3406.34992103
0.31500001 54694.76876184  2851.78537827
0.31600002 53946.07178372  3078.16300172
0.31700002 53207.08069999  3806.96680434
0.31800002 52478.15909602  3766.62004746
0.31900002 51760.08812231  2732.93278226
0.32000002 51052.48538920  3195.63047425
0.32100002 50354.14249280  2675.31571732
0.32200002 49667.05389257  3368.91642505
0.32300002 48988.34556662  3095.08381945
0.32400002 48320.94868171  3297.90490369
0.32500002 47662.58134965  3029.91043987
0.32600002 47014.28046571  2997.86573585
0.32700002 46376.11003501  2281.70472177
0.32800002 45748.23049489  2709.21033820
0.32900002 45128.05350390  3127.37425591
0.33000002 44518.90755951  3757.61857050
0.33100002 43918.18272349  3061.97584448
0.33200002 43328.43935139  2380.68121290
0.33300002 42747.38536117  2141.64410801
0.33400002 42176.31919889  2331.29615412
0.33500002 41614.23268517  2516.82891199
0.33600002 41061.22704417  2490.77415045
0.33700002 40517.36704128  2054.23060627
0.33800002 39983.84118215  3253.08547264
0.33900002 39458.50427775  2213.62219481
0.34000002 38942.64122146  3187.06590850
0.34100002 38436.12572484  2168.95067737
0.34200002 37939.14139272  1951.96891710
0.34300002 37450.57408627  2318.93965725
0.34400002 36971.80878913  2104.62031500
0.34500002 36501.76011025  1894.44143944
0.34600002 36041.27494386  2813.92267451
0.34700002 35588.52261074  2229.26516192
0.34800002 35145.62225113  2207.84809438
0.34900002 34711.23952671  2186.80819375
0.35000002 34285.98702524  2707.73595356
0.35100002 33870.18576499  2324.84966102
0.35200002 33461.77758596  1771.80120709
0.35300002 33063.21321763  1931.22237551
0.35400002 32672.82871476  1739.82821147
0.35500002 32291.41378124  2069.23389311
0.35600002 31918.42079187  2051.07781723
0.35700002 31553.96297885  2541.67183833
0.35800002 31198.29443436  2016.03388184
0.35900002 30851.73918819  2498.99099261
0.36000002 30513.33102339  2313.21573445
0.36100002 30182.75735255  1638.92380187
0.36200002 29862.09791473  1625.99130847
0.36300002 29548.43834150  2581.35169578
0.36400002 29243.52284618  2561.73272267
0.36500002 28946.20251601  1906.97591208
0.36600002 28657.98682840  2208.67114949
0.36700002 28377.35192799  1879.71588075
0.36800002 28105.59525172  2177.90267922
0.36900002 27841.62893016  1545.21047882
0.37000002 27585.05833800  1535.10856923
0.37100002 27336.39638359  1525.37099046
0.37200002 27096.46581495  1667.65206758
0.37300002 26863.76681153  1657.76312847
0.37400002 26638.79275123  1947.96181221
0.37500002 26421.65433963  1639.19951288
0.37600002 26212.32575822  1630.53780103
0.37700002 26010.46377490  1917.23137567
0.37800002 25815.91358663  2054.68865969
0.37900002 25629.72849982  1899.16297180
0.38000002 25449.87692716  1599.90658882
0.38100002 25276.81341177  2317.37836337
0.38200002 25112.12928520  2596.84541240
0.38300002 24953.76510351  2299.73910089
0.38400002 24802.94535286  2005.31822678
0.38500002 24658.22017084  1570.48211708
0.38600002 24521.53942832  2419.90823313
0.38700002 24390.68457009  2129.30686385
0.38800002 24266.47367355  1415.94880593
0.38900002 24149.01812316  1695.26115256
0.39000002 24038.63750269  1550.85277196
0.39100002 23933.77296000  1829.49769174
0.39200002 23836.09937743  1405.13812487
0.39300002 23743.86967872  1683.91531739
0.39400002 23659.11991336  1401.80292128
0.39500002 23578.76528398  1680.69446907
0.39600002 23504.99133236  1679.66676019
0.39700002 23436.39925071  1539.06841171
0.39800002 23374.74914430  1398.97880257
0.39900002 23317.50614056  1678.86052166
0.40000002 23266.32876931  1539.41671596
0.40100002 23220.09567192  1540.18901889
0.40200002 23179.70985617  1681.45623263
0.40300002 23144.30382591  1402.54487830
0.40400002 23113.92712677  1965.83959527
0.40500002 23088.15538684  1406.06872968
0.40600002 23067.95024354  1689.95811491
0.40700002 23052.10846442  1692.94692584
0.40800002 23040.68700013  2544.38318598
0.40900002 23033.58558808  1699.87869694
0.41000002 23031.51336951  1703.87143981
0.41100002 23033.35187490  1423.46121332
0.41200002 23038.53161195  1712.68452118
0.41300002 23049.19110676  2003.89676977
0.41400002 23062.94439892  1435.66835686
0.41500002 23080.37833360  2016.30194676
0.41600002 23100.65914627  1589.44092787
0.41700002 23125.98278431  2319.99870285
0.41800002 23155.05366897  2037.41326887
0.41900002 23185.68025715  2191.04688812
0.42000002 23220.00446409  1466.34335139
0.42100002 23258.24847946  1913.92135807
0.42200002 23298.91284960  1921.81091746
0.42300002 23342.21593286  2078.39100515
0.42400002 23387.99066012  1490.98447523
0.42500002 23437.03829544  1647.38949985
0.42600002 23487.33693021  2406.98240267
0.42700002 23540.99782289  1662.46534503
0.42800002 23596.36294760  1973.95383592
0.42900002 23654.63361108  1525.72394021
0.43000002 23714.77908008  1993.10870223
0.43100002 23775.08688643  1540.62570325
0.43200002 23838.75052616  1857.99230406
0.43300002 23903.12187990  2178.53063137
0.43400002 23969.50965617  2033.21375294
0.43500002 24036.96882108  2043.62318601
0.43600002 24106.20253261  2054.21014616
0.43700002 24176.01500587  2382.54639173
0.43800002 24246.39043273  2235.27483992
0.43900002 24318.79043285  2247.05634248
0.44000002 24391.17398758  2420.21435361
0.44100002 24464.78501797  1784.21685591
0.44200002 24538.77285871  1793.66168711
0.44300002 24613.41303356  2458.88007858
0.44400002 24688.27491312  1977.53091426
0.44500002 24762.93642911  1987.96863074
0.44600002 24837.60137120  1831.89737595
0.44700002 24913.63327339  1841.61585885
0.44800002 24988.13601653  2019.54124857
0.44900002 25063.51026815  2199.32313026
0.45000002 25138.72526976  1700.63484510
0.45100002 25212.77586506  2051.31154160
0.45200002 25286.93224086  1890.07183992
0.45300002 25359.99524118  1727.01575777
0.45400002 25432.98926027  1909.38175921
0.45500002 25505.32260611  2267.93339362
0.45600002 25576.44504730  2103.91846930
0.45700002 25647.11054503  1761.95657795
0.45800002 25716.38038170  1770.57287319
0.45900002 25784.51539986  1957.04481160
0.46000002 25852.19868315  2323.98351077
0.46100002 25917.68299122  1796.09551642
0.46200002 25982.50475725  2526.27905728
0.46300002 26046.10716304  2175.37097336
0.46400002 26107.59641620  2003.10542997
0.46500002 26168.73390923  2012.11404565
0.46600002 26227.13524219  2572.09527511
0.46700002 26283.93310132  2029.64541028
0.46800002 26339.92726632  2038.31536811
0.46900002 26393.15683577  1860.71764511
0.47000002 26445.03902525  2055.17630526
0.47100002 26495.03682478  2626.18817455
0.47200002 26543.25360507  2259.89271905
0.47300002 26589.39544857  2646.70854840
0.47400002 26632.92571217  2466.87486101
0.47500002 26674.71781519  2285.48993073
0.47600002 26715.14836390  2102.61585164
0.47700002 26752.22339718  2109.94795934
