# SAXS profile: number of points = 501, q_min = 0, q_max = 0.5, delta_q = 0.001
#    q    intensity    error
0.00000000 1700912.83420644 255.13692513
0.00100000 1700829.69412446 561.27381239
0.00200000 1700580.21452835 841.78723285
0.00300000 1700164.61919445 1428.13833100
0.00400000 1699582.74843294 1529.62453171
0.00500000 1698835.18869067 2446.32276854
0.00600000 1697921.78396207 1961.09974032
0.00700000 1696843.12243046 3054.31774731
0.00800000 1695599.00764501 3433.58813545
0.00900000 1694190.76858303 4320.18664456
0.01000000 1692617.62358731 3630.66495937
0.01100000 1690881.07373684 3652.30327829
0.01200000 1688980.86711526 3952.21540233
0.01300000 1686918.22746449 3896.78127731
0.01400000 1684693.28017584 4169.61605328
0.01500000 1682307.25500603 4037.53759180
0.01600000 1679759.76566909 4711.72635333
0.01700000 1677053.02086451 5886.45636729
0.01800000 1674186.84330723 4771.43271813
0.01900000 1671162.22294294 7018.88165307
0.02000000 1667980.00918089 5779.55099325
0.02100000 1664642.40031959 7141.31622115
0.02200000 1661148.01787735 8023.34529087
0.02300000 1657499.99990197 9547.20043401
0.02400000 1653697.98599337 7441.64127629
0.02500000 1649744.50644399 9007.60541657
0.02600000 1645639.40637773 8664.29187087
0.02700000 1641385.11563782 7583.19958157
0.02800000 1636981.25632013 7832.95567071
0.02900000 1632430.65130978 10284.31357545
0.03000000 1627734.43567293 7568.96547379
0.03100000 1622893.26496188 9347.86563631
0.03200000 1617908.30155869 9610.37575389
0.03300000 1612783.30845774 9870.23430278
0.03400000 1607516.80091687 10127.35631306
0.03500000 1602111.78539234 10381.68484875
0.03600000 1596569.62752336 10633.15421070
0.03700000 1590892.09740191 9974.89391202
0.03800000 1585080.82076065 10199.99555365
0.03900000 1579137.83601223 12317.27569131
0.04000000 1573063.12866012 9674.33868956
0.04100000 1566860.51311925 13819.71036648
0.04200000 1560530.99009995 12078.51042373
0.04300000 1554075.56426845 15385.34880041
0.04400000 1547497.61140960 12534.73123456
0.04500000 1540798.75643990 13820.96548746
0.04600000 1533978.78630348 12977.46113541
0.04700000 1527042.19631064 13193.64518973
0.04800000 1519989.14083733 13406.30484596
0.04900000 1512824.01874347 13615.41680245
0.05000000 1505545.93277026 12669.16961422
0.05100000 1498159.49351737 12854.20905318
0.05200000 1490663.09068758 14220.92654787
0.05300000 1483062.99677366 15616.65408404
0.05400000 1475359.00694015 17040.39732482
0.05500000 1467553.78645752 16025.68809570
0.05600000 1459648.59367411 14975.99526994
0.05700000 1451648.37328574 13892.27558082
0.05800000 1443551.87725907 12775.43471026
0.05900000 1435362.35178615 15501.91412332
0.06000000 1427083.27541747 16975.15635415
0.06100000 1418715.71516889 21110.49082824
0.06200000 1410262.60959304 13326.98228360
0.06300000 1401726.18543569 20184.85801402
0.06400000 1393106.27521275 14941.06550040
0.06500000 1384408.83401602 20558.47214682
0.06600000 1375634.28700698 19355.17532379
0.06700000 1366784.71852838 16729.44573771
0.06800000 1357863.01934003 23891.60094363
0.06900000 1348872.00608510 16995.78807240
0.07000000 1339812.30448399 21403.50256643
0.07100000 1330687.71811615 17245.71363454
0.07200000 1321499.58922210 15917.46329786
0.07300000 1312251.96748201 21848.99628232
0.07400000 1302945.76022313 19055.58263629
0.07500000 1293583.71215646 16221.54051079
0.07600000 1284166.48772264 22248.18544280
0.07700000 1274699.61753647 14913.98622447
0.07800000 1265183.19689361 16491.66374490
0.07900000 1255619.44081536 18080.92079580
0.08000000 1246012.63386732 19680.77047518
0.08100000 1236364.03740595 18248.73404831
0.08200000 1226674.59184542 16799.30932363
0.08300000 1216948.36862261 15333.55016428
0.08400000 1207186.84308216 26165.77605199
0.08500000 1197392.63726492 21624.91204419
0.08600000 1187567.88788533 18597.31399746
0.08700000 1177716.11829442 23318.78023723
0.08800000 1167836.70780619 20267.80701583
0.08900000 1157935.36130003 17195.34092297
0.09000000 1148011.50140802 21938.50082248
0.09100000 1138068.99363817 15705.35285006
0.09200000 1128108.83752674 18884.54282752
0.09300000 1118136.39333442 18918.86866426
0.09400000 1108148.19469188 22107.55752310
0.09500000 1098150.40996552 18976.03997613
0.09600000 1088144.36375686 26915.25210275
0.09700000 1078133.95905876 15848.56994325
0.09800000 1068119.58926417 20620.04964025
0.09900000 1058103.29315068 20633.01518665
0.10000000 1048086.94096784 26993.48043405
0.10100000 1038072.14452077 15882.50455815
0.10200000 1028062.50562619 20648.63639674
0.10300000 1018058.69518617 22234.40294879
0.10400000 1008064.25078232 15877.01269676
0.10500000 998081.76600769 19043.40099141
0.10600001 988108.13437090 20616.87719375
0.10700001 978151.67090967 15846.05781442
0.10800001 968210.04064526 17413.25840050
0.10900001 958287.79555736 15811.74937089
0.11000001 948384.56618444 18948.72452427
0.11100001 938503.59795074 18920.23342533
0.11200001 928645.90858046 15740.54889146
0.11300001 918813.54888728 18854.05491083
0.11400001 909008.84781369 18816.48403571
0.11500001 899233.52280889 15646.66403364
0.11600001 889488.42102724 20293.67928140
0.11700001 879776.61306869 17129.25146315
0.11800001 870097.04971394 18637.47968267
0.11900001 860452.81636174 23232.22713604
0.12000001 850845.00136034 21619.97250297
0.12100001 841278.37612709 16934.93450921
0.12200001 831749.91322906 23018.67993305
0.12300001 822265.01422727 22941.19497780
0.12400001 812821.40490706 19812.52267813
0.12500001 803422.12329736 15184.67884583
0.12600001 794070.11905336 15127.03648080
0.12700001 784764.87326592 21094.48078749
0.12800001 775508.00804856 16506.68872926
0.12900001 766301.25429106 17931.45019556
0.13000001 757145.88176262 19341.29246128
0.13100001 748041.92876386 17773.47706523
0.13200001 738992.12330092 17691.47226581
0.13300001 729997.19596608 16140.23876371
0.13400001 721056.90436237 17521.68360208
0.13500001 712175.02762288 15981.20837334
0.13600001 703351.09744049 17344.63888070
0.13700001 694585.76722037 20129.09648320
0.13800001 685879.07928757 17160.69537300
0.13900001 677235.14230625 14221.93865911
0.14000001 668651.99080816 14141.99027254
0.14100001 660132.73255659 23903.40737323
0.14200001 651676.23783493 19569.83834520
0.14300001 643285.57569667 16673.96290853
0.14400001 634956.97212778 16572.37775425
0.14500001 626697.27649839 16469.60520328
0.14600001 618503.32254443 15001.79879602
0.14700001 610378.30392988 14905.43888515
0.14800001 602319.12250226 17500.38292995
0.14900001 594329.34207534 18721.37515866
0.15000001 586408.51398053 17266.79950885
0.15100001 578557.82446931 15829.34282439
0.15200001 570778.47495731 18339.11326575
0.15300001 563070.13811316 19510.38120630
0.15400001 555431.03224115 15496.52653082
0.15500001 547865.59817609 15384.06672280
0.15600001 540370.18434820 19088.57766298
0.15700001 532950.64129536 15157.11695381
0.15800001 525600.54559038 16296.24568519
0.15900001 518326.01727191 18659.73750254
0.16000001 511122.55264317 13577.97125188
0.16100001 503995.19880734 14696.50069096
0.16200001 496941.03815092 17010.29253889
0.16300001 489960.79792971 14463.64343768
0.16400001 483055.61434651 14346.75242340
0.16500001 476223.68850811 16601.15856516
0.16600001 469467.33464762 15288.20447460
0.16700001 462784.43306660 12828.38509029
0.16800001 456176.39331464 16189.70096316
0.16900001 449644.40191848 17198.89918548
0.17000001 443185.61724637 18188.33859064
0.17100001 436802.12047089 11269.49524031
0.17200001 430492.95710757 11171.29276448
0.17300001 424258.47686809 13287.77612302
0.17400001 418099.06454086 12072.61105876
0.17500001 412012.91698475 11964.85567431
0.17600001 405999.73103399 15091.01071527
0.17700001 400063.44705339 11749.86399491
0.17800001 394199.00013149 12701.09238414
0.17900001 388407.68857260 10487.00808680
0.18000001 382691.50860453 11429.08244433
0.18100001 377048.62946558 12352.11368476
0.18200001 371475.94992315 12236.41836849
0.18300001 365977.10850525 11111.06553910
0.18400001 360550.08624816 12006.31843925
0.18500001 355195.28270640 11891.93862681
0.18600001 349912.31171841 12759.55304962
0.18700001 344699.26365708 12636.67560269
0.18800001 339555.71699863 9626.40503172
0.18900001 334485.93940925 14299.27458535
0.19000001 329482.10413055 11327.59527522
0.19100001 324550.31978328 10281.75461655
0.19200001 319685.54879811 11105.87649001
0.19300001 314891.20971333 11912.33502634
0.19400001 310163.09079057 12701.17916805
0.19500001 305502.98387753 9879.96696548
0.19600001 300908.62434254 10670.22032342
0.19700001 296382.77003335 11443.33929177
0.19800001 291921.42541907 10456.62595268
0.19900001 287525.56950647 9488.34424213
0.20000001 283193.18257005 11099.75731542
0.20100001 278926.47854157 10986.91450902
0.20200001 274721.90571501 8365.28242439
0.20300001 270580.86014507 14075.61701003
0.20400001 266502.08910208 10653.42151540
0.20500001 262484.61928589 9732.93014317
0.20600001 258527.99915503 10435.48317916
0.20700001 254631.88323210 12711.22421179
0.20800001 250795.33541340 9434.92096424
0.20900001 247019.89781755 8559.23986398
0.21000001 243299.90596550 9240.53086539
0.21100001 239639.59622089 9144.64742409
0.21200001 236034.73035295 8295.44099042
0.21300001 232486.57351841 9701.66517157
0.21400001 228994.57318461 11077.61300152
0.21500001 225558.61724335 10231.33936187
0.21600001 222175.25657189 9401.34642632
0.21700001 218846.50020749 8587.53707416
0.21800001 215570.55982547 9914.09051512
0.21900001 212345.83896804 7007.41301727
0.22000001 209172.57991972 7627.47848742
0.22100001 206051.62888136 8919.97543604
0.22200001 202980.35766025 6789.69328478
0.22300001 199958.15960644 8734.17282461
0.22400001 196983.83465000 7977.84568057
0.22500001 194060.23486390 7236.50650027
0.22600001 191181.46989347 9113.62110079
0.22700001 188350.77922283 8374.07604025
0.22800001 185564.96865462 7648.98836966
0.22900001 182824.42790965 10091.90889787
0.23000001 180128.86717631 8113.90520568
0.23100001 177478.20497694 6176.24182529
0.23200001 174868.97559464 8556.33938051
0.23300001 172303.41411119 7257.42014560
0.23400001 169778.49733711 6583.16154560
0.23500001 167294.76873882 7106.68211214
0.23600001 164852.10045047 5860.49244820
0.23700001 162448.89414839 6379.36837494
0.23800001 160084.46659756 6886.83407877
0.23900001 157758.79631428 6247.24862954
0.24000001 155470.39539727 6182.28056540
0.24100001 153220.12043759 6118.07969847
0.24200001 151006.43222603 6054.60318650
0.24300001 148827.69929631 5991.80345710
0.24400001 146684.33486357 7007.84442960
0.24500001 144575.16713957 6935.27109575
0.24600001 142500.08420369 6863.51688035
0.24700001 140459.14489620 7837.62065597
0.24800001 138450.68578539 6722.47336633
0.24900001 136472.67944142 5629.49829328
0.25000001 134527.95015095 5571.47531908
0.25100001 132613.18172261 5012.77850626
0.25200001 130730.68144676 7441.84439343
0.25300001 128876.25889315 7365.27854420
0.25400001 127052.07553432 7775.58739057
0.25500001 125255.06268788 6252.73302521
0.25600001 123487.71744319 6664.63242573
0.25700001 121746.98406224 6596.25190858
0.25800001 120033.14181004 6062.27411395
0.25900001 118347.19805429 5538.64913100
0.26000001 116686.00838726 7766.03765567
0.26100001 115050.45045653 4521.48291688
0.26200001 113440.82075843 4922.76464974
0.26300001 111854.39116224 4429.43409961
0.26400001 110292.92788582 5260.97290909
0.26500001 108755.12989964 4339.32988833
0.26600001 107239.88265734 5153.94900439
0.26700001 105747.87946747 5951.49093805
0.26800001 104278.45307479 4628.39935874
0.26900001 102829.70658094 5413.98430768
0.27000001 101403.15356289 4122.03838740
0.27100001 99997.36211276  5303.86033745
0.27200001 98612.85626667  4845.83598627
0.27300001 97248.22639973  4396.59252360
0.27400001 95901.90527072  4351.54915759
0.27500001 94577.24233411  4307.04781973
0.27600001 93269.41943096  3875.34456076
0.27700001 91982.31674964  4219.22906899
0.27800001 90712.31520240  4175.94162798
0.27900001 89460.67905999  4508.81843802
0.28000001 88226.28658394  5206.23341772
0.28100001 87009.53093091  4416.60399909
0.28200001 85810.10164825  4735.43068358
0.28300001 84627.43002266  4686.66729648
0.28400001 83460.35888989  4995.10271598
0.28500001 82310.14051977  3884.21571497
0.28600001 81175.41758303  5940.82321700
0.28700001 80057.09336358  5187.69989551
0.28800001 78952.27849463  5818.38843906
0.28900001 77864.56378696  5758.08476460
0.29000001 76790.42941457  5363.04384417
0.29100001 75731.68960883  3648.75297807
0.29200001 74686.76539486  3282.48349448
0.29300001 73656.28166932  3573.06639291
0.29400001 72638.95101662  4178.55585503
0.29500001 71636.40874132  3498.72236854
0.29600001 70646.29043795  3776.75086559
0.29700001 69669.61256890  3114.23182925
0.29800001 68706.67633729  4314.09241144
0.29900001 67756.73045792  3353.95831644
0.30000001 66818.22434033  3921.89586332
0.30100001 65893.77666188  3581.98586891
0.30200001 64980.40206337  3839.36723767
0.30300001 64080.31000943  2922.06227476
0.30400001 63191.86222698  4336.54175063
0.30500001 62315.92409786  4004.42147211
0.30600001 61450.40540929  3395.74956368
0.30700001 60597.57624626  3079.56897063
0.30800001 59755.86622029  3600.58988957
0.30900001 58925.91583487  3836.07730247
0.31000001 58107.33406431  3523.91944117
0.31100001 57299.02066732  2949.75372361
0.31200001 56502.84226576  3448.65114097
0.31300001 55716.69138510  3411.53317503
0.31400001 54942.84960334  2596.04976667
0.31500001 54178.12559666  3338.45625733
0.31600002 53425.56386878  3810.57852336
0.31700002 52682.85312200  2764.26943419
0.31800002 51950.36100206  2982.98986998
0.31900002 51228.92020883  3442.58360104
0.32000002 50518.03495853  2918.93219811
0.32100002 49816.66917811  2646.75975876
0.32200002 49126.70562919  2618.20790048
0.32300002 48445.29127191  2825.32952076
0.32400002 47775.28841201  3260.66358852
0.32500002 47114.56001140  2995.07272175
0.32600002 46464.03980757  3874.40414282
0.32700002 45823.79840442  2930.89028473
0.32800002 45194.04762234  3122.45689809
0.32900002 44572.19038273  2868.22058695
0.33000002 43961.44224650  2182.68571090
0.33100002 43359.31008910  3238.94061703
0.33200002 42768.38957729  3204.42174082
0.33300002 42186.23513728  2536.23657656
0.33400002 41614.30226789  2300.23066679
0.33500002 41051.54468413  2896.59713008
0.33600002 40497.98942521  2661.32550111
0.33700002 39953.78120055  2430.78816336
0.33800002 39419.95243631  2405.40561158
0.33900002 38894.63278353  2380.35163908
0.34000002 38378.80593005  2159.38361792
0.34100002 37872.56026543  2137.14867699
0.34200002 37376.02744447  2307.59604371
0.34300002 36888.02003219  2093.76411619
0.34400002 36410.04968414  2261.06419247
0.34500002 35940.85667656  2238.39665983
0.34600002 35481.48096465  2770.21675751
0.34700002 35030.01388881  2742.85021740
0.34800002 34588.50605070  2716.06256627
0.34900002 34155.62169041  2151.80426841
0.35000002 33732.09859447  1775.99507511
0.35100002 33318.21661521  2638.80288090
0.35200002 32911.77471393  2265.48211973
0.35300002 32515.40242096  2417.19513046
0.35400002 32127.30171854  1710.77889754
0.35500002 31748.44016780  2373.51349936
0.35600002 31378.02276578  1680.29319869
0.35700002 31016.28697490  1832.13215839
0.35800002 30663.57689798  2146.60380242
0.35900002 30320.05214923  1637.28289361
0.36000002 29984.80944540  2435.51626256
0.36100002 29657.57551599  1932.48771216
0.36200002 29340.43685946  1917.10423520
0.36300002 29030.25930902  2219.07312669
0.36400002 28729.16934989  2359.38314462
0.36500002 28435.67773404  2029.45441601
0.36600002 28151.46702204  1704.71216627
0.36700002 27874.95594580  1846.43716931
0.36800002 27607.49003007  2292.11196832
0.36900002 27347.87890017  1821.36882103
0.37000002 27095.81821674  1809.45882623
0.37100002 26851.74494783  1498.32743906
0.37200002 26616.55465687  2233.79445539
0.37300002 26388.78977171  1924.53452922
0.37400002 26168.74973368  1913.58991492
0.37500002 25956.72834748  2049.54336741
0.37600002 25752.55598773  1601.93782110
0.37700002 25556.07619546  1449.02958893
0.37800002 25366.84497243  1874.73676650
0.37900002 25186.20872484  1579.17536186
0.38000002 25011.99992942  2144.15379552
0.38100002 24844.58731183  1565.95441245
0.38200002 24685.71001752  1560.01351846
0.38300002 24533.29363842  2402.30022688
0.38400002 24388.42383564  1830.96100620
0.38500002 24249.77884227  1965.68716608
0.38600002 24119.27591165  1820.16124290
0.38700002 23994.65979612  1675.78711955
0.38800002 23876.74013082  1671.84942316
0.38900002 23765.74432691  1668.35533079
0.39000002 23661.74192014  2081.64184404
0.39100002 23563.46169215  1662.63793577
0.39200002 23472.48489986  1522.07335544
0.39300002 23386.88358256  1796.81435078
0.39400002 23308.88282373  1519.15651001
0.39500002 23235.43199620  1518.20319856
0.39600002 23168.45630600  1655.61796607
0.39700002 23106.82614182  1517.42534463
0.39800002 23052.14545941  2069.50645667
0.39900002 23001.95677241  1518.12921891
0.40000002 22957.83443826  1657.09656827
0.40100002 22918.73111998  2211.19928322
0.40200002 22885.50832026  1521.77194786
0.40300002 22857.33921717  1523.67030441
0.40400002 22834.21760844  1803.33242107
0.40500002 22815.69691715  1806.31881051
0.40600002 22802.89161878  1392.11659929
0.40700002 22794.29572368  1813.51425370
0.40800002 22790.28192266  1957.45740708
0.40900002 22790.59814679  1541.78403768
0.41000002 22795.88138423  1545.90276932
0.41100002 22805.21360327  1409.36226746
0.41200002 22817.78507733  2403.05514928
0.41300002 22835.96432154  2127.17017734
0.41400002 22857.15066431  1992.00077478
0.41500002 22882.09183259  1713.41111761
0.41600002 22909.84713770  2006.21540891
0.41700002 22942.65212857  1870.05566361
0.41800002 22979.20996235  1588.66775602
0.41900002 23017.29732621  1450.08980026
0.42000002 23059.11002663  2184.27430077
0.42100002 23104.82023321  2047.54926609
0.42200002 23152.92537333  1615.95850300
0.42300002 23203.64276550  1918.47727476
0.42400002 23256.88632333  1482.62657337
0.42500002 23313.37003212  2085.61418190
0.42600002 23371.01314904  2095.67884838
0.42700002 23432.05184320  1805.20535954
0.42800002 23494.70840100  2116.63838015
0.42900002 23560.24845962  1519.63609766
0.43000002 23627.65444860  2138.53910548
0.43100002 23695.26622666  1535.45332425
0.43200002 23766.05369269  1852.32631259
0.43300002 23837.61641933  1862.19468292
0.43400002 23911.17583080  1872.24515627
0.43500002 23985.64351189  1568.66116001
0.43600002 24061.95399064  1734.98727471
0.43700002 24138.71575336  1744.50507017
0.43800002 24216.00151154  1913.54853012
0.43900002 24295.29783452  1763.83870637
0.44000002 24374.52270388  1612.37475327
0.44100002 24454.87807561  1945.63019190
0.44200002 24535.59017233  1630.39004422
0.44300002 24616.86544424  1803.43164791
0.44400002 24698.30295330  1978.33416031
0.44500002 24779.45188092  1989.29449127
0.44600002 24860.58208065  1833.59231825
0.44700002 24942.97190869  1676.16779170
0.44800002 25023.83838140  3033.64007075
0.44900002 25105.37216980  2033.53524213
0.45000002 25186.79961266  1703.88707455
0.45100002 25266.93473512  2227.02773310
0.45200002 25347.06048244  2066.79940969
0.45300002 25426.09242685  2077.82037160
0.45400002 25504.86588224  2088.84861475
0.45500002 25583.02769552  2099.85501277
0.45600002 25659.81475862  2110.77646208
0.45700002 25736.07996320  1768.06877727
0.45800002 25810.81619048  1954.78225683
0.45900002 25884.40643875  3036.24101917
0.46000002 25957.40931541  2333.44142100
0.46100002 26028.11579872  2525.24791448
0.46200002 26098.13208706  2175.01843122
0.46300002 26166.71274049  2185.44395167
0.46400002 26233.15818896  2561.66801856
0.46500002 26299.17385369  2757.46850925
0.46600002 26362.29339333  2400.68236165
0.46700002 26423.79786523  2040.44576786
0.46800002 26484.33282034  2235.80748266
0.46900002 26542.03778786  2619.69925383
0.47000002 26598.23046981  3006.66411481
0.47100002 26652.49231113  2264.39585408
0.47200002 26704.86138744  3410.47800944
0.47300002 26755.07911726  2092.51483694
0.47400002 26802.50302742  2291.61411746
0.47500002 26848.13365609  1916.95683390
0.47600002 26892.33182798  2308.97572019
0.47700002 26932.97944630  2703.53260496
