# SAXS profile: number of points = 501, q_min = 0, q_max = 0.5, delta_q = 0.001
#    q    intensity    error
0.00000000 1682732.95097188 252.40994265
0.00100000 1682650.27039589 555.27460242
0.00200000 1682402.16209173 757.08099691
0.00300000 1681988.85953317 1110.11268684
0.00400000 1681410.20963977 1513.26924618
0.00500000 1680666.76875148 1663.86016692
0.00600000 1679758.40939659 1940.12104184
0.00700000 1678685.69406618 2618.74979158
0.00800000 1677448.46068573 2491.01106929
0.00900000 1676047.99691023 3519.70094397
0.01000000 1674483.56842788 4144.34701081
0.01100000 1672756.61279917 4215.34684779
0.01200000 1670866.92587840 3909.82877798
0.01300000 1668815.72149824 4906.31843760
0.01400000 1666603.09948254 4124.84285408
0.01500000 1664230.32242727 5192.39883718
0.01600000 1661696.98636541 5508.52575605
0.01700000 1659005.27860462 6271.04023444
0.01800000 1656155.05020586 6136.05473712
0.01900000 1653147.23046231 6943.21868124
0.02000000 1649982.77828852 6756.67978273
0.02100000 1646663.78046976 7607.58701069
0.02200000 1643188.89331830 7369.70252136
0.02300000 1639561.26729651 8853.63124640
0.02400000 1635780.57471062 6134.17743487
0.02500000 1631849.20775139 7000.63342098
0.02600000 1627767.15260204 9229.44017739
0.02700000 1623536.85946850 10228.28268312
0.02800000 1619157.77122313 7747.67029061
0.02900000 1614632.83252935 11625.35692798
0.03000000 1609963.11982015 11229.49327691
0.03100000 1605149.32907159 10016.13227428
0.03200000 1600192.56919042 9505.14429878
0.03300000 1595096.68098843 10575.49148249
0.03400000 1589860.14658581 9181.44277017
0.03500000 1584485.92118866 11978.71411734
0.03600000 1578975.37280847 12268.63921370
0.03700000 1573330.32222510 13451.97487715
0.03800000 1567552.36133666 9170.18173821
0.03900000 1561643.48635317 10306.84748724
0.04000000 1555603.70733466 12437.05221646
0.04100000 1549436.91189422 10737.59829729
0.04200000 1543143.90207495 16920.57367125
0.04300000 1536725.87325419 12170.86948112
0.04400000 1530186.15132124 13427.38410144
0.04500000 1523526.27543935 12614.79814678
0.04600000 1516746.13579289 20316.81543341
0.04700000 1509850.02064607 15219.28891593
0.04800000 1502838.38233042 12150.44888648
0.04900000 1495715.35955317 14583.22543446
0.05000000 1488480.17296567 13664.24862412
0.05100000 1481137.36591535 12708.15919155
0.05200000 1473685.36337721 11715.79918482
0.05300000 1466130.49616421 14250.78908706
0.05400000 1458472.46916341 14438.87811806
0.05500000 1450713.90332911 17060.39629901
0.05600000 1442855.99247591 14803.70317361
0.05700000 1434903.94106107 18725.49730493
0.05800000 1426856.37498429 13890.44745905
0.05900000 1418716.33827559 14045.29240493
0.06000000 1410487.54279075 19358.94242923
0.06100000 1402170.88881581 23472.34177567
0.06200000 1393769.42300990 14488.23382942
0.06300000 1385285.53322451 18618.23843704
0.06400000 1376718.59542303 13423.00693312
0.06500000 1368074.80495381 21670.30592416
0.06600000 1359354.63783453 15027.66622438
0.06700000 1350559.98435973 13775.71248516
0.06800000 1341694.04010657 18052.49415465
0.06900000 1332759.24667718 16792.76729435
0.07000000 1323756.65568408 16917.61085187
0.07100000 1314689.66713702 18458.24379115
0.07200000 1305559.83763564 14295.88089183
0.07300000 1296370.96357986 15828.69020697
0.07400000 1287124.26764890 14480.14868965
0.07500000 1277822.15920838 20394.04261689
0.07600000 1268465.61196997 16115.85635560
0.07700000 1259060.00573021 17677.20330931
0.07800000 1249605.29147542 16288.60573826
0.07900000 1240103.80773032 19345.62030797
0.08000000 1230560.16186812 14951.30666808
0.08100000 1220974.79644632 16519.78977100
0.08200000 1211349.36510243 21113.82042451
0.08300000 1201687.81721007 21197.77409044
0.08400000 1191991.30981612 16717.67890488
0.08500000 1182262.85416790 18301.42984168
0.08600000 1172504.13988774 15301.17974395
0.08700000 1162718.80373007 23021.83339491
0.08800000 1152906.40788942 18469.56152179
0.08900000 1143072.84942259 26233.52312643
0.09000000 1133216.92126406 24749.45872303
0.09100000 1123342.91109678 18602.55948173
0.09200000 1113451.68819805 15532.65178019
0.09300000 1103548.78174644 15560.03855382
0.09400000 1093630.46087970 17142.65827995
0.09500000 1083703.01784607 18726.38902857
0.09600000 1073767.63012445 15623.31975273
0.09700000 1063828.35352540 18765.93303843
0.09800000 1053885.43204420 31300.39880338
0.09900000 1043941.22096656 17225.03095591
0.10000000 1033997.06244190 17231.56185595
0.10100000 1024055.04486315 20368.45580029
0.10200000 1014118.49383518 23502.19720009
0.10300000 1004188.27234846 23498.00667832
0.10400000 994267.60827950 25055.54490738
0.10500000 984359.01605168 21911.83272825
0.10600001 974460.00808562 17204.09225227
0.10700001 964578.25603976 21876.63587644
0.10800001 954711.70187418 17170.49076628
0.10900001 944864.96549860 20267.35446384
0.11000001 935037.40902723 15568.37359310
0.11100001 925232.27983894 17098.29333630
0.11200001 915450.97702230 18620.27374922
0.11300001 905695.09693408 23231.08033010
0.11400001 895967.29254071 18546.52382885
0.11500001 886268.84002696 23131.61781392
0.11600001 876601.15915042 16922.78617432
0.11700001 866966.79871696 16879.84436597
0.11800001 857365.10790937 19895.15826607
0.11900001 847798.84601967 30520.75989429
0.12000001 838269.19252937 15214.58656109
0.12100001 828780.88970901 21233.36739461
0.12200001 819331.15401657 21163.32470528
0.12300001 809924.83354298 16571.06287503
0.12400001 800560.18736958 16511.55464248
0.12500001 791240.02660497 19440.76836974
0.12600001 781967.23426818 20855.06712070
0.12700001 772741.45516519 16320.30030221
0.12800001 763564.01460800 17729.95725480
0.12900001 754436.83456910 14711.51896748
0.13000001 745361.30873245 21969.52561042
0.13100001 736337.27698672 20411.27028021
0.13200001 727367.30963414 15962.07636238
0.13300001 718452.39703072 15884.98324721
0.13400001 709592.40380397 15806.17153993
0.13500001 700790.69354445 20014.58315128
0.13600001 692046.91588143 15643.72127111
0.13700001 683362.03687349 19803.83276241
0.13800001 674735.84485889 14068.24302871
0.13900001 666172.03731667 15388.57478771
0.14000001 657669.54094611 18082.62488110
0.14100001 649230.56121385 16594.33392726
0.14200001 640854.67530001 23368.76683701
0.14300001 632544.40619891 15029.25580018
0.14400001 624296.31057990 14936.28993517
0.14500001 616117.03167080 18890.14908212
0.14600001 608003.59050328 16087.77576365
0.14700001 599958.91473027 13319.08853536
0.14800001 591979.91232739 18523.05233062
0.14900001 584070.65753291 13141.59041452
0.15000001 576230.20411811 13051.61473909
0.15100001 568459.47398151 23329.57791301
0.15200001 560760.28299847 20591.11856334
0.15300001 553131.82800686 14055.08041290
0.15400001 545572.87384816 13953.02690712
0.15500001 538087.12921317 17627.73518493
0.15600001 530671.60410166 17496.24361297
0.15700001 523331.79953744 13643.26065786
0.15800001 516061.15653911 16000.47691370
0.15900001 508866.01816812 14655.34201498
0.16000001 501741.75217859 15752.18305319
0.16100001 494693.67059691 13223.16243924
0.16200001 487718.60298041 15502.13652753
0.16300001 480817.24259800 11828.10472629
0.16400001 473990.59220934 15250.64802431
0.16500001 467237.18946415 13961.04788031
0.16600001 460558.96086110 18459.20402283
0.16700001 453954.36112620 13727.58052860
0.16800001 447424.36373308 14744.87060302
0.16900001 440970.04112913 12369.21023772
0.17000001 434588.73669842 13376.64194722
0.17100001 428282.58322339 12154.66028584
0.17200001 422050.60936688 15333.09936237
0.17300001 415892.80077609 11940.28287416
0.17400001 409810.16312324 10757.51729002
0.17500001 403800.39184889 15990.49627241
0.17600001 397863.40722485 12675.92875286
0.17700001 392003.02475804 16746.37000860
0.17800001 386214.24180858 11406.83817059
0.17900001 380498.55959998 14382.84623223
0.18000001 374857.16191826 13230.58415485
0.18100001 369289.17004518 12097.91378214
0.18200001 363791.23647526 10984.67690426
0.18300001 358366.51912282 12858.19131354
0.18400001 353013.60010484 11755.35343882
0.18500001 347732.42241519 12612.25555683
0.18600001 342522.70908432 10568.53868809
0.18700001 337383.02069644 12368.46212308
0.18800001 332312.30413499 9421.05426734
0.18900001 327314.89528382 10261.32245197
0.19000001 322383.17367716 9236.27836225
0.19100001 317523.15357189 10059.13398045
0.19200001 312729.90389286 10864.23737459
0.19300001 308006.60897943 11651.89056827
0.19400001 303349.27034762 10647.55989234
0.19500001 298759.47417331 10540.23474691
0.19600001 294235.34218021 10433.58572676
0.19700001 289779.08439716 12049.01489864
0.19800001 285387.05991716 8518.80414112
0.19900001 281060.23920282 9274.98833203
0.20000001 276796.38401214 9179.95250962
0.20100001 272597.82160532 10737.62870052
0.20200001 268461.21732674 10627.03779015
0.20300001 264387.52902359 12135.38815576
0.20400001 260375.95197001 10408.52917197
0.20500001 256425.17096409 11885.30723597
0.20600001 252534.71950445 10193.56443463
0.20700001 248704.58009688 8535.54159239
0.20800001 244933.43912585 9982.26278344
0.20900001 241223.15490809 8358.38271268
0.21000001 237567.86335019 11278.53484571
0.21100001 233971.68928500 8928.36008519
0.21200001 230430.62429834 8834.71055325
0.21300001 226945.97218043 8741.95926167
0.21400001 223516.87103213 7929.26137473
0.21500001 220143.55069589 8559.18165571
0.21600001 216822.33996387 7763.32424945
0.21700001 213555.23899254 7681.58230974
0.21800001 210340.47926215 8291.62208455
0.21900001 207176.84219095 11622.62139645
0.22000001 204063.85292311 8794.13215753
0.22100001 201002.91771483 8701.41671931
0.22200001 197991.14790153 7947.36505255
0.22300001 195027.96039387 7863.52773491
0.22400001 192112.34617126 7780.55038785
0.22500001 189246.84429014 8340.10882225
0.22600001 186425.85311486 8252.14077836
0.22700001 183652.36147552 7537.09327138
0.22800001 180923.44414927 7457.66472051
0.22900001 178239.17058212 7379.10201106
0.23000001 175599.46236966 7301.42599063
0.23100001 173004.36973336 9030.82852717
0.23200001 170449.98550128 6552.95000251
0.23300001 167938.98320219 11199.85131944
0.23400001 165468.27173380 11665.51370896
0.23500001 163038.02309817 5771.54629065
0.23600001 160648.43265361 6282.15725605
0.23700001 158297.99599771 5651.23872441
0.23800001 155985.84249538 6151.30198975
0.23900001 153711.79281845 5533.62480320
0.24000001 151474.69765131 6570.97269492
0.24100001 149275.17140738 5960.55787624
0.24200001 147111.79042582 5362.22501467
0.24300001 144982.92100248 5837.01267567
0.24400001 142889.00712505 5251.17126024
0.24500001 140828.82529131 5716.24228898
0.24600001 138802.24924537 6171.14829338
0.24700001 136809.21913482 6107.16383108
0.24800001 134848.19398610 7554.87042547
0.24900001 132917.46092069 7476.60753049
0.25000001 131019.29157933 5426.16421746
0.25100001 129150.53555811 6346.45761757
0.25200001 127313.71564089 6281.02245830
0.25300001 125504.58209166 6216.24224509
0.25400001 123725.07772090 6152.22978074
0.25500001 121972.44268313 4683.74202063
0.25600001 120248.82039311 5099.15147002
0.25700001 118551.35650228 6423.11279919
0.25800001 116880.53377068 6357.13253257
0.25900001 115236.85446896 5842.50879801
0.26000001 113617.70208962 4892.94657200
0.26100001 112023.51336975 5283.02914049
0.26200001 110455.04653392 5664.68732953
0.26300001 108909.10555847 5175.36094102
0.26400001 107387.92372548 4695.53718708
0.26500001 105889.73662560 6337.50103693
0.26600001 104413.71502153 4181.76948449
0.26700001 102960.43399612 4966.81157100
0.26800001 101529.29274459 4506.37787171
0.26900001 100118.47617319 5271.23801996
0.27000001 98729.37146415  6020.02370991
0.27100001 97360.50868086  5164.00162481
0.27200001 96012.55326711  5897.57136353
0.27300001 94684.02022814  5058.96744020
0.27400001 93373.42466951  5007.15013486
0.27500001 92084.02283453  4193.50659834
0.27600001 90810.91931279  4150.51326362
0.27700001 89558.11967551  4481.48852066
0.27800001 88322.07362674  3696.27895621
0.27900001 87103.95460622  5487.54939991
0.28000001 85902.69131812  3982.87847147
0.28100001 84718.58166206  5733.75387826
0.28200001 83551.48133452  4256.11266062
0.28300001 82400.56192804  3510.26410428
0.28400001 81264.92013085  4863.70570003
0.28500001 80145.65068408  3782.07343479
0.28600001 79041.55097126  4083.28671645
0.28700001 77953.38717004  4714.62107920
0.28800001 76878.33048499  4665.74609798
0.28900001 75819.96050958  4287.61896977
0.29000001 74774.89347415  3590.31668011
0.29100001 73744.71707167  3876.02251276
0.29200001 72728.04520609  3516.03751192
0.29300001 71725.27206730  4428.31850705
0.29400001 70735.34055972  3130.03896793
0.29500001 69759.85300472  4026.53890604
0.29600001 68796.35110567  4290.82862158
0.29700001 67846.06898355  3639.26331255
0.29800001 66908.97246915  3901.12782449
0.29900001 65984.53377166  3266.23457632
0.30000001 65071.29674732  3525.56302467
0.30100001 64171.61566343  3488.36919260
0.30200001 63282.69189594  3739.05802768
0.30300001 62406.70257370  3699.46950371
0.30400001 61541.99721445  3097.10115644
0.30500001 60689.33274544  3621.33265636
0.30600001 59846.95059664  3858.33308763
0.30700001 59016.81847641  4089.86571404
0.30800001 58197.42770989  3236.94108247
0.30900001 57389.46991191  3736.05466815
0.31000001 56592.52646944  2904.04563327
0.31100001 55805.57817577  3656.38165519
0.31200001 55030.44203783  2842.04731360
0.31300001 54264.98946082  3322.64546200
0.31400001 53511.50985700  2781.26085650
0.31500001 52767.01777372  3001.38811308
0.31600002 52034.17639309  3463.91528650
0.31700002 51310.84864375  2692.28035581
0.31800002 50597.55241203  3389.53019657
0.31900002 49894.95917028  3113.44559964
0.32000002 49202.54201773  2606.01276136
0.32100002 48519.50335198  3515.23818430
0.32200002 47847.51369323  3245.49700749
0.32300002 47183.64165079  2751.75011137
0.32400002 46530.98196575  2495.22402607
0.32500002 45887.49231262  2692.67817641
0.32600002 45253.84533534  2885.61158445
0.32700002 44630.08040327  3074.12008374
0.32800002 44016.62803392  3475.55311414
0.32900002 43410.77588812  2363.71685904
0.33000002 42815.81665934  2763.54701714
0.33100002 42229.27543100  2944.22522247
0.33200002 41653.61022101  2912.83710069
0.33300002 41086.51033351  2058.43426519
0.33400002 40529.39581994  2647.58290732
0.33500002 39981.06237200  2821.06389456
0.33600002 39441.81723549  1993.78395567
0.33700002 38911.68929141  2564.66956265
0.33800002 38391.67667847  2733.10359217
0.33900002 37879.93462178  1931.87675720
0.34000002 37377.55982133  2676.60718556
0.34100002 36884.36273110  1892.16789772
0.34200002 36400.86604461  2060.10711136
0.34300002 35925.67014023  1853.76466703
0.34400002 35460.19607841  2752.59785095
0.34500002 35003.35003703  2543.34353414
0.34600002 34556.02333691  3237.55397977
0.34700002 34116.46755677  2137.05562897
0.34800002 33686.67813248  1939.84745213
0.34900002 33265.37024574  1921.07522268
0.35000002 32853.21328359  1902.69393743
0.35100002 32450.42223589  2741.41180033
0.35200002 32055.00653753  2545.96901483
0.35300002 31669.44200128  1849.81219491
0.35400002 31292.08595235  2499.45548383
0.35500002 30923.67023785  1651.32406891
0.35600002 30563.48156333  1964.00941828
0.35700002 30211.96435819  2433.57384432
0.35800002 29869.15884993  1769.29970828
0.35900002 29535.48709803  1754.40801672
0.36000002 29209.94885501  1739.89068596
0.36100002 28892.21332441  1725.73198361
0.36200002 28584.35331725  1867.70173422
0.36300002 28283.52061103  2470.84847762
0.36400002 27991.48245292  1992.29385796
0.36500002 27706.95437211  1673.22305379
0.36600002 27431.56842176  1661.11870446
0.36700002 27163.74170308  1499.43861304
0.36800002 26904.80586018  1638.09918239
0.36900002 26653.69653942  1923.06429641
0.37000002 26409.95452811  2204.57105866
0.37100002 26174.11712187  1460.51580458
0.37200002 25947.01027777  1887.25588195
0.37300002 25727.16165912  1731.95260494
0.37400002 25515.01860110  1722.26383716
0.37500002 25310.75776427  1713.03216663
0.37600002 25114.28699670  1562.23429663
0.37700002 24925.27448646  1837.24206943
0.37800002 24743.58536460  1688.00747354
0.37900002 24570.27945194  1400.50599511
0.38000002 24403.31337500  1394.64942545
0.38100002 24243.10154189  1528.04276257
0.38200002 24091.31843648  1522.45094072
0.38300002 23945.80361799  1655.13402449
0.38400002 23807.89891084  1374.90622724
0.38500002 23676.14534224  1782.10354434
0.38600002 23552.38939784  1640.65952318
0.38700002 23434.47268108  1773.05228705
0.38800002 23323.25100368  1769.18528870
0.38900002 23218.74309619  1901.61514967
0.39000002 23121.29558530  1762.88326542
0.39100002 23029.46722485  2166.61237916
0.39200002 22944.68756922  1487.84833592
0.39300002 22865.44640604  2432.42630392
0.39400002 22793.61087887  2025.78226284
0.39500002 22726.37913400  1754.93107987
0.39600002 22665.58489700  1619.68277348
0.39700002 22609.97841499  2429.66839559
0.39800002 22561.31271295  2025.44194477
0.39900002 22517.10315741  1486.12887880
0.40000002 22478.93408509  1622.52953914
0.40100002 22445.68066393  1624.16952979
0.40200002 22418.33327171  2032.78246572
0.40300002 22395.91867623  1628.63128330
0.40400002 22378.50543902  1495.44369682
0.40500002 22365.76758137  1770.69790331
0.40600002 22358.60682762  1501.49231265
0.40700002 22355.72471321  2052.25562591
0.40800002 22357.31519289  1645.94562249
0.40900002 22363.16427907  1650.40160199
0.41000002 22374.00769831  1517.29340395
0.41100002 22388.80658407  1521.99114370
0.41200002 22406.94547663  1665.73240566
0.41300002 22430.50240521  1950.10797151
0.41400002 22457.16967920  1817.34654240
0.41500002 22487.54470458  1683.86742727
0.41600002 22520.75775555  1831.27550366
0.41700002 22558.94283264  1414.44578263
0.41800002 22600.79411846  1846.59797095
0.41900002 22644.24380966  1711.90491313
0.42000002 22691.36001979  2436.03107035
0.42100002 22742.33530458  1871.46686089
0.42200002 22795.83219744  2314.23299434
0.42300002 22851.78520885  1598.71096897
0.42400002 22910.30760737  1898.69183293
0.42500002 22971.97341088  1908.28192167
0.42600002 23034.86753388  2803.22833737
0.42700002 23101.18020539  1779.71500736
0.42800002 23169.08270012  1938.20970512
0.42900002 23239.86801185  1648.86871358
0.43000002 23312.41697636  1808.57739473
0.43100002 23385.21662808  2121.50695303
0.43200002 23461.22438754  1676.18725580
0.43300002 23537.94862714  1685.55258106
0.43400002 23616.67645289  2003.28467505
0.43500002 23696.28459833  2169.63192064
0.43600002 23777.73644443  1870.35683735
0.43700002 23859.65089875  1724.33705217
0.43800002 23942.13882586  1734.24890804
0.43900002 24026.53877580  1585.75163435
0.44000002 24110.96217732  2232.91631306
0.44100002 24196.47402781  1925.07156488
0.44200002 24282.29761863  1613.55875322
0.44300002 24368.73302424  1785.25346596
0.44400002 24455.29889675  1795.63040659
0.44500002 24541.62052553  1806.01794006
0.44600002 24627.90894581  2311.82192230
0.44700002 24715.37134666  2159.13494317
0.44800002 24801.37066022  2171.48411107
0.44900002 24888.04032817  1847.93708194
0.45000002 24974.57766337  2365.34236260
0.45100002 25059.81391635  1868.96101046
0.45200002 25145.05577441  1879.46728293
0.45300002 25229.26921584  1889.92464653
0.45400002 25313.11040407  2418.66781374
0.45500002 25396.34430633  2779.37605261
0.45600002 25478.25832017  1921.18815968
0.45700002 25559.63698461  2282.73128728
0.45800002 25639.48474459  3000.97363416
0.45900002 25718.20766712  2129.46769576
0.46000002 25796.23439301  3389.23841636
0.46100002 25872.12037415  3047.99464574
0.46200002 25947.20786061  2522.84713986
0.46300002 26020.87548080  1811.05301930
0.46400002 26092.37787759  2365.92647618
0.46500002 26163.45208983  2011.70792653
0.46600002 26231.68686975  2021.28272755
0.46700002 26298.24696030  2399.97813135
0.46800002 26363.82680004  2225.63436395
0.46900002 26426.64391177  2049.38633249
0.47000002 26487.87043558  2058.50494847
0.47100002 26547.16262136  1879.53920268
0.47200002 26604.57255331  2265.11341455
0.47300002 26659.75041912  2843.26251696
0.47400002 26712.21851815  2283.89479155
0.47500002 26762.86884933  2866.30338962
0.47600002 26812.06032974  3069.44481203
0.47700002 26857.71186058  3081.11685068
