# SAXS profile: number of points = 501, q_min = 0, q_max = 0.5, delta_q = 0.001
#    q    intensity    error
0.00000000 1682732.95097188 378.61491397
0.00100000 1682650.48734624 656.23370565
0.00200000 1682403.03989518 832.78953112
0.00300000 1681990.83081860 1211.03344133
0.00400000 1681413.72132632 1513.27240669
0.00500000 1680672.24862618 2420.16813381
0.00600000 1679766.29285998 2998.38295483
0.00700000 1678696.44664733 2215.87940167
0.00800000 1677462.48812249 2943.94679095
0.00900000 1676065.69887420 3016.91838694
0.01000000 1674505.43986809 2762.93409508
0.01100000 1672783.03459029 3914.31247137
0.01200000 1670898.34844236 4235.72749901
0.01300000 1668852.59872150 5256.88591783
0.01400000 1666645.75421856 4874.93904720
0.01500000 1664279.30553492 5991.40576672
0.01600000 1661752.61225692 5508.71015589
0.01700000 1659067.99694429 4479.48379269
0.01800000 1656225.27468163 6608.33914334
0.01900000 1653225.40163358 5951.61171443
0.02000000 1650069.23458597 7796.57748610
0.02100000 1646759.01107363 7064.59647780
0.02200000 1643293.23452945 7937.10668338
0.02300000 1639675.19520078 8263.96335997
0.02400000 1635904.32171460 9201.96222923
0.02500000 1631983.26626654 7637.68203495
0.02600000 1627911.88808751 7911.65213797
0.02700000 1623692.57302040 8183.41094283
0.02800000 1619324.97820300 9157.28317169
0.02900000 1614811.73151941 11626.64500077
0.03000000 1610154.32040489 10482.10510765
0.03100000 1605352.89524672 8476.26367692
0.03200000 1600408.94498625 8714.22710681
0.03300000 1595326.29696637 12204.24673441
0.03400000 1590103.21560536 11687.25917395
0.03500000 1584742.94967591 11124.89602045
0.03600000 1579246.59937264 11394.26474105
0.03700000 1573616.03809668 9866.57301517
0.03800000 1567852.87560081 13757.90962011
0.03900000 1561959.22117383 11246.10691326
0.04000000 1555934.87408643 11482.79990286
0.04100000 1549783.71716283 10740.00165792
0.04200000 1543506.79557984 14933.42894004
0.04300000 1537105.01441670 11159.38292266
0.04400000 1530581.91308947 10331.42839317
0.04500000 1523938.84897916 12618.21425585
0.04600000 1517175.77869641 13904.91665815
0.04700000 1510297.13182991 14136.38181138
0.04800000 1503303.04442118 14364.06125778
0.04900000 1496197.90277278 12343.63327244
0.05000000 1488980.68723321 11390.70278775
0.05100000 1481656.23293495 12712.61107079
0.05200000 1474222.70006975 15236.09231524
0.05300000 1466686.53665111 11880.16150070
0.05400000 1459047.34270993 14444.56936643
0.05500000 1451307.96531992 17067.38246834
0.05600000 1443469.27137044 16044.16169997
0.05700000 1435536.56627706 12489.16870959
0.05800000 1427508.69321905 15160.14302985
0.05900000 1419388.31646051 16606.84407822
0.06000000 1411179.34489150 12912.29160900
0.06100000 1402882.97133269 15656.17469171
0.06200000 1394501.55551325 15813.64837871
0.06300000 1386038.01929202 15967.15872879
0.06400000 1377491.48376707 18802.75963276
0.06500000 1368868.15088754 17617.33392602
0.06600000 1360168.57974671 13669.69486604
0.06700000 1351394.65501772 13784.22612627
0.06800000 1342549.40269735 18064.00305885
0.06900000 1333635.46281297 16803.80761818
0.07000000 1324653.83706550 21161.34603807
0.07100000 1315607.63933899 24154.55738961
0.07200000 1306498.89173971 15736.77988822
0.07300000 1297330.88793709 15840.41088392
0.07400000 1288105.28922226 17389.42221944
0.07500000 1278824.20635063 18952.17562645
0.07600000 1269488.65157387 16128.85407438
0.07700000 1260104.06712846 19166.18375970
0.07800000 1250670.21382738 16302.48700176
0.07900000 1241190.00249178 20851.99301990
0.08000000 1231667.09223896 20950.65822180
0.08100000 1222102.69901848 21044.60946447
0.08200000 1212498.08621273 15095.60188171
0.08300000 1202857.19914029 16671.60156252
0.08400000 1193181.58035103 19776.98562262
0.08500000 1183473.66158867 25953.57861703
0.08600000 1173735.53123973 21444.14916258
0.08700000 1163970.47646207 16900.85211185
0.08800000 1154178.63461752 18489.94259493
0.08900000 1144365.12002773 16993.82283061
0.09000000 1134529.57609282 20132.22827349
0.09100000 1124675.41241950 23280.78213084
0.09200000 1114803.98104765 20216.97114623
0.09300000 1104920.53503824 15579.38027615
0.09400000 1095021.98452465 17164.47041411
0.09500000 1085113.67092747 23438.45639370
0.09600000 1075197.37978886 23466.18391699
0.09700000 1065277.15110354 20357.44731465
0.09800000 1055352.94313771 18806.39033095
0.09900000 1045427.44185740 23522.11854786
0.10000000 1035501.37662779 15687.84659367
0.10100000 1025577.70005432 23537.00932323
0.10200000 1015658.95162302 15691.93154067
0.10300000 1005746.42593303 17258.60948087
0.10400000 995843.03823667 23526.79288516
0.10500000 985951.78657743 18811.96097299
0.10600001 976069.59031176 23498.87649246
0.10700001 966204.38001905 17217.76286217
0.10800001 956354.23367707 17200.03170214
0.10900001 946523.52911373 17179.40286197
0.11000001 936711.69811548 15596.25050773
0.11100001 926922.18844480 17129.52284880
0.11200001 917155.95328133 18654.95296796
0.11300001 907415.12718710 29481.91887034
0.11400001 897701.75251691 26325.10513206
0.11500001 888017.69583519 16996.65949862
0.11600001 878363.75981692 18498.34165286
0.11700001 868742.87589936 18452.09955310
0.11800001 859154.38988212 19936.67855620
0.11900001 849601.01150288 15292.81892737
0.12000001 840083.79916785 18297.02600776
0.12100001 830607.43779496 16720.12851047
0.12200001 821169.70866641 16665.64002252
0.12300001 811774.70685793 25668.31744020
0.12400001 802421.20772108 19559.01785977
0.12500001 793111.51977918 20985.73180221
0.12600001 783849.04128434 16425.55743414
0.12700001 774633.06060779 19334.84210395
0.12800001 765465.05765923 16292.92452015
0.12900001 756346.96962441 28022.65654535
0.13000001 747279.91086891 19089.26622292
0.13100001 738264.08346236 16079.39249575
0.13200001 729302.02244018 16004.53363691
0.13300001 720394.53275364 15927.92387007
0.13400001 711541.51958742 23053.94632152
0.13500001 702746.27840703 21504.03713313
0.13600001 694008.54372326 19966.62674436
0.13700001 685329.37203043 18442.21427095
0.13800001 676708.30012389 16931.24246750
0.13900001 668149.32670402 18240.47747921
0.14000001 659651.03024144 15346.78194233
0.14100001 651216.01118577 15257.99186169
0.14200001 642843.66601877 23441.29538699
0.14300001 634536.24254361 17817.77853105
0.14400001 626290.58820556 16346.18512321
0.14500001 618113.29150345 14890.34989473
0.14600001 610001.59424872 20175.80368156
0.14700001 601957.99830204 14699.81501202
0.14800001 593979.62198036 14602.98969534
0.14900001 586070.55115399 18461.22323237
0.15000001 578229.85504395 14406.59751817
0.15100001 570458.61683393 18209.03990853
0.15200001 562758.18662398 20664.48158793
0.15300001 555128.12474553 14105.80631542
0.15400001 547566.90569844 14004.02427410
0.15500001 540078.75328064 21484.33381941
0.15600001 532660.19288347 12544.14813443
0.15700001 525316.71754275 17430.00951071
0.15800001 518042.08214867 13590.83466664
0.15900001 510842.65159636 13486.24663870
0.16000001 503713.47702845 15814.08535777
0.16100001 496659.87819524 12068.83560984
0.16200001 489679.06173658 13169.91898711
0.16300001 482771.41239708 11876.17730562
0.16400001 475938.10013874 12957.41538799
0.16500001 469177.49968582 14019.02435247
0.16600001 462491.58959393 16219.58081283
0.16700001 455878.82210171 13785.77623125
0.16800001 449340.34378752 14808.01172870
0.16900001 442876.84617231 14681.36814384
0.17000001 436486.22605392 12315.45944964
0.17100001 430170.14192359 11098.39018571
0.17200001 423927.77134015 11000.92618577
0.17300001 417759.37109463 14174.57613063
0.17400001 411665.47478681 12967.46306819
0.17500001 405643.94424817 13921.70082409
0.17600001 399695.12132831 18040.24015318
0.17700001 393822.16367482 15772.57840013
0.17800001 388020.47100816 11460.18515251
0.17900001 382291.53591116 15482.80793571
0.18000001 376636.45403583 14315.95229412
0.18100001 371054.26373666 11142.76006636
0.18200001 365541.81701381 10034.12335102
0.18300001 360102.14326129 13914.34747292
0.18400001 354733.76045901 9843.86231777
0.18500001 349436.97489007 10724.22126601
0.18600001 344211.14814062 10620.63547763
0.18700001 339055.05609692 10517.48833702
0.18800001 333967.39779467 11361.57140977
0.18900001 328952.98233550 11250.19252742
0.19000001 324003.52893313 12067.51200529
0.19100001 319125.55987531 10109.89821454
0.19200001 314313.99394651 12739.14677659
0.19300001 309572.26181290 11711.11921776
0.19400001 304895.88271145 9810.02548980
0.19500001 300286.98615180 9711.28159106
0.19600001 295743.13036480 12234.89388137
0.19700001 291266.99156935 12975.94508763
0.19800001 286854.66313563 12843.91814889
0.19900001 282507.28632090 10170.26278820
0.20000001 278222.68516351 9227.25578954
0.20100001 274003.00068915 11623.20783857
0.20200001 269844.97670650 10681.81390779
0.20300001 265749.63727542 8945.13321348
0.20400001 261716.06472961 13681.20793039
0.20500001 257743.05251234 10353.53890880
0.20600001 253830.21106116 9457.71411119
0.20700001 249977.34974910 8579.22304892
0.20800001 246183.15107187 12348.54744148
0.20900001 242449.73867237 11455.75069380
0.21000001 238771.10639049 8312.81646195
0.21100001 235151.25722922 9721.15343341
0.21200001 231586.49144004 8139.10762643
0.21300001 228077.75400238 8053.42587455
0.21400001 224624.43735344 10866.20767069
0.21500001 221226.71664713 7884.52055406
0.21600001 217880.82392413 7092.02115403
0.21700001 214589.01324718 8420.47327794
0.21800001 211349.42225303 8331.39461913
0.21900001 208160.71241626 8243.16460143
0.22000001 205022.52075954 8155.79626144
0.22100001 201936.26955312 8741.82152230
0.22200001 198898.99944608 7983.80621528
0.22300001 195910.26295725 10532.13623460
0.22400001 192968.99188362 7815.24454084
0.22500001 190077.61592107 9665.44722664
0.22600001 187230.82791885 10837.85698659
0.22700001 184431.38809740 6307.55377121
0.22800001 181676.51778065 6240.58868088
0.22900001 178966.09888509 8026.62991458
0.23000001 176300.26149315 6719.68478460
0.23100001 173678.70953060 8461.62712850
0.23200001 171098.27694640 7773.85058071
0.23300001 168560.99338569 6508.14026242
0.23400001 166063.94843257 5853.75445910
0.23500001 163607.33543496 6370.86994316
0.23600001 161191.41164119 5730.35495487
0.23700001 158814.60652422 5669.68172108
0.23800001 156476.08629545 7853.53514263
0.23900001 154175.80957832 6660.39528882
0.24000001 151912.32969796 6589.95717401
0.24100001 149686.62426769 5433.62471793
0.24200001 147497.01235749 6989.14626116
0.24300001 145342.01172070 6915.37324479
0.24400001 143222.05401622 6316.09288089
0.24500001 141135.78225039 5728.70167254
0.24600001 139083.34358144 5668.34193580
0.24700001 137064.34945400 6118.55284907
0.24800001 135077.56150075 5549.66187679
0.24900001 133121.05154608 5491.24363605
0.25000001 131197.34353119 5927.49626116
0.25100001 129303.22226825 5376.42823627
0.25200001 127440.94386204 5320.02245321
0.25300001 125606.54512642 5264.17055530
0.25400001 123802.13399244 5682.51821910
0.25500001 122024.51376833 5154.31570543
0.25600001 120276.07752828 5100.30730890
0.25700001 118553.96269055 4588.03857320
0.25800001 116858.73840210 4993.95842190
0.25900001 115190.72963002 5840.17026857
0.26000001 113547.50854971 5334.46220407
0.26100001 111929.35539534 4398.82387517
0.26200001 110337.14584464 6093.92085334
0.26300001 108767.75906645 5168.64415541
0.26400001 107223.18420701 8524.24354781
0.26500001 105701.89417536 5904.50808803
0.26600001 104202.97801663 4590.66241375
0.26700001 102727.16387973 4542.59540172
0.26800001 101273.50701640 4495.02482163
0.26900001 99840.51775630  5660.95762467
0.27000001 98429.55000939  6001.74209584
0.27100001 97039.02873407  4355.11181568
0.27200001 95669.55010576  4701.20191467
0.27300001 94319.92139880  3876.54895294
0.27400001 92988.45132224  4219.35117843
0.27500001 91678.36614448  4934.12989941
0.27600001 90384.90663102  5257.69026755
0.27700001 89112.10243363  4087.57233208
0.27800001 87856.19079426  5515.17263813
0.27900001 86618.72783834  4365.58408967
0.28000001 85398.23331579  5399.30355693
0.28100001 84195.27518686  3917.60633986
0.28200001 83009.49022715  3876.12832961
0.28300001 81840.33714281  3835.03838003
0.28400001 80686.75654069  4139.23080645
0.28500001 79549.91881392  4095.23001437
0.28600001 78428.51189481  4726.88663563
0.28700001 77323.41462345  4676.52033778
0.28800001 76231.71839086  4296.03869326
0.28900001 75157.02333430  4903.99600469
0.29000001 74095.91686344  4204.57300144
0.29100001 73050.16124959  3839.51665702
0.29200001 72018.10916594  4747.79407150
0.29300001 71000.52313341  5322.90947128
0.29400001 69995.98999051  4336.25178517
0.29500001 69006.19221527  3676.65009527
0.29600001 68028.88571385  3636.82440242
0.29700001 67065.09881043  4796.49609398
0.29800001 66114.74716440  5040.91913618
0.29900001 65177.50823581  4399.48201418
0.30000001 64251.85871671  3191.06871423
0.30100001 63340.09579635  3156.23712295
0.30200001 62439.55598334  3405.45354455
0.30300001 61552.12669974  3648.81024350
0.30400001 60676.50457864  3886.33030225
0.30500001 59813.15362770  3019.96626963
0.30600001 58960.58606866  3258.16214040
0.30700001 58120.54161242  3222.20297954
0.30800001 57291.75522469  3186.56757646
0.30900001 56474.68678927  3413.89497804
0.31000001 55668.87383521  3895.42963105
0.31100001 54873.63383775  2824.89480371
0.31200001 54090.49911397  3555.36867509
0.31300001 53317.38020038  2511.24872634
0.31400001 52556.70416288  2731.63482820
0.31500001 51805.24067016  3437.79593364
0.31600002 51065.92544988  3156.64033114
0.31700002 50336.37835819  2401.04536137
0.31800002 49617.39316261  2374.19237525
0.31900002 48909.48377411  3286.71746524
0.32000002 48212.00961605  2321.40837293
0.32100002 47524.24586550  2754.50542079
0.32200002 46848.00761603  2496.76468412
0.32300002 46180.15676008  2244.35572481
0.32400002 45523.93290085  3107.00856760
0.32500002 44877.29003798  2633.39950412
0.32600002 44240.80538115  2387.01276737
0.32700002 43614.46971616  3004.16481630
0.32800002 42998.88102978  3182.99231895
0.32900002 42391.23202698  2308.20269317
0.33000002 41794.77686583  2282.62184662
0.33100002 41207.18887770  3488.60077559
0.33200002 40630.78819278  2232.45876297
0.33300002 40063.26747753  2408.60375481
0.33400002 39506.06014807  2382.21553974
0.33500002 38958.00338064  2356.18015604
0.33600002 38419.38968611  2913.15036091
0.33700002 37890.23343074  2305.24191110
0.33800002 37371.46033573  3420.60992652
0.33900002 36861.24803423  1879.92373877
0.34000002 36360.78635533  2975.76689625
0.34100002 35869.81331198  2024.13366106
0.34200002 35388.84638598  2184.90747935
0.34300002 34916.39978995  2342.19220883
0.34400002 34454.16483223  1961.30342596
0.34500002 34000.65516400  2294.02431256
0.34600002 33557.07543545  2095.97503096
0.34700002 33121.59113854  1728.94713932
0.34800002 32696.06065442  1882.80274196
0.34900002 32279.31654412  2203.06345848
0.35000002 31872.06208253  2013.67697775
0.35100002 31474.44795059  2658.96148880
0.35200002 31084.42057287  1645.92014729
0.35300002 30704.55202660  1630.41178983
0.35400002 30333.10084062  1615.23769627
0.35500002 29970.88012612  2240.62310435
0.35600002 29617.07231202  1585.99429743
0.35700002 29272.19225646  2200.68351808
0.35800002 28936.39380131  2337.33732001
0.35900002 28609.83171157  2471.88957696
0.36000002 28291.70989325  2297.99424493
0.36100002 27981.52886100  1823.27650694
0.36200002 27681.57118702  1507.26162253
0.36300002 27388.70116961  1944.05010110
0.36400002 27104.92482624  2077.59258634
0.36500002 26828.79374481  1472.90084636
0.36600002 26562.07733682  1462.24242666
0.36700002 26303.07992021  1742.31609645
0.36800002 26053.11290379  1586.24385429
0.36900002 25811.24780672  2005.53404958
0.37000002 25576.86625979  1423.35267478
0.37100002 25350.60199866  2404.75821951
0.37200002 25133.12698298  1687.43822557
0.37300002 24923.19487508  1538.01042860
0.37400002 24721.04426567  1946.78232814
0.37500002 24526.89447581  1659.98029676
0.37600002 24340.83020532  1376.47401332
0.37700002 24162.22082533  1369.99798570
0.37800002 23991.07624670  1636.67129908
0.37900002 23828.44467640  1494.04355199
0.38000002 23672.27530286  1758.73177694
0.38100002 23523.02551957  1752.23025396
0.38200002 23382.24934667  1611.97234632
0.38300002 23247.88378545  1606.89380338
0.38400002 23121.15289241  1735.82063563
0.38500002 23000.73772743  1464.91705526
0.38600002 22888.40853514  1727.27383193
0.38700002 22781.84245785  1856.26461141
0.38800002 22682.19677490  1455.85686897
0.38900002 22589.31730706  1453.62263758
0.39000002 22503.55547363  1715.78366837
0.39100002 22423.36958603  1977.74129119
0.39200002 22350.35783483  1712.81975382
0.39300002 22282.91665820  1975.38065534
0.39400002 22223.00402169  1580.05566080
0.39500002 22167.65633604  1316.75884875
0.39600002 22118.69239916  1712.31865321
0.39700002 22075.07100639  1581.45816182
0.39800002 22038.30075356  1450.89159885
0.39900002 22006.11273904  1584.44019228
0.40000002 21979.86445749  1586.50669171
0.40100002 21958.62756014  1588.92636553
0.40200002 21943.23510058  1989.70293702
0.40300002 21932.75529320  1727.86254386
0.40400002 21927.32593421  1598.50213634
0.40500002 21926.43377054  1468.85186788
0.40600002 21931.26694301  2142.24625649
0.40700002 21940.16765576  1611.28598898
0.40800002 21953.66988443  1481.54348235
0.40900002 21971.26112554  1486.35588557
0.41000002 21993.82159729  1355.91916572
0.41100002 22020.37511950  1769.11702092
0.41200002 22050.20195384  1775.81309849
0.41300002 22085.32652198  1371.49884200
0.41400002 22123.53347796  2478.94204367
0.41500002 22165.45696031  1521.43703785
0.41600002 22209.92915338  1944.92358812
0.41700002 22259.45910753  1953.93541304
0.41800002 22312.58741668  1542.58080415
0.41900002 22367.18862277  2395.52601501
0.42000002 22425.43510875  1557.78292364
0.42100002 22487.31166678  1708.13627515
0.42200002 22551.71932754  1573.99732505
0.42300002 22618.49876293  1582.39024844
0.42400002 22687.69021818  1590.97435194
0.42500002 22759.97580990  2326.98003707
0.42600002 22833.33595346  1754.97028454
0.42700002 22910.06395848  1764.99141100
0.42800002 22988.17305444  2071.00460861
0.42900002 23069.12422604  2529.52959125
0.43000002 23151.70679506  2095.46108132
0.43100002 23234.41926642  1505.59043981
0.43200002 23320.18055500  2120.50411835
0.43300002 23406.54741241  1828.51957051
0.43400002 23494.83531067  1533.03807667
0.43500002 23583.75687856  2159.32888213
0.43600002 23674.50229610  1707.05006896
0.43700002 23765.54171591  1717.53578120
0.43800002 23856.90877429  2042.27077241
0.43900002 23950.16266611  2054.92405413
0.44000002 24043.26615959  1908.55455819
0.44100002 24137.28780173  2080.39293422
0.44200002 24231.45707490  2254.25255851
0.44300002 24326.15217015  2430.18271697
0.44400002 24420.78512723  2608.13997519
0.44500002 24514.99645699  1804.05867477
0.44600002 24609.04235300  1815.04000476
0.44700002 24704.12675364  1992.14087582
0.44800002 24797.61104636  2171.15493806
0.44900002 24891.46752480  2016.20896506
0.45000002 24985.11756307  2028.29193990
0.45100002 25077.38020261  2720.39433331
0.45200002 25169.41646899  2565.39289518
0.45300002 25260.25091825  1892.24548596
0.45400002 25350.57973033  1903.19486345
0.45500002 25440.09211399  1740.10238307
0.45600002 25528.12184353  2449.93396943
0.45700002 25615.46265507  2111.73884137
0.45800002 25701.15956689  1946.47741205
0.45900002 25785.45511252  1957.11613580
0.46000002 25868.98844152  4293.21752523
0.46100002 25950.09060778  2517.67791009
0.46200002 26030.37546168  1807.80966149
0.46300002 26108.97773943  2180.62192415
0.46400002 26185.26619441  2191.70688435
0.46500002 26260.95165172  2202.76872895
0.46600002 26333.67517472  2213.60884010
0.46700002 26404.50382014  1853.59625603
0.46800002 26474.22774368  2048.70821105
0.46900002 26540.98133399  2058.25320000
0.47000002 26605.93535728  2819.56413313
0.47100002 26668.90176573  2454.60583486
0.47200002 26729.78857762  2275.77430736
0.47300002 26788.28115158  3237.89969626
0.47400002 26843.84647043  2103.88656684
0.47500002 26897.52848904  1920.48362514
0.47600002 26949.50636424  2506.70845328
0.47700002 26997.82670572  2129.31869321
