# SAXS profile: number of points = 501, q_min = 0, q_max = 0.5, delta_q = 0.001
#    q    intensity    error
0.00000000 1664650.74656090 274.66737318
0.00100000 1664568.73318283 699.11888454
0.00200000 1664322.62754342 973.62876794
0.00300000 1663912.66379006 998.34763384
0.00400000 1663338.69827561 1621.75529244
0.00500000 1662601.25283144 1645.97530545
0.00600000 1661700.22484408 2268.22089926
0.00700000 1660636.20381695 2989.14529110
0.00800000 1659408.96948882 2464.22242373
0.00900000 1658019.78718812 3233.13872323
0.01000000 1656468.03874139 3006.48962013
0.01100000 1654755.03529852 3276.41511254
0.01200000 1652880.63588114 4190.05259567
0.01300000 1650846.02802677 3813.45449293
0.01400000 1648651.26797261 3709.46551738
0.01500000 1646297.75907265 5531.56071680
0.01600000 1643784.90792989 5029.98204312
0.01700000 1641115.01353192 7532.71825002
0.01800000 1638287.87593051 6069.85685345
0.01900000 1635304.41772415 5396.50482199
0.02000000 1632165.67562292 5655.45432186
0.02100000 1628873.63226007 5912.81155318
0.02200000 1625426.92891663 6729.26779144
0.02300000 1621828.84479650 7006.30092844
0.02400000 1618078.80917042 8494.91413549
0.02500000 1614179.40324039 8183.88994819
0.02600000 1610130.57656904 8477.33787337
0.02700000 1605934.70526146 8768.40389233
0.02800000 1601591.35575483 9056.99953214
0.02900000 1597103.21034680 9343.05420951
0.03000000 1592471.70612893 8885.99252865
0.03100000 1587697.10849119 9907.23041285
0.03200000 1582780.73100456 10968.67097106
0.03300000 1577726.52805717 8851.04623044
0.03400000 1572532.87960030 8255.79799883
0.03500000 1567202.68357440 11001.76334673
0.03600000 1561737.30698729 8667.64245434
0.03700000 1556138.47150277 10643.98763734
0.03800000 1550407.95350218 11790.85303206
0.03900000 1544547.60024536 12047.47183983
0.04000000 1538557.52621036 11354.55506959
0.04100000 1532441.44371238 10619.81969733
0.04200000 1526200.22257440 12797.18945998
0.04300000 1519835.07174097 10030.91193910
0.04400000 1513349.29579040 14301.15150939
0.04500000 1506744.46280458 15594.80591464
0.04600000 1500020.33635789 15862.71579439
0.04700000 1493181.37679775 10750.90641295
0.04800000 1486227.84282454 10923.77515302
0.04900000 1479163.94748387 12203.10313477
0.05000000 1471988.66315376 13512.85655699
0.05100000 1464706.95650877 15994.60071017
0.05200000 1457317.02200923 13902.80503786
0.05300000 1449825.06657096 12917.94194535
0.05400000 1442230.89624874 15467.92708360
0.05500000 1434537.19659940 18075.16952035
0.05600000 1426744.89070196 17078.13713864
0.05700000 1418859.35121169 13578.48462492
0.05800000 1410879.43944453 13734.91198431
0.05900000 1402807.55828190 21462.95664416
0.06000000 1394647.89554634 16589.33749256
0.06100000 1386401.38915657 14182.88687386
0.06200000 1378070.58536997 14325.04440452
0.06300000 1369658.46931212 17093.33849622
0.06400000 1361163.98865724 17252.75436309
0.06500000 1352593.17843597 16068.80771148
0.06600000 1343946.98362814 13506.66781742
0.06700000 1335226.83994944 16343.17728582
0.06800000 1326436.27566641 16474.33931493
0.06900000 1317577.57538820 20751.84778394
0.07000000 1308651.82724476 18118.28539666
0.07100000 1299662.11534159 15439.98665343
0.07200000 1290610.54584322 15545.40475293
0.07300000 1281500.09781917 17069.58210276
0.07400000 1272332.92554143 20039.24451640
0.07500000 1263110.73495955 21599.19458022
0.07600000 1253834.77974395 18826.33010045
0.07700000 1244510.24834901 16016.84764726
0.07800000 1235137.07056724 17563.64996713
0.07900000 1225717.85419733 17650.33792831
0.08000000 1216256.90969772 17733.02657527
0.08100000 1206754.76118101 19296.00953662
0.08200000 1197212.92257410 14905.30158548
0.08300000 1187635.55457164 14964.20868990
0.08400000 1178023.76233802 18023.76440978
0.08500000 1168380.40334819 21100.95107506
0.08600000 1158706.99762277 15121.12702894
0.08700000 1149007.46524502 16683.58917878
0.08800000 1139281.47234473 18251.29004411
0.08900000 1129534.44454529 16773.58728935
0.09000000 1119765.67289600 21398.72301426
0.09100000 1109978.85420557 22976.56336152
0.09200000 1100175.12858186 18416.93251781
0.09300000 1090360.06191939 15374.07759552
0.09400000 1080530.14753106 16937.31085856
0.09500000 1070691.09073313 20043.33816061
0.09600000 1060844.34917362 18522.34320727
0.09700000 1050993.95707515 21629.45665347
0.09800000 1041140.08386634 18553.11716682
0.09900000 1031285.39857344 18563.13804721
0.10000000 1021430.59102538 21664.54385447
0.10100000 1011578.41822243 21668.01073741
0.10200000 1001731.68923384 17024.43085930
0.10300000 991891.33427772 20115.55720540
0.10400000 982060.69756130 27841.42208567
0.10500000 972242.31387981 24733.84562881
0.10600001 962433.58410733 24715.29560282
0.10700001 952641.94582432 16976.08027344
0.10800001 942865.84395738 18499.02872904
0.10900001 933109.52561845 15396.30789734
0.11000001 923372.22220556 18448.97786805
0.11100001 913657.37803012 15349.44467346
0.11200001 903966.44062278 19918.90145685
0.11300001 894301.03461782 16821.80325315
0.11400001 884663.47625637 18312.53482074
0.11500001 875055.20475544 22838.94191956
0.11600001 865477.66041509 18226.96038668
0.11700001 855933.17253473 25755.03037450
0.11800001 846421.49136183 21152.07406536
0.11900001 836945.08434831 28623.52323293
0.12000001 827505.01234852 21026.90335425
0.12100001 818106.02636987 16468.47508662
0.12200001 808745.89591273 14921.36248255
0.12300001 799428.56084802 20817.12070527
0.12400001 790153.02449385 17778.44388879
0.12500001 780921.43471420 17711.29897388
0.12600001 771737.25213397 24992.71208810
0.12700001 762599.64040277 19034.48792148
0.12800001 753510.19094418 18954.54974651
0.12900001 744470.83359869 15968.90013334
0.13000001 735482.74992756 21678.35507592
0.13100001 726545.97710049 15824.17212716
0.13200001 717662.77417644 20044.32222764
0.13300001 708834.47819687 15672.33105177
0.13400001 700060.83858058 18429.10244449
0.13500001 691344.95068542 21155.15648840
0.13600001 682686.59145415 19640.89416222
0.13700001 674086.97139773 15348.96106248
0.13800001 665545.62198107 16651.95224720
0.13900001 657066.10957815 13798.38895185
0.14000001 648647.54198008 23322.12347178
0.14100001 640292.17451073 19093.51354442
0.14200001 631999.61681592 23045.86711416
0.14300001 623771.84327653 17515.51418537
0.14400001 615606.13400492 17406.26426004
0.14500001 607508.53147095 19956.65620022
0.14600001 599476.79036493 14540.31023623
0.14700001 591512.88449759 15757.90398642
0.14800001 583614.07032043 13043.77508705
0.14900001 575784.79784778 12955.15856281
0.15000001 568023.87452459 19298.61204754
0.15100001 560331.98418914 15330.68381079
0.15200001 552711.21248318 13953.19521755
0.15300001 545160.51192299 12593.20841968
0.15400001 537678.83849410 12501.03358492
0.15500001 530269.94312523 13649.14898019
0.15600001 522930.74892595 14778.02366209
0.15700001 515666.55762725 18331.94698886
0.15800001 508471.13169065 14552.44447584
0.15900001 501350.54140138 16845.37898620
0.16000001 494300.19099460 16712.29024639
0.16100001 487325.49912526 14210.41222528
0.16200001 480423.28943472 11746.34998118
0.16300001 473594.14935921 12815.45828665
0.16400001 466839.01793663 13865.11948728
0.16500001 460156.61760271 17186.85047888
0.16600001 453548.68595856 14769.81365557
0.16700001 447013.95164978 12391.22732478
0.16800001 440553.19985427 11168.02414362
0.16900001 434167.25147044 13285.51852231
0.17000001 427853.83155349 10974.45129756
0.17100001 421614.92961461 10877.66569771
0.17200001 415449.66200706 10780.91923819
0.17300001 409357.73121954 11752.66101833
0.17400001 403340.54157714 14822.76560298
0.17500001 397395.32056931 11540.36065436
0.17600001 391522.48334677 14552.89139332
0.17700001 385725.38330316 13388.52868680
0.17800001 379999.33253049 12243.57907242
0.17900001 374345.87312098 17182.47638784
0.18000001 368765.77469394 12014.38950703
0.18100001 363258.44100648 13883.73827109
0.18200001 357820.71511604 10804.39700331
0.18300001 352455.27676081 11673.31931776
0.18400001 347161.20661238 13487.21351404
0.18500001 341938.13243548 11448.08921477
0.18600001 336785.77814836 10391.52567570
0.18700001 331703.02812374 12160.23358552
0.18800001 326688.35371881 10187.77679205
0.18900001 321746.46536129 10086.75216565
0.19000001 316869.36992732 9986.13866509
0.19100001 312063.41828199 11683.65493253
0.19200001 307323.74784266 11566.12979657
0.19300001 302653.21537167 9687.92988183
0.19400001 298047.95364672 11333.27397296
0.19500001 293509.64080781 9492.10223227
0.19600001 289036.38099695 9395.12800829
0.19700001 284630.24900507 11834.92631292
0.19800001 280287.60599164 9203.24397767
0.19900001 276009.62970973 8280.28928262
0.20000001 271794.00351685 9014.04855265
0.20100001 267642.94648521 8920.53982796
0.20200001 263553.23721260 10432.75538815
0.20300001 259525.75700780 9529.78624775
0.20400001 255559.98903219 11787.70505126
0.20500001 251654.08990426 7776.11174559
0.20600001 247807.96535007 10002.76899417
0.20700001 244021.62063046 10658.86489297
0.20800001 240293.48626160 9039.84138048
0.20900001 236625.74294326 8199.08238056
0.21000001 233012.42305307 10324.78095356
0.21100001 229457.38989382 10215.44348099
0.21200001 225957.03727797 7219.32768232
0.21300001 222512.38884223 7142.64801951
0.21400001 219122.78435439 7773.38114247
0.21500001 215788.34380886 7690.69693695
0.21600001 212505.30537756 8992.16242219
0.21700001 209275.83661352 8211.98421697
0.21800001 206098.24021929 8801.42576470
0.21900001 202971.24334566 12056.49242478
0.22000001 199894.21134304 7951.79210321
0.22100001 196868.73590098 8522.44798012
0.22200001 193891.77043008 7782.81603307
0.22300001 190962.89034563 7057.98876091
0.22400001 188081.18964075 6982.51449559
0.22500001 185248.76933195 7535.92029278
0.22600001 182460.57334179 6212.78281608
0.22700001 179719.18757147 7375.67580672
0.22800001 177022.16658540 6688.78288074
0.22900001 174368.93116729 7218.87409171
0.23000001 171759.84907056 8332.07067245
0.23100001 169194.85357632 5887.98118291
0.23200001 166670.15240551 5825.12210206
0.23300001 164188.34059567 9220.81764395
0.23400001 161746.51227289 5701.56482728
0.23500001 159344.42542811 6204.87221964
0.23600001 156982.54743401 6138.80280775
0.23700001 154659.47218579 6625.61210182
0.23800001 152374.22994677 5462.61640197
0.23900001 150126.66027157 8106.84003811
0.24000001 147915.55730900 5881.86241461
0.24100001 145741.63771373 6348.50603910
0.24200001 143603.40791742 5757.77891280
0.24300001 141499.28159913 5696.76134665
0.24400001 139429.90557419 6661.26405391
0.24500001 137393.59962125 5576.80647243
0.24600001 135390.78961069 6019.47479084
0.24700001 133420.84354893 4963.25561481
0.24800001 131482.58087229 5893.04955348
0.24900001 129574.44265518 5344.94601238
0.25000001 127698.42636202 6250.19977397
0.25100001 125851.43920546 5708.62155243
0.25200001 124035.99584091 8472.89927674
0.25300001 122247.97073400 6054.94227692
0.25400001 120489.39117313 5530.46331650
0.25500001 118757.24753264 7296.44563361
0.25600001 117053.65565744 4512.41863909
0.25700001 115376.06428808 7144.08623873
0.25800001 113724.91756441 4418.21325642
0.25900001 112100.41371226 4809.10797580
0.26000001 110500.32203531 4758.69659361
0.26100001 108924.76804937 4708.81794558
0.26200001 107374.87274254 4659.53282314
0.26300001 105847.09630886 5449.00877581
0.26400001 104343.97616610 4147.67324886
0.26500001 102863.43201764 4514.67624488
0.26600001 101404.98334279 6498.03164009
0.26700001 99968.91745481  4822.50080622
0.26800001 98554.78341440  5169.69140864
0.26900001 97160.85546198  5115.51928215
0.27000001 95788.51516657  4283.18365836
0.27100001 94436.04922949  4238.29008999
0.27200001 93104.36857642  4575.14888836
0.27300001 91791.84807905  3772.64513459
0.27400001 90497.32906263  5226.22100070
0.27500001 89223.57936495  5171.39890473
0.27600001 87966.03749915  4751.48574039
0.27700001 86728.64772178  4339.90173739
0.27800001 85507.88596140  5725.60831495
0.27900001 84304.95334636  5665.29313300
0.28000001 83118.71930874  4204.14502161
0.28100001 81949.56591357  3813.11348243
0.28200001 80797.16939826  5144.76000493
0.28300001 79660.86938045  4072.26383547
0.28400001 78539.80460339  4029.09216685
0.28500001 77434.96526890  4982.94025090
0.28600001 76345.28880053  4929.99725764
0.28700001 75271.37310251  4227.24051352
0.28800001 74210.56565784  3538.73099089
0.28900001 73166.22198225  3501.00388757
0.29000001 72135.23420146  3148.70312194
0.29100001 71119.01448352  3738.01557819
0.29200001 70116.24212430  3389.76988596
0.29300001 69127.34255517  4267.92233138
0.29400001 68151.24431076  3618.83124420
0.29500001 67189.53260858  3878.18000575
0.29600001 66239.75318964  4426.47171644
0.29700001 65303.22645356  3502.86523279
0.29800001 64379.76507448  3176.17586031
0.29900001 63468.87473162  3427.31939775
0.30000001 62569.43378331  3107.51107596
0.30100001 61683.27074302  3073.67752663
0.30200001 60808.04088085  4421.96094219
0.30300001 59945.55380884  3553.57259802
0.30400001 59094.48026999  4055.35890052
0.30500001 58255.39249619  3208.70717060
0.30600001 57426.66380632  3437.84739152
0.30700001 56610.16412616  3400.00661838
0.30800001 55804.44990993  3362.49728852
0.30900001 55010.10356028  4348.54889232
0.31000001 54226.68005925  3794.51211680
0.31100001 53453.56875189  3502.27799044
0.31200001 52692.13542132  2721.28546268
0.31300001 51940.45713065  3424.95390535
0.31400001 51200.84234164  2419.23991519
0.31500001 50470.24276246  4306.12131638
0.31600002 49751.26145255  2602.23985349
0.31700002 49041.80999353  3041.08278169
0.31800002 48342.50035711  3007.14537710
0.31900002 47653.96631335  3431.08573702
0.32000002 46975.51747945  2714.24552848
0.32100002 46306.68293194  2460.27418067
0.32200002 45648.83381851  2211.68610323
0.32300002 44999.10631546  2843.04367163
0.32400002 44360.67988771  2595.09989631
0.32500002 43731.66985983  2352.32663315
0.32600002 43112.45082508  2326.13239441
0.32700002 42503.07294760  2509.38154565
0.32800002 41904.14777095  2895.15770659
0.32900002 41312.88403541  2658.48421357
0.33000002 40732.58422756  2224.61019293
0.33100002 40160.79711283  2000.00779093
0.33200002 39599.95786185  2175.81978775
0.33300002 39047.75284987  2934.43876563
0.33400002 38505.57106149  3289.33856370
0.33500002 37972.24448145  3062.08193999
0.33600002 37448.08914827  2650.20139453
0.33700002 36933.14918152  2434.26397783
0.33800002 36428.32085502  2778.57030480
0.33900002 35931.89762828  2199.03223899
0.34000002 35444.90131093  2356.90882429
0.34100002 34967.05430546  1973.19096790
0.34200002 34499.13708347  2662.47103051
0.34300002 34039.54963819  2459.01718232
0.34400002 33589.76854861  2259.75178613
0.34500002 33148.55879499  2752.65645270
0.34600002 32716.96814171  3235.54471761
0.34700002 32293.31462764  2022.85332408
0.34800002 31879.45664628  1835.77859792
0.34900002 31474.14429437  1982.87118446
0.35000002 31078.01829807  1636.25774089
0.35100002 30691.39696744  1944.60700396
0.35200002 30312.08101603  1926.02971898
0.35300002 29942.81587850  2384.94539768
0.35400002 29581.81605698  1890.27813557
0.35500002 29229.83251934  1716.96044351
0.35600002 28885.95114094  1701.52703255
0.35700002 28550.89189255  1533.18296725
0.35800002 28224.65026968  1671.88723791
0.35900002 27907.56414410  2109.81194923
0.36000002 27598.67939707  2092.25598419
0.36100002 27297.56392446  2371.61246609
0.36200002 27006.45567426  1911.65205545
0.36300002 26722.34965922  1750.84843260
0.36400002 26447.17843791  1882.37801448
0.36500002 26179.42728110  1868.42581355
0.36600002 25920.97384549  1712.33961334
0.36700002 25670.03930937  1558.68486070
0.36800002 25428.03833530  1829.67458509
0.36900002 25193.93944582  1817.74281712
0.37000002 24967.25608777  1945.19901394
0.37100002 24748.47385506  2209.54385044
0.37200002 24538.40465224  1784.80094693
0.37300002 24335.65268725  1774.79923455
0.37400002 24140.59178008  1901.07169274
0.37500002 23953.49656289  1486.07499716
0.37600002 23774.18757211  1747.75948216
0.37700002 23602.24132965  1873.54600550
0.37800002 23437.73824750  1332.43548249
0.37900002 23281.57616750  1725.16487574
0.38000002 23131.78218829  1982.97212203
0.38100002 22988.73863963  1580.70574374
0.38200002 22854.11105767  1444.26561671
0.38300002 22725.67050071  1701.69828771
0.38400002 22604.92329212  1305.43438196
0.38500002 22490.30901217  1692.84563954
0.38600002 22383.66697701  1559.24631549
0.38700002 22282.77138630  1556.22882735
0.38800002 22188.67860199  1553.65134932
0.38900002 22101.18816340  1680.79543946
0.39000002 22020.79548015  1549.82365932
0.39100002 21945.92071022  1677.54625857
0.39200002 21877.98075267  1418.67772912
0.39300002 21815.69046566  1547.16884112
0.39400002 21760.70479338  1547.18618411
0.39500002 21710.34510375  1676.47292834
0.39600002 21666.29898825  1548.27379905
0.39700002 21627.43139521  1420.27348701
0.39800002 21595.39230222  1680.22957768
0.39900002 21567.86090946  1294.07171588
0.40000002 21546.21237821  1296.00473595
0.40100002 21529.49897155  1298.22884949
0.40200002 21518.57799266  1300.79810129
0.40300002 21512.51852704  1434.02455296
0.40400002 21511.39824467  1960.22625792
0.40500002 21514.85569497  1572.30572869
0.40600002 21523.91910215  1708.24592048
0.40700002 21537.05573891  1713.48823577
0.40800002 21554.68607878  1586.85606431
0.40900002 21576.33861500  1990.41733154
0.41000002 21602.99345860  1864.55445376
0.41100002 21633.51392078  1738.03659075
0.41200002 21667.32292177  1744.97793419
0.41300002 21706.38272212  1752.35636019
0.41400002 21748.47753766  1353.84279087
0.41500002 21794.24395235  1767.94915319
0.41600002 21842.66059121  1776.13603013
0.41700002 21896.02810588  1372.88102729
0.41800002 21952.82796923  1655.68236389
0.41900002 22011.19327887  1802.71681496
0.42000002 22073.11239136  1533.30882492
0.42100002 22138.68052419  2242.20566974
0.42200002 22206.84130131  1690.82897680
0.42300002 22277.21085901  1983.56294888
0.42400002 22350.08751684  2137.22722007
0.42500002 22425.91463192  2006.22241804
0.42600002 22502.84302699  2161.96074627
0.42700002 22583.14946598  2464.72504951
0.42800002 22664.83630002  1750.17874202
0.42900002 22749.36541073  1760.80096623
0.43000002 22835.38904100  2214.46195719
0.43100002 22921.63501992  1633.85422164
0.43200002 23010.88965929  2839.65897297
0.43300002 23100.76155723  1654.24561350
0.43400002 23192.49355070  2269.96541384
0.43500002 23284.90861037  1827.39971434
0.43600002 23379.07658084  1992.24810525
0.43700002 23473.55766238  1696.43409265
0.43800002 23568.41450003  2172.77223572
0.43900002 23665.11018719  2030.46655028
0.44000002 23761.68274154  2043.38600419
0.44100002 23859.13403576  1581.86066154
0.44200002 23956.79307709  2069.50766804
0.44300002 24054.92704513  2403.08732569
0.44400002 24152.98089938  1773.43270658
0.44500002 24250.65364373  1784.60568622
0.44600002 24348.15290060  1959.05247522
0.44700002 24446.63766992  1807.09554220
0.44800002 24543.57000472  1983.61142179
0.44900002 24640.88209241  2661.21539210
0.45000002 24738.02630021  1840.88031437
0.45100002 24833.67234294  1852.09537111
0.45200002 24929.15498549  1863.32977770
0.45300002 25023.51486026  2215.33187557
0.45400002 25117.24258390  1885.67707635
0.45500002 25210.22522784  1896.81743604
0.45600002 25301.74842987  2081.32192448
0.45700002 25392.57099940  2093.36365240
0.45800002 25481.71270397  2456.18240394
0.45900002 25569.59598317  1940.73242710
0.46000002 25656.56251311  2838.64221099
0.46100002 25741.24302920  2675.80233970
0.46200002 25825.05300325  1972.90501769
0.46300002 25907.13082402  1983.45002989
0.46400002 25986.96548663  2356.36820718
0.46500002 26066.17778293  2004.22850472
0.46600002 26142.44587747  2930.04547282
0.46700002 26216.87250736  2024.46699097
0.46800002 26290.09223003  2219.40969125
0.46900002 26360.51755555  2415.94154847
0.47000002 26429.02976563  1867.21104144
0.47100002 26495.56876196  2063.47499298
0.47200002 26560.04474298  2261.32231660
0.47300002 26622.07672795  2649.96164310
0.47400002 26681.30459765  2091.14734696
0.47500002 26738.58281392  2481.87537442
0.47600002 26794.21092264  2300.55105886
0.47700002 26846.14804427  2309.84268721
