# SAXS profile: number of points = 501, q_min = 0, q_max = 0.5, delta_q = 0.001
#    q    intensity    error
0.00000000 1700912.83420644 255.13692513
0.00100000 1700829.83730091 663.32365230
0.00200000 1700580.79362338 1300.94434832
0.00300000 1700165.92063192 1122.10954759
0.00400000 1699585.06773820 1274.68884924
0.00500000 1698838.80610894 2446.32797763
0.00600000 1697926.98954014 1961.10575276
0.00700000 1696850.20839674 2647.08643511
0.00800000 1695608.25289024 2975.79260946
0.00900000 1694202.44639548 3049.56453387
0.01000000 1692632.05465796 2792.84301078
0.01100000 1690898.50516438 3043.61744181
0.01200000 1689001.57989053 4281.61919274
0.01300000 1686942.54203516 3542.57949452
0.01400000 1684721.41332988 5306.87268725
0.01500000 1682339.56670017 5248.89968183
0.01600000 1679796.45605665 4711.82926987
0.01700000 1677094.37738636 6792.23253311
0.01800000 1674233.15161504 9065.97292394
0.01900000 1671213.77073542 8021.82646150
0.02000000 1668037.03216079 5779.74857789
0.02100000 1664705.20715102 6042.88017593
0.02200000 1661216.80998716 6304.31808032
0.02300000 1657575.07249876 7160.72463914
0.02400000 1653779.57967184 6821.84107721
0.02500000 1649832.89711873 10294.95774820
0.02600000 1645734.80363480 7331.74888553
0.02700000 1641487.78847357 8962.52373556
0.02800000 1637091.51896727 8545.61812091
0.02900000 1632548.62135153 8081.11604673
0.03000000 1627860.46018837 9083.46178537
0.03100000 1623027.44163327 8569.58528614
0.03200000 1618050.89180506 9611.22274000
0.03300000 1612934.70586449 8225.96737913
0.03400000 1607677.00816451 11816.42655522
0.03500000 1602281.17823428 10382.78251442
0.03600000 1596748.32035666 13292.93038129
0.03700000 1591080.40736972 15417.56986044
0.03800000 1585278.89299312 12056.04653916
0.03900000 1579345.88343901 12318.89846131
0.04000000 1573281.31030717 11610.81660810
0.04100000 1567089.00042960 11847.19339256
0.04200000 1560770.04901972 15100.45092482
0.04300000 1554325.31915434 10258.54758260
0.04400000 1547758.35199929 10447.36936119
0.04500000 1541070.53929776 13823.40337980
0.04600000 1534261.84346120 12979.85579907
0.04700000 1527336.67295371 19794.28420207
0.04800000 1520295.16884049 11174.17001089
0.04900000 1513141.73180334 15887.98892348
0.05000000 1505875.54735467 16127.92786318
0.05100000 1498501.16177377 15194.80248822
0.05200000 1491016.96710425 11853.58544087
0.05300000 1483429.10683895 20426.81975343
0.05400000 1475737.53292383 12174.83521438
0.05500000 1467944.89386099 16029.95898875
0.05600000 1460052.26757696 16228.48171141
0.05700000 1452064.84097104 13896.26117675
0.05800000 1443981.24706438 17890.92848650
0.05900000 1435804.64340520 18091.13935187
0.06000000 1427538.58813748 16980.57229921
0.06100000 1419184.27971044 15838.09730170
0.06200000 1410744.34432792 13331.53467706
0.06300000 1402221.33002455 20191.98809644
0.06400000 1393614.77077111 16305.29358057
0.06500000 1384930.76468963 15081.89673297
0.06600000 1376169.63931123 19362.70773106
0.06700000 1367333.68804776 18130.84555202
0.06800000 1358425.55021950 19683.58714405
0.06900000 1349448.24844416 17003.04872646
0.07000000 1340402.32941377 17130.34257210
0.07100000 1331291.35521266 14377.94730973
0.07200000 1322117.03700888 15924.90045680
0.07300000 1312883.05935032 16030.30290578
0.07400000 1303590.75741847 16131.93637906
0.07500000 1294242.42861218 16229.80081553
0.07600000 1284838.86357941 17807.86748405
0.07700000 1275385.92037315 14922.01596804
0.07800000 1265883.06954204 18000.85809306
0.07900000 1256333.09866534 16583.59768022
0.08000000 1246740.01600667 15147.89190508
0.08100000 1237105.03372796 19781.31041741
0.08200000 1227429.27953764 16809.64477206
0.08300000 1217716.50669443 18411.87444533
0.08400000 1207968.67472575 20022.08172339
0.08500000 1198187.90490641 20093.61210858
0.08600000 1188376.61391186 17059.14709366
0.08700000 1178538.03175298 23335.05412447
0.08800000 1168672.04068018 17161.94972338
0.08900000 1158783.79146639 20336.65649544
0.09000000 1148873.12771863 18818.54271604
0.09100000 1138943.65970705 22004.39253933
0.09200000 1128996.37136478 17324.45013261
0.09300000 1119036.71837973 23667.62770592
0.09400000 1109061.25378034 25286.59777460
0.09500000 1099076.16752237 23740.04633433
0.09600000 1089082.45532094 15846.15046981
0.09700000 1079084.48230451 19035.05116274
0.09800000 1069082.35658586 17463.46111592
0.09900000 1059078.28610093 15886.17503852
0.10000000 1049073.62846646 17482.81284056
0.10100000 1039070.78689174 27026.23243815
0.10200000 1029072.69120348 17489.09120963
0.10300000 1019080.46954512 17487.42168002
0.10400000 1009097.28273573 17482.61124587
0.10500000 999126.00543635 23829.15635080
0.10600001 989163.33814234 17463.67955663
0.10700001 979217.68922260 19035.99277428
0.10800001 969286.65423623 15847.83754259
0.10900001 959374.88187416 18995.62355515
0.11000001 949481.84115696 15808.87339938
0.11100001 939611.02369584 17364.01253528
0.11200001 929763.10182740 20487.33091325
0.11300001 919940.53106087 17304.08220395
0.11400001 910145.20656158 20410.00721814
0.11500001 900379.19789039 20366.57841530
0.11600001 890643.05420624 18756.94360488
0.11700001 880940.02013024 20270.43081783
0.11800001 871268.98582015 23328.22819405
0.11900001 861633.09808125 18611.27579518
0.12000001 852033.29982544 23196.60768042
0.12100001 842474.53966510 15417.28480215
0.12200001 832953.82087957 19978.39833500
0.12300001 823476.31051070 24506.65615541
0.12400001 814039.80009034 25947.51985046
0.12500001 804647.41029944 16728.62044839
0.12600001 795302.10871832 21210.70823904
0.12700001 786003.22108430 15091.26255602
0.12800001 776752.52376650 18036.19445189
0.12900001 767551.53791419 17960.70683372
0.13000001 758401.72824879 17883.11359502
0.13100001 749303.03808497 14836.20085343
0.13200001 740258.43134436 17721.78768179
0.13300001 731268.38088163 17638.19417838
0.13400001 722332.54610584 23403.57559721
0.13500001 713454.91722906 21831.72149654
0.13600001 704634.86883318 18824.32140846
0.13700001 695873.25672374 20166.40793077
0.13800001 687169.91072936 17192.99197720
0.13900001 678529.13148944 15674.02367656
0.14000001 669948.77532677 18420.24244632
0.14100001 661432.04767664 15497.35360796
0.14200001 652977.91055270 29413.39136814
0.14300001 644589.12014239 15315.43821698
0.14400001 636262.13171362 16606.44242105
0.14500001 628003.79563926 16503.94052793
0.14600001 619811.00046656 16400.19984601
0.14700001 611686.70030216 16295.33446481
0.14800001 603628.00090774 14840.19510246
0.14900001 595638.46115709 18762.61241168
0.15000001 587717.56819472 15974.16425724
0.15100001 579866.57824968 15865.15032951
0.15200001 572086.51760810 15755.26343837
0.15300001 564377.23308872 18251.96057938
0.15400001 556736.81067669 14238.54460499
0.15500001 549169.82964417 16705.74700617
0.15600001 541672.64608825 12756.39141742
0.15700001 534250.88131284 12661.74648471
0.15800001 526898.28289177 16336.48203212
0.15900001 519621.08580337 12470.90664792
0.16000001 512414.58505826 17324.73793859
0.16100001 505283.89729250 12278.39928380
0.16200001 498226.19785932 13399.79422398
0.16300001 491242.04786168 16918.37692704
0.16400001 484332.68360144 16782.12827907
0.16500001 477496.37525566 11889.66030519
0.16600001 470735.22411773 15329.49329715
0.16700001 464047.27044278 18710.38682766
0.16800001 457433.92463525 12755.54559072
0.16900001 450896.29889057 13797.42739754
0.17000001 444431.74605494 15959.54475444
0.17100001 438042.13508623 14691.93390456
0.17200001 431726.45468783 14564.29263666
0.17300001 425485.45996991 11105.17102965
0.17400001 419319.05201011 14309.26332561
0.17500001 413225.67284874 12000.07410626
0.17600001 407205.09865469 15135.81423185
0.17700001 401260.99974242 10713.66919914
0.17800001 395388.60279594 12739.42138379
0.17900001 389589.06747941 11570.79585067
0.18000001 383864.42862600 15632.87959421
0.18100001 378212.81898540 12390.25253523
0.18200001 372631.17961676 11251.59900003
0.18300001 367123.06516731 12159.11649273
0.18400001 361686.59132198 16058.88541333
0.18500001 356322.15812914 11929.66641775
0.18600001 351029.23275086 13784.91862137
0.18700001 345806.10175412 11702.07903622
0.18800001 340652.15926470 14486.23375715
0.18900001 335571.78342186 12432.93516320
0.19000001 330557.14244323 12311.60135201
0.19100001 325614.27651747 12190.99908884
0.19200001 320738.27420200 12070.98551996
0.19300001 315932.62924565 11032.36793457
0.19400001 311192.80875048 12743.34612050
0.19500001 306520.98067623 15319.91933814
0.19600001 301914.61250372 14274.52355374
0.19700001 297376.55191781 10598.50081121
0.19800001 292902.77940172 11366.09289183
0.19900001 288494.42673878 8654.83321119
0.20000001 284149.29868296 11993.94246426
0.20100001 279869.69075267 11024.06763977
0.20200001 275652.06436004 9232.96633212
0.20300001 271497.80181854 9138.61644115
0.20400001 267405.67496905 10689.54236214
0.20500001 263374.66518329 10579.76080049
0.20600001 259404.38076629 9665.40768422
0.20700001 255494.50222982 11160.00038492
0.20800001 251643.96331087 8677.94248498
0.20900001 247854.52576592 9368.90151683
0.21000001 244120.38230893 13134.89779105
0.21100001 240445.74275035 11469.26247138
0.21200001 236826.53400883 9079.92974315
0.21300001 233263.80541215 8236.54535849
0.21400001 229757.17652488 8150.63622255
0.21500001 226306.47026198 7332.32998314
0.21600001 222908.21505622 8706.79529174
0.21700001 219564.66864476 10051.67100580
0.21800001 216273.74603635 7815.05218252
0.21900001 213033.95259011 7733.13284466
0.22000001 209845.51619306 8347.65502886
0.22100001 206709.40264380 11013.47749362
0.22200001 203622.87526723 8173.42259970
0.22300001 200585.31911591 8761.56715328
0.22400001 197595.70331781 8002.62636279
0.22500001 194656.56070110 9238.40080773
0.22600001 191762.39945520 9141.31401431
0.22700001 188916.24078488 6460.93574037
0.22800001 186114.91298999 8310.96183259
0.22900001 183358.83083802 6958.46795938
0.23000001 180647.67708214 6885.38653761
0.23100001 177981.33724680 6813.12591202
0.23200001 175356.66708993 9193.07370696
0.23300001 172775.50718677 7883.74676579
0.23400001 170235.02575785 6600.86343595
0.23500001 167735.69899501 7125.41283031
0.23600001 165277.42819464 5875.61285022
0.23700001 162858.65003795 5814.05408135
0.23800001 160478.69218796 5753.16138706
0.23900001 158137.56485028 7400.83838505
0.24000001 155833.69268071 5633.38825687
0.24100001 153567.92356048 5574.51588893
0.24200001 151338.89835026 6619.56372696
0.24300001 149144.83057761 6004.57116309
0.24400001 146986.24307128 5941.91915723
0.24500001 144861.83203795 7483.56259709
0.24600001 142771.61870935 7405.56421278
0.24700001 140715.57142937 7328.46730672
0.24800001 138692.01373544 7770.22043711
0.24900001 136699.12352034 7176.70432433
0.25000001 134739.45047470 8116.70488058
0.25100001 132809.94145934 5522.23762713
0.25200001 130912.72489610 6955.39340279
0.25300001 129043.69674440 5408.22158642
0.25400001 127205.06714921 5352.15345352
0.25500001 125393.66044795 4815.11678901
0.25600001 123611.99879159 5718.29133465
0.25700001 121857.06663124 4715.86870175
0.25800001 120129.20492254 7933.93371450
0.25900001 118429.26364696 6466.23810107
0.26000001 116754.33278851 5028.02557944
0.26100001 115104.97106382 5880.71324990
0.26200001 113481.79071149 6267.59959756
0.26300001 111881.96885259 4873.57879382
0.26400001 110307.22970111 4823.18384691
0.26500001 108756.23545639 4773.31140005
0.26600001 107228.01642663 6012.27516554
0.26700001 105723.12026498 5950.09749007
0.26800001 104240.98999038 5047.34897418
0.26900001 102779.71375146 4995.09432470
0.27000001 101340.77253644 4943.40311826
0.27100001 99922.77129987  4484.53418816
0.27200001 98526.21893138  4841.57862741
0.27300001 97149.68427255  5589.99309758
0.27400001 95791.64943171  4346.54629866
0.27500001 94455.39239009  4692.54411602
0.27600001 93136.23926367  6191.69747928
0.27700001 91837.91534171  4595.56950119
0.27800001 90556.82937731  4168.78383768
0.27900001 89294.46929376  4875.47825419
0.28000001 88049.40637197  6680.30877761
0.28100001 86822.18003193  4407.09406700
0.28200001 85612.42735167  5087.94679832
0.28300001 84419.72032636  5394.42038417
0.28400001 83242.74566469  4270.35305472
0.28500001 82082.83644783  5986.30154548
0.28600001 80938.65745964  3832.85030542
0.28700001 79811.02085764  4482.18714352
0.28800001 78697.13255095  3411.52085756
0.28900001 77600.53218499  4388.31030278
0.29000001 76517.65303245  4007.99485556
0.29100001 75450.45758201  5287.56831763
0.29200001 74397.26574983  4904.63997672
0.29300001 73358.71117601  3235.11931600
0.29400001 72333.46620407  4160.98284036
0.29500001 71323.31245296  4116.78178966
0.29600001 70325.72147935  3446.31214424
0.29700001 69341.82496135  4029.45363925
0.29800001 68371.80730750  3373.12327319
0.29900001 67415.06423640  3033.67803425
0.30000001 66469.94763594  3301.23010562
0.30100001 65539.09669628  2968.92122089
0.30200001 64619.57422114  4699.13565982
0.30300001 63713.44572433  3486.39991509
0.30400001 62819.29002687  4023.57571670
0.30500001 61937.75273908  3980.12017944
0.30600001 61066.90205504  3374.55716732
0.30700001 60208.93415007  3059.81817837
0.30800001 59362.36629074  2751.44580784
0.30900001 58527.69209338  4626.61427903
0.31000001 57704.54979271  3499.49258786
0.31100001 56891.98510670  2928.79953196
0.31200001 56091.69778963  3160.20640309
0.31300001 55301.65719112  2604.70817702
0.31400001 54524.18759831  2833.89478460
0.31500001 53755.93335642  3057.63763408
0.31600002 53000.13739884  3528.21931369
0.31700002 52254.37584573  3489.54738420
0.31800002 51519.02683824  2711.70410603
0.31900002 50794.95340686  3413.42103056
0.32000002 50081.59413420  3134.85753326
0.32100002 49377.99693549  3100.44457439
0.32200002 48685.99651826  3066.48763590
0.32300002 48002.64747346  2566.22165544
0.32400002 47331.01067219  2538.12556748
0.32500002 46668.78511007  3651.36591991
0.32600002 46016.99339673  2708.56035959
0.32700002 45375.57836981  2678.97427381
0.32800002 44744.92329906  2649.79448325
0.32900002 44122.29342504  2839.26971635
0.33000002 43510.95449178  3888.57418707
0.33100002 42908.44749701  2136.84078654
0.33200002 42317.35545007  3382.00320772
0.33300002 41735.17752463  2509.11899160
0.33400002 41163.36356995  3102.68867601
0.33500002 40600.91612354  2864.80077734
0.33600002 40047.85238842  2024.41903410
0.33700002 39504.29281005  2002.86774032
0.33800002 38971.19293340  2576.19083086
0.33900002 38446.83595929  2156.86759946
0.34000002 37932.13921448  2716.32061779
0.34100002 37427.15997905  2304.01607743
0.34200002 36932.04320280  2090.16908405
0.34300002 36445.60972967  2068.65290623
0.34400002 35969.33987287  2233.69611189
0.34500002 35501.97134015  2395.31811976
0.34600002 35044.59193298  2736.10664475
0.34700002 34595.23458837  1805.87133104
0.34800002 34156.01374641  3754.94154905
0.34900002 33725.47742549  2124.70517844
0.35000002 33304.48587888  2454.87377040
0.35100002 32893.26002977  1736.76421183
0.35200002 32489.49846798  2064.38283043
0.35300002 32096.08661271  1874.73250784
0.35400002 31710.92899151  2701.77127804
0.35500002 31335.16773359  1840.62783985
0.35600002 30967.92486491  2819.16517361
0.35700002 30609.45638444  1643.72788570
0.35800002 30260.22986682  1792.46480106
0.35900002 29920.16978308  1615.68924481
0.36000002 29588.56534514  2403.33133399
0.36100002 29264.97580271  1906.90591363
0.36200002 28951.63389005  1891.69984798
0.36300002 28645.25030331  1876.83688877
0.36400002 28348.11127613  1552.05916589
0.36500002 28058.63602622  2618.71262437
0.36600002 27778.49391433  1682.12677866
0.36700002 27506.16439794  2125.67648536
0.36800002 27242.87675637  1809.47195987
0.36900002 26987.56233782  1647.59075877
0.37000002 26739.83757486  2083.30084414
0.37100002 26500.20833145  1626.58286444
0.37200002 26269.41234958  1910.70579776
0.37300002 26046.15422623  1607.30825344
0.37400002 25830.66086916  1743.56969126
0.37500002 25623.19778729  1445.14842366
0.37600002 25423.72119775  1581.48265202
0.37700002 25231.89143359  1859.84280567
0.37800002 25047.36780432  1851.12580527
0.37900002 24871.42810201  1559.43861587
0.38000002 24701.99445090  1976.40666964
0.38100002 24539.36797534  1546.71643676
0.38200002 24385.27125137  1681.12067971
0.38300002 24237.65399960  1396.08893651
0.38400002 24097.58688085  1391.63570830
0.38500002 23963.80910730  1665.00553565
0.38600002 23838.15596381  1798.94652503
0.38700002 23718.37029382  1932.57290310
0.38800002 23605.32549639  1652.84496956
0.38900002 23499.15107143  1924.58056393
0.39000002 23400.02676170  1646.89396151
0.39100002 23306.51959013  1370.42341683
0.39200002 23220.37566129  1505.72533109
0.39300002 23139.54112062  1367.54694502
0.39400002 23066.37037874  2050.02376454
0.39500002 22997.73070407  1912.49137596
0.39600002 22935.45806473  2048.70988870
0.39700002 22878.58554248  1912.19227024
0.39800002 22828.57512468  1776.17737173
0.39900002 22783.10071319  1503.68471831
0.40000002 22743.59195629  1915.23796938
0.40100002 22709.10005232  2190.97407686
0.40200002 22680.44488914  1919.44614191
0.40300002 22656.76273059  1510.29987518
0.40400002 22638.19028071  1650.32414966
0.40500002 22624.08916309  1791.14922391
0.40600002 22615.70847595  1518.75797466
0.40700002 22611.42540794  2352.49281091
0.40800002 22611.72489961  2080.84408248
0.40900002 22616.29256243  2086.35308774
0.41000002 22625.72802634  2092.31429837
0.41100002 22639.23570681  1539.01531627
0.41200002 22655.87098607  2666.70942077
0.41300002 22678.07710114  1408.30865471
0.41400002 22703.17080339  1554.59969442
0.41500002 22732.09952549  1418.48307760
0.41600002 22763.60734764  1708.63644848
0.41700002 22800.20687593  2144.35955829
0.41800002 22840.45146634  2153.28366402
0.41900002 22882.11478109  1585.73062947
0.42000002 22927.49464783  2027.01989786
0.42100002 22976.68058612  2327.07832003
0.42200002 23028.22243919  1899.48301790
0.42300002 23082.23705964  1468.03034656
0.42400002 23138.73725605  1475.09456997
0.42500002 23198.39754111  2223.56650968
0.42600002 23259.15470631  2383.59828725
0.42700002 23323.23536426  2096.29249388
0.42800002 23388.77743799  2558.61542907
0.42900002 23457.22123742  1966.88809396
0.43000002 23527.38197437  1825.25438007
0.43100002 23597.71891292  2140.78516123
0.43200002 23671.08902226  1537.43730485
0.43300002 23745.20717746  1700.39436656
0.43400002 23821.25150771  1709.77040799
0.43500002 23898.03729916  1875.51805612
0.43600002 23976.64497242  2357.50372863
0.43700002 24055.58123000  2370.67764256
0.43800002 24134.99304957  1589.28936763
0.43900002 24216.29006435  1758.10274199
0.44000002 24297.51184033  1768.00853285
0.44100002 24379.68468144  1778.01048808
0.44200002 24462.16339728  1625.51083478
0.44300002 24545.13130133  2452.05873321
0.44400002 24628.14693040  1972.71466261
0.44500002 24710.85119495  1818.47162562
0.44600002 24793.41317104  1662.39843190
0.44700002 24877.13991995  2674.79021096
0.44800002 24959.28771350  2185.31053932
0.44900002 25041.96989157  1690.33304779
0.45000002 25124.50125481  2039.60710853
0.45100002 25205.68711641  2392.52393448
0.45200002 25286.76469634  1890.05931680
0.45300002 25366.61804732  2072.96012507
0.45400002 25446.15845313  2778.72063477
0.45500002 25525.03614273  2269.68632138
0.45600002 25602.40148801  2983.57599881
0.45700002 25679.23863647  2469.82928911
0.45800002 25754.41533875  2127.82989613
0.45900002 25828.41887580  1960.37708558
0.46000002 25901.69071090  2865.76319608
0.46100002 25972.63971205  1979.89441909
0.46200002 26042.81446908  2170.40826072
0.46300002 26111.49672611  1999.09628410
0.46400002 26177.97018169  2373.68755873
0.46500002 26243.87959759  2017.89199790
0.46600002 26306.92869655  2211.36053104
0.46700002 26368.25418024  2776.57729678
0.46800002 26428.54773106  2045.17326310
0.46900002 26485.94858956  2053.98541047
0.47000002 26541.69555214  3187.79049538
0.47100002 26595.54487787  2824.44699990
0.47200002 26647.42278129  2079.69820954
0.47300002 26697.08717381  2087.97928683
0.47400002 26743.83749520  2096.04836303
0.47500002 26788.83814104  2103.99544732
0.47600002 26832.29081210  2495.80564818
0.47700002 26872.18046212  2119.40897350
