# SAXS profile: number of points = 501, q_min = 0, q_max = 0.5, delta_q = 0.001
#    q    intensity    error
0.00000000 1682732.95097188 302.89193117
0.00100000 1682650.40438154 757.19269995
0.00200000 1682402.70485630 832.78936527
0.00300000 1681990.07478425 1513.79112123
0.00400000 1681412.36974041 1765.48305531
0.00500000 1680670.13861353 1663.86350309
0.00600000 1679763.25654782 2292.87693854
0.00700000 1678692.30245979 2417.31701601
0.00800000 1677457.07257642 2264.56714359
0.00900000 1676058.88062043 3016.90611408
0.01000000 1674497.00789198 4144.38027348
0.01100000 1672772.86280658 3914.28866939
0.01200000 1670886.22660936 3584.05111322
0.01300000 1668838.33280137 4205.47278414
0.01400000 1666629.30107432 5249.88253112
0.01500000 1664260.40658037 5591.91521511
0.01600000 1661731.14690460 4661.15607544
0.01700000 1659043.79547854 5823.24398335
0.01800000 1656198.16580620 8968.31347139
0.01900000 1653195.21802134 5455.54446564
0.02000000 1650035.89340276 8316.18127894
0.02100000 1646722.26392053 6521.02046078
0.02200000 1643252.95721509 5669.22295996
0.02300000 1639631.20964662 7083.20714809
0.02400000 1635856.54850381 7974.80103759
0.02500000 1631931.53007297 7000.98658375
0.02600000 1627856.01285557 9889.22573041
0.02700000 1623632.43831058 8183.10786388
0.02800000 1619260.43227977 9861.29648482
0.02900000 1614742.64144334 9446.24488616
0.03000000 1610080.42618279 9732.93662365
0.03100000 1605274.27172899 10016.91191650
0.03200000 1600325.29386650 8713.77162644
0.03300000 1595237.56646540 8949.28316044
0.03400000 1590009.29190866 10851.81391798
0.03500000 1584643.58368590 8557.07574705
0.03600000 1579141.72197055 10517.08435436
0.03700000 1573505.53913087 8968.98198784
0.03800000 1567736.67927794 11005.51199786
0.03900000 1561837.00907036 10308.12473723
0.04000000 1555806.74516675 14352.31788923
0.04100000 1549649.48083609 10739.07140013
0.04200000 1543366.29787098 13936.59831633
0.04300000 1536958.21678121 13187.10211210
0.04400000 1530428.59433335 10330.39349151
0.04500000 1523779.04503122 10514.07589925
0.04600000 1517009.33131117 10694.91628292
0.04700000 1510123.85594584 13047.47072218
0.04800000 1503122.95607274 15467.13593765
0.04900000 1496010.81127089 16830.12241020
0.05000000 1488786.56670960 14805.98309538
0.05100000 1481454.96420656 15021.95403684
0.05200000 1474014.34497830 12890.25604754
0.05300000 1466470.75774749 13066.25506065
0.05400000 1458824.24646276 13238.83065403
0.05500000 1451077.29848242 15845.76483862
0.05600000 1443231.09096328 17275.47696498
0.05700000 1435290.86299893 13735.73420006
0.05800000 1427255.24978987 16420.57241555
0.05900000 1419127.17559744 15326.57421229
0.06000000 1410910.47458220 15491.79773467
0.06100000 1402606.07202566 16957.50820324
0.06200000 1394216.77264070 21080.55858771
0.06300000 1385745.22697166 18624.41672129
0.06400000 1377190.71377368 18798.65412216
0.06500000 1368559.31144960 17613.35916227
0.06600000 1359851.58047393 15033.15992552
0.06700000 1351069.47625138 16537.09116324
0.06800000 1342216.07218673 16670.32439688
0.06900000 1333294.01866022 15399.54663652
0.07000000 1324304.03753664 18334.99025829
0.07100000 1315249.58486478 15625.16580004
0.07200000 1306132.49712450 14302.15151352
0.07300000 1296956.13220302 15835.83511620
0.07400000 1287722.26917196 24627.68955207
0.07500000 1278432.86828169 17488.96245784
0.07600000 1269088.96464491 17589.57387459
0.07700000 1259696.05678253 16212.28901096
0.07800000 1250253.93471555 17778.61178540
0.07900000 1240765.08943768 17867.01812593
0.08000000 1231233.95591864 16455.44259279
0.08100000 1221661.28853610 16529.07800941
0.08200000 1212048.37593395 16599.00328733
0.08300000 1202399.10414912 16665.25236564
0.08400000 1192715.14774468 27372.81392558
0.08500000 1182999.01839788 18312.82566450
0.08600000 1173252.53947614 19904.23026675
0.08700000 1163479.48758807 21501.10194027
0.08800000 1153679.37213633 20022.10644374
0.08900000 1143857.67868415 20074.70320381
0.09000000 1134013.91718576 20123.07790575
0.09100000 1124151.78005809 15513.29529363
0.09200000 1114272.28121017 15544.09905325
0.09300000 1104381.08723951 21800.48368656
0.09400000 1094474.30802378 18715.51154679
0.09500000 1084558.44378313 17179.40655700
0.09600000 1074634.36217442 23453.89605697
0.09700000 1064706.27041544 18781.41949310
0.09800000 1054774.55679104 17229.74319528
0.09900000 1044841.37677849 17239.88352751
0.10000000 1034907.98611803 23518.28509053
0.10100000 1024976.74122087 23523.21731736
0.10200000 1015050.68091628 23523.80063671
0.10300000 1005130.77968785 21952.05726102
0.10400000 995220.32301731 20377.13707242
0.10500000 985322.00873917 20366.60687887
0.10600001 975432.85878381 17221.26793215
0.10700001 965560.85791063 15642.08663423
0.10800001 955703.89268850 15625.75938083
0.10900001 945866.53637864 18728.15830175
0.11000001 936048.13400018 15585.20216469
0.11100001 926252.09415135 20229.34668853
0.11200001 916479.55639213 20194.62797581
0.11300001 906732.42438070 23257.68778036
0.11400001 897012.97327530 18568.16942107
0.11500001 887322.85656683 21615.18580378
0.11600001 877663.17870685 16943.28846282
0.11700001 868036.54907776 16900.67240648
0.11800001 858442.44137026 22984.79745023
0.11900001 848883.54803854 16807.89504284
0.12000001 839360.97487066 15234.40241152
0.12100001 829879.65226232 18224.15802219
0.12200001 820436.61014661 25732.99548956
0.12300001 811036.79492735 22627.92764457
0.12400001 801678.39461082 16534.61766792
0.12500001 792364.12566912 14975.68268081
0.12600001 783097.17112454 16409.80199420
0.12700001 773876.76942272 14858.43467314
0.12800001 764704.67139032 16276.73969765
0.12900001 755582.54588746 19154.01844102
0.13000001 746511.75962019 19069.64379834
0.13100001 737492.25097067 18983.05143480
0.13200001 728526.52333063 15987.51530815
0.13300001 719615.81807232 18803.56221269
0.13400001 710759.39187573 17271.45403685
0.13500001 701961.15020883 21480.01220913
0.13600001 693220.62970774 19943.95845706
0.13700001 684538.61686439 15586.94504098
0.13800001 675915.10416358 15502.11364501
0.13900001 667353.82527382 15415.87409081
0.14000001 658853.31039218 20902.12225795
0.14100001 650416.30489534 23551.57551102
0.14200001 642042.05267277 17903.34348320
0.14300001 633733.00633597 15057.49694077
0.14400001 625486.01648894 17685.61795045
0.14500001 617307.46090270 16222.84083779
0.14600001 609194.66755350 16119.29166388
0.14700001 601150.16857630 17349.19468359
0.14800001 593171.13664243 13257.37552942
0.14900001 585261.48966089 17118.89938026
0.15000001 577420.42527588 14386.43057454
0.15100001 569648.87548783 14286.79447136
0.15200001 561948.61942258 14186.39356674
0.15300001 554318.76248035 17926.66962456
0.15400001 546758.03328523 15254.54984854
0.15500001 539270.47692053 15142.71570656
0.15600001 531852.63731733 16282.66925993
0.15700001 524510.23365657 14917.07174923
0.15800001 517236.88228972 14803.32026983
0.15900001 510038.64725862 17137.29935678
0.16000001 502911.10045992 18217.95547409
0.16100001 495859.41406956 14459.26119681
0.16200001 488880.43241901 14343.75256429
0.16300001 481974.92697407 17784.87564493
0.16400001 475143.87278284 16463.73596917
0.16500001 468385.80567460 13995.36853430
0.16600001 461702.70875902 12722.21874051
0.16700001 455092.88348452 13762.00944634
0.16800001 448557.44103738 15919.30433407
0.16900001 442097.36661750 13528.18005727
0.17000001 435710.10736118 12293.56125969
0.17100001 429397.82300657 13294.15722805
0.17200001 423159.31903093 12079.08333215
0.17300001 416994.89646449 14148.63750520
0.17400001 410905.31264067 11864.89146283
0.17500001 404888.34389303 13895.76861867
0.17600001 398943.89534100 12710.35310586
0.17700001 393075.79274711 10495.12416204
0.17800001 387279.15456149 16637.51326579
0.17900001 381555.22642560 13392.58908012
0.18000001 375905.57425722 13267.58787010
0.18100001 370328.94146656 11120.97863756
0.18200001 364822.19021405 17024.42831054
0.18300001 359388.40469074 12894.85656945
0.18400001 354026.29502737 13753.92221156
0.18500001 348735.68279272 13621.61641340
0.18600001 343516.37287658 10599.19818585
0.18700001 338366.66573914 15267.10467944
0.18800001 333285.82171941 11338.38419059
0.18900001 328278.16244972 13098.29930061
0.19000001 323335.98099556 9263.57629322
0.19100001 318465.22730366 11006.15877566
0.19200001 313661.16580131 12712.68765062
0.19300001 308926.93049508 9888.75151242
0.19400001 304258.33061511 9789.51225013
0.19500001 299657.28840119 14095.87951249
0.19600001 295121.53533525 10465.01013753
0.19700001 290653.60137983 9495.65360582
0.19800001 286249.64070570 9399.00739676
0.19900001 281910.80039454 10148.78929383
0.20000001 277634.79850578 11718.96539878
0.20100001 273423.89790044 9941.69339753
0.20200001 269274.80027421 9019.35986147
0.20300001 265188.51207114 8114.76885292
0.20400001 261164.19796433 9636.95936038
0.20500001 257200.51876363 7947.49640545
0.20600001 253297.06540939 9437.84910326
0.20700001 249453.83540506 10896.14404554
0.20800001 245669.50076238 7701.73921296
0.20900001 241945.77757760 9907.68006015
0.21000001 238277.07020678 12066.35140568
0.21100001 234667.40875233 8208.66634621
0.21200001 231112.76228902 10337.67434590
0.21300001 227614.26360286 8037.06002777
0.21400001 224171.36233817 9398.38481035
0.21500001 220784.17335335 10014.77057678
0.21600001 217448.87411208 8493.55342438
0.21700001 214167.78812710 7703.61570316
0.21800001 210939.00387048 8315.21592572
0.21900001 207761.12668987 6856.11750493
0.22000001 204633.94133349 6783.61547595
0.22100001 201558.75062296 9396.66939835
0.22200001 198532.57787944 7305.00654849
0.22300001 195555.04159983 9198.90959183
0.22400001 192625.09643287 7801.31677443
0.22500001 189745.09177465 10291.77426453
0.22600001 186909.66341653 10182.83894446
0.22700001 184121.72894271 7556.35611314
0.22800001 181378.39329323 8722.48734596
0.22900001 178679.56587219 9246.66797117
0.23000001 176025.41618661 9148.92143897
0.23100001 173415.63008818 7845.32347622
0.23200001 170846.90176262 7762.42934870
0.23300001 168321.34583565 7680.50337373
0.23400001 165836.19875984 8768.58942414
0.23500001 163391.51530152 5784.05991524
0.23600001 160987.46361392 6295.41506238
0.23700001 158622.59202866 7927.95752457
0.23800001 156296.09070929 6163.53662865
0.23900001 154007.81481900 6653.13791487
0.24000001 151756.34054516 11520.58313741
0.24100001 149542.57574066 5428.39575616
0.24200001 147365.02422492 6445.74646449
0.24300001 145222.03099523 5315.12658585
0.24400001 143114.18075204 5785.39103057
0.24500001 141039.90754248 5204.37283451
0.24600001 138999.46679267 7724.89573243
0.24700001 136992.55437334 7644.18489565
0.24800001 135017.74605259 6555.78696972
0.24900001 133073.24624420 4990.24697023
0.25000001 131161.43541653 5925.87393246
0.25100001 129279.33431822 5375.43497526
0.25200001 127428.99130728 6286.70958357
0.25300001 125606.46289083 5742.72775506
0.25400001 123813.81072627 6630.22987808
0.25500001 122048.08037278 4686.64650805
0.25600001 120311.42272595 6029.40723518
0.25700001 118601.15795090 5966.82453882
0.25800001 116917.55729901 4996.47204758
0.25900001 115261.21403287 5843.74382796
0.26000001 113629.53656646 6228.03519389
0.26100001 112022.95782184 5283.00294085
0.26200001 110442.30001317 5664.03362418
0.26300001 108884.25318540 4742.99829318
0.26400001 107351.04314538 6827.52666711
0.26500001 105840.98611597 4223.05554586
0.26600001 104353.34858588 5433.15735122
0.26700001 102888.47609195 5790.56370847
0.26800001 101445.95634572 5730.68234515
0.26900001 100023.88905166 4861.16123795
0.27000001 98623.78084388  4810.86825723
0.27100001 97244.01420515  5554.57835426
0.27200001 95885.37076158  4711.80734220
0.27300001 94546.10232083  4663.01398714
0.27400001 93225.22991738  4230.09500769
0.27500001 91925.42066565  3805.71259566
0.27600001 90642.20434285  5272.65727616
0.27700001 89379.54409233  4099.83988155
0.27800001 88133.77358118  4794.91817861
0.27900001 86906.16486792  7300.11819440
0.28000001 85695.43441782  3973.26900483
0.28100001 84502.22906171  3931.88890433
0.28200001 83326.00114880  3537.18891618
0.28300001 82166.32423889  4200.34269390
0.28400001 81022.04646732  5195.53897563
0.28500001 79894.31010754  4798.45249218
0.28600001 78781.99026312  4409.03429376
0.28700001 77685.74676080  5369.63907027
0.28800001 76602.82724108  4981.09907712
0.28900001 75536.80987667  3614.43652368
0.29000001 74484.18515173  3576.35831934
0.29100001 73446.71782553  5468.84286816
0.29200001 72422.87728454  3501.28416806
0.29300001 71413.29091417  3464.25890623
0.29400001 70416.62591178  4985.49735055
0.29500001 69434.68292796  3391.19007473
0.29600001 68464.83938299  4270.15223446
0.29700001 67508.33533487  3621.14727878
0.29800001 66565.29988725  3881.08999365
0.29900001 65635.12928845  3248.93905358
0.30000001 64716.36949186  3214.13864297
0.30100001 63811.33273511  3757.84956267
0.30200001 62917.31549040  4289.38818662
0.30300001 62036.31686113  3111.74180107
0.30400001 61166.82589336  3917.73538394
0.30500001 60309.69488099  4705.96571435
0.30600001 59462.90359880  3012.09352440
0.30700001 58628.65045615  3250.37253517
0.30800001 57805.33659899  3215.13297385
0.30900001 56993.57061637  3975.30173870
0.31000001 56192.90205095  2883.53890526
0.31100001 55402.68659280  3889.26878295
0.31200001 54624.30505683  4103.37799015
0.31300001 53855.87215001  2790.27286820
0.31400001 53099.64263600  3512.54152668
0.31500001 52352.35907436  2729.65213138
0.31600002 51617.11347036  3436.15140642
0.31700002 50891.51033556  2913.03018953
0.31800002 50176.12555515  3841.48435439
0.31900002 49471.63993599  2849.56659524
0.32000002 48777.47538633  2348.63555106
0.32100002 48092.86471954  2787.46257113
0.32200002 47419.50239892  2527.22250002
0.32300002 46754.41484340  2726.71760278
0.32400002 46100.67752624  2696.88976299
0.32500002 45456.34126750  2667.37823188
0.32600002 44822.00320625  3077.92710592
0.32700002 44197.72454186  2174.52815043
0.32800002 43583.89716483  3011.21159771
0.32900002 42977.82507643  2552.88293043
0.33000002 42382.78899929  2946.02780285
0.33100002 41796.34344827  2289.60380252
0.33200002 41220.92577454  2470.78240793
0.33300002 40654.23016533  2444.13243328
0.33400002 40097.60687472  2014.90484087
0.33500002 39550.09377842  2391.98978499
0.33600002 39011.66014280  3155.26322177
0.33700002 38482.49634558  2146.16892283
0.33800002 37963.61992381  2123.49518100
0.33900002 37453.09212245  2483.14012531
0.34000002 36952.12121296  2646.14152538
0.34100002 36460.36682432  1870.41690667
0.34200002 35978.51304324  2406.42295886
0.34300002 35505.02886078  2198.47149118
0.34400002 35041.51443001  2357.41799493
0.34500002 34586.55167280  2333.55475188
0.34600002 34141.34431984  2132.46846721
0.34700002 33704.09651738  2287.16009799
0.34800002 33276.58233504  2613.04375162
0.34900002 32857.69904557  2932.54977871
0.35000002 32448.03405444  1879.22798127
0.35100002 32047.92503439  2538.19578294
0.35200002 31655.19691853  2011.37130747
0.35300002 31272.49314911  1992.68335784
0.35400002 30897.96269432  1809.84825054
0.35500002 30532.59444179  1793.48468246
0.35600002 30175.45585622  2423.84360645
0.35700002 29827.02426536  1922.05353470
0.35800002 29487.50999280  1587.90248832
0.35900002 29157.09741869  1889.38000222
0.36000002 28834.88604711  2342.11373011
0.36100002 28520.57247139  1858.40059026
0.36200002 28216.24342547  2150.92433821
0.36300002 27918.83312398  1981.67886901
0.36400002 27630.46580026  1815.32168906
0.36500002 27349.49976462  1651.63636902
0.36600002 27077.82997384  1639.69807173
0.36700002 26813.71102525  1776.14030245
0.36800002 26558.59850876  1911.02404622
0.36900002 26311.23201876  1898.35548008
0.37000002 26071.40625863  1741.04859242
0.37100002 25839.44586438  1586.02526229
0.37200002 25616.19102310  2149.83893345
0.37300002 25400.32000553  1852.44542575
0.37400002 25192.11360009  1700.46774856
0.37500002 24991.84764543  1409.54027397
0.37600002 24799.31446080  1542.64142911
0.37700002 24614.31120570  1395.63151148
0.37800002 24436.62596783  1667.06670250
0.37900002 24267.36361273  1521.56377060
0.38000002 24104.46228146  1790.84111004
0.38100002 23948.25132740  1783.90532589
0.38200002 23800.48571252  1640.80556275
0.38300002 23658.99822796  2316.68921623
0.38400002 23525.03486491  1630.28499337
0.38500002 23397.24687461  1761.11085568
0.38600002 23277.50625280  1621.51116239
0.38700002 23163.46039109  1617.73615035
0.38800002 23056.19408343  1479.86188735
0.38900002 22955.62259754  1611.48478269
0.39000002 22862.02941588  1743.11551540
0.39100002 22773.97705855  1740.84288883
0.39200002 22693.11416447  1337.75914337
0.39300002 22617.60664694  1604.04073940
0.39400002 22549.62681841  1603.27854275
0.39500002 22486.11115226  1335.67506573
0.39600002 22428.87672948  1736.33157428
0.39700002 22376.95154662  2003.85610594
0.39800002 22331.85014737  2004.84194197
0.39900002 22291.21747237  1471.22042288
0.40000002 22256.46643378  1740.34447525
0.40100002 22226.73607140  1742.35392319
0.40200002 22202.72726924  1744.80140512
0.40300002 22183.65538787  1747.62845426
0.40400002 22169.54418395  2020.19980948
0.40500002 22159.91454074  1349.53885947
0.40600002 22156.00536461  1623.14902992
0.40700002 22156.04551271  1762.73506451
0.40800002 22160.75161805  1495.51839380
0.40900002 22169.52535322  1499.76846121
0.41000002 22183.22586316  1367.59593926
0.41100002 22200.87474367  1509.21553658
0.41200002 22221.69765541  1927.28792897
0.41300002 22248.00802007  1657.92163621
0.41400002 22277.20030879  1664.10694192
0.41500002 22310.15664307  1531.36922454
0.41600002 22345.74016290  1677.27133610
0.41700002 22386.29497216  1824.70698964
0.41800002 22430.42248490  1550.72733197
0.41900002 22476.11072463  1557.59454702
0.42000002 22525.38971442  1564.72627066
0.42100002 22578.31013433  1572.12780915
0.42200002 22633.82479809  1436.11625149
0.42300002 22691.61423912  2020.46142759
0.42400002 22751.89970815  2030.60714517
0.42500002 22815.32838354  1749.47946335
0.42600002 22879.81634117  1905.08799792
0.42700002 22947.72839200  1620.56865584
0.42800002 23017.02275637  2369.83277529
0.42900002 23089.10788789  1787.09703521
0.43000002 23162.97632180  2695.47568230
0.43100002 23236.97356442  1656.33155416
0.43200002 23314.06598158  1514.24865726
0.43300002 23391.81475810  1675.08793421
0.43400002 23471.52119746  2450.42692914
0.43500002 23551.90620202  1848.35368633
0.43600002 23634.19214077  2168.90991554
0.43700002 23716.76319548  2025.64884052
0.43800002 23799.78731696  2037.38088982
0.43900002 23884.71913598  2364.58730652
0.44000002 23969.57087349  2219.82206379
0.44100002 24055.39036040  1594.87245648
0.44200002 24141.47000288  1925.04090926
0.44300002 24228.06723330  2420.38403131
0.44400002 24314.75508711  2272.21397057
0.44500002 24401.00870291  2611.88409534
0.44600002 24487.24518565  2462.80480126
0.44700002 24574.53751971  2146.83169946
0.44800002 24660.35195486  2491.31217431
0.44900002 24746.62450850  2505.59585023
0.45000002 24832.75348144  2015.92302316
0.45100002 24917.52848098  2196.23106440
0.45200002 25002.23037981  1698.90163482
0.45300002 25085.78158134  2050.01016798
0.45400002 25168.93571495  2920.22590473
0.45500002 25251.45385075  1899.91947777
0.45600002 25332.47102937  1910.19506850
0.45700002 25412.95278630  1920.45693308
0.45800002 25491.80056563  2457.15477298
0.45900002 25569.48689932  1764.29467967
0.46000002 25646.44846779  2660.17799340
0.46100002 25721.06707492  2673.70504916
0.46200002 25795.00501451  2149.75581980
0.46300002 25867.30223740  2160.43718526
0.46400002 25937.48025546  1990.05326692
0.46500002 26007.11882647  1999.68746134
0.46600002 26073.91619857  2009.12570791
0.46700002 26138.96051530  2568.93716120
0.46800002 26202.93654923  2396.38967569
0.46900002 26264.16311460  2036.78594607
0.47000002 26323.63898104  2045.74170037
0.47100002 26381.21148318  1867.78986154
0.47200002 26436.89162662  1875.69754981
0.47300002 26490.25513356  2636.84012097
0.47400002 26540.80684727  2458.34235075
0.47500002 26589.61590337  3227.44773132
0.47600002 26636.93640736  1905.87289028
0.47700002 26680.55154060  2869.49345420
