# SAXS profile: number of points = 501, q_min = 0, q_max = 0.5, delta_q = 0.001
#    q    intensity    error
0.00000000 1700912.83420643 280.65061764
0.00100000 1700829.83312428 561.27385826
0.00200000 1700580.77048313 841.78750804
0.00300000 1700165.87216059 1326.12942753
0.00400000 1699584.97861275 1784.56429535
0.00500000 1698838.66511258 1834.74583094
0.00600000 1697926.78623776 1782.82319813
0.00700000 1696849.93605837 2036.22000790
0.00800000 1695607.90034033 2746.88491452
0.00900000 1694202.00688659 3049.56374276
0.01000000 1692631.50279808 3909.97894029
0.01100000 1690897.83396131 3652.33948038
0.01200000 1689000.78671766 3952.26201420
0.01300000 1686941.59561188 4251.09300844
0.01400000 1684720.34219010 6823.11768835
0.01500000 1682338.30948954 6460.17939610
0.01600000 1679795.02501437 5996.86850738
0.01700000 1677092.79577397 5886.59597723
0.01800000 1674231.33428714 5725.87142091
0.01900000 1671211.77704477 7019.08978031
0.02000000 1668034.82301245 6305.17191621
0.02100000 1664702.76928947 5493.51938772
0.02200000 1661214.13613651 6304.30793306
0.02300000 1657572.17055388 6563.98609418
0.02400000 1653776.40661002 8682.32653060
0.02500000 1649829.46348236 10294.93632231
0.02600000 1645731.12175014 8664.77475233
0.02700000 1641483.80708747 9651.92522774
0.02800000 1637087.21201431 9969.86157838
0.02900000 1632544.00003397 9550.38283870
0.03000000 1627855.50236136 7569.52843392
0.03100000 1623022.23139354 8569.55777607
0.03200000 1618045.34972751 12013.98727507
0.03300000 1612928.72185696 9048.53054676
0.03400000 1607670.73174777 8440.27173111
0.03500000 1602274.46480745 12113.19551331
0.03600000 1596741.33196443 11520.48924253
0.03700000 1591072.96580968 10882.93958945
0.03800000 1585271.04596848 11128.60325773
0.03900000 1579337.62743670 9476.02620346
0.04000000 1573272.68286775 10643.19019279
0.04100000 1567079.89925152 9872.60382304
0.04200000 1560760.56297645 12080.28731788
0.04300000 1554315.39864024 12310.17852864
0.04400000 1547747.92882829 13581.48870622
0.04500000 1541059.68396906 10633.31231346
0.04600000 1534250.49500634 23796.22628376
0.04700000 1527324.78906355 12096.41289196
0.04800000 1520282.86437049 17878.52731685
0.04900000 1513128.92468477 13618.16095605
0.05000000 1505862.25190939 16127.78546896
0.05100000 1498487.33179790 12857.02190576
0.05200000 1491002.59934450 15409.51258233
0.05300000 1483414.22898409 14418.78697790
0.05400000 1475722.07734111 12174.70770582
0.05500000 1467928.89655728 14796.72396755
0.05600000 1460035.78952194 16228.29855782
0.05700000 1452047.79369878 16422.66131332
0.05800000 1443963.57955591 12779.07827576
0.05900000 1435786.43980489 14214.28641796
0.06000000 1427519.82222742 18286.52977706
0.06100000 1419165.00980947 18477.52929120
0.06200000 1410724.33809796 18663.88386545
0.06300000 1402200.79496459 17499.46673935
0.06400000 1393593.57397209 14946.29177984
0.06500000 1384908.92171819 13710.59896636
0.06600000 1376147.23873169 15213.30843599
0.06700000 1367310.62307301 25103.82421445
0.06800000 1358401.89452869 15465.40629313
0.06900000 1349423.93561272 18419.63758350
0.07000000 1340377.31843654 15702.52102081
0.07100000 1331265.74599341 18690.97194919
0.07200000 1322090.70798256 18819.96210979
0.07300000 1312856.08930852 17487.24392896
0.07400000 1303563.12409312 20531.12016664
0.07500000 1294214.08154521 19180.25358753
0.07600000 1284809.92390995 19291.42191190
0.07700000 1275356.22592941 16413.83539733
0.07800000 1265852.73176883 22500.53336238
0.07900000 1256302.10448921 18090.75115317
0.08000000 1246708.28979976 19691.75836115
0.08100000 1237072.66970446 16737.59400640
0.08200000 1227396.11669453 21393.51531788
0.08300000 1217682.65341656 15342.80215312
0.08400000 1207934.11296217 20021.50886213
0.08500000 1198152.63886842 18547.40372039
0.08600000 1188340.56863609 21710.98320834
0.08700000 1178501.44239303 15556.21977007
0.08800000 1168634.67122149 18721.52831220
0.08900000 1158745.68157440 17207.37417961
0.09000000 1148834.25246340 20386.06476761
0.09100000 1138904.11097219 18860.25296378
0.09200000 1128956.16246568 17323.83312703
0.09300000 1118995.65248468 20511.19127391
0.09400000 1109019.50611688 23705.29305734
0.09500000 1099033.66190616 18991.30257038
0.09600000 1089039.27383507 17430.07439708
0.09700000 1079040.62563023 19034.27753097
0.09800000 1069037.70542473 20637.77387356
0.09900000 1059032.83918870 20651.14133525
0.10000000 1049027.56273785 19071.32198744
0.10100000 1039023.92167627 19076.48009918
0.10200000 1029025.12410845 19078.12669834
0.10300000 1019032.05153431 17486.59082691
0.10400000 1009048.16686793 20660.26218858
0.10500000 999076.26478252 22239.43870041
0.10600001 989112.79515114 20637.83944191
0.10700001 979166.46604540 19034.99699566
0.10800001 969234.70447719 17431.68698039
0.10900001 959322.22995885 17411.69929325
0.11000001 949428.40656552 17388.78208473
0.11100001 939556.97385889 18941.46948463
0.11200001 929708.26466677 22061.97815916
0.11300001 919884.90646635 17303.03590527
0.11400001 910088.93315348 20408.74528690
0.11500001 900322.24176411 18798.72929323
0.11600001 890585.45454703 17192.75300966
0.11700001 880881.68175714 17150.76715153
0.11800001 871210.00792464 15551.09937389
0.11900001 861573.29890580 15508.32011077
0.12000001 851972.94719954 18555.97166408
0.12100001 842413.56209007 16957.78580372
0.12200001 832892.05540223 16903.54506074
0.12300001 823413.88781673 16847.04893847
0.12400001 813976.69209103 16788.27006540
0.12500001 804583.77224539 16727.29741318
0.12600001 795237.68440310 24238.84576282
0.12700001 785938.21582652 18108.01734601
0.12800001 776686.84262998 19537.55844715
0.12900001 767485.39945221 19455.75579310
0.13000001 758334.91026766 22351.92253369
0.13100001 749235.67434880 20768.81387194
0.13200001 740190.33767140 22150.19689898
0.13300001 731199.75112895 24985.09667395
0.13400001 722263.19492898 16088.41342554
0.13500001 713385.12844250 17463.66876765
0.13600001 704564.48047359 17374.56090770
0.13700001 695802.24496277 18724.03929485
0.13800001 687098.37619186 17191.20218298
0.13900001 678456.99067684 15672.35722371
0.14000001 669876.20824593 18418.24721434
0.14100001 661358.94922689 18313.03016779
0.14200001 652904.25220605 14004.79687036
0.14300001 644514.91099060 15313.67500745
0.14400001 636187.57852910 19371.91267998
0.14500001 627928.84539375 19252.29930794
0.14600001 619735.51979627 15031.68574177
0.14700001 611610.76725376 14935.53564094
0.14800001 603551.61597738 14838.31717886
0.14900001 595561.60050176 18760.19130093
0.15000001 587640.29138632 15972.06387349
0.15100001 579788.83406709 13219.18604048
0.15200001 572008.50094133 23629.67228890
0.15300001 564298.78526181 13035.30255467
0.15400001 556657.98470399 16824.98838167
0.15500001 549090.65674518 12848.72197421
0.15600001 541593.13637808 12754.51896365
0.15700001 534171.08932642 18989.78312181
0.15800001 526818.23570974 16334.00016912
0.15900001 519540.66648903 16209.66955956
0.16000001 512333.93037791 17322.01100372
0.16100001 505202.94537910 12276.43215221
0.16200001 498144.92853960 13397.60848552
0.16300001 491160.56094078 13290.80540649
0.16400001 484251.02054150 19176.34131875
0.16500001 477414.42051370 11887.61963202
0.16600001 470653.09433228 14147.83268359
0.16700001 463964.93460179 14030.30028479
0.16800001 457351.46829006 19709.56245657
0.16900001 450813.74140100 12645.32604339
0.17000001 444349.07245563 15956.57594535
0.17100001 437959.24987875 12429.28409849
0.17200001 431643.56912286 17921.84183630
0.17300001 425402.41649410 13323.60431380
0.17400001 419235.99946685 14306.42915744
0.17500001 413142.58303499 13088.35764868
0.17600001 407121.94947580 16213.63240363
0.17700001 401177.83878572 13924.88344193
0.17800001 395305.49768204 12736.74373690
0.17900001 389505.99219780 10516.66228608
0.18000001 383781.41377463 18755.39857708
0.18100001 378129.80310761 18581.29940242
0.18200001 372548.20379148 14317.02814801
0.18300001 367040.30800663 14182.43817134
0.18400001 361603.74726492 12041.40535277
0.18500001 356239.63708919 14908.62951650
0.18600001 350946.81852532 12797.27634211
0.18700001 345723.75835480 14624.11566932
0.18800001 340570.11079114 11586.19571652
0.18900001 335489.96868748 12429.90392715
0.19000001 330475.58691013 10414.93861357
0.19100001 325532.91995669 13125.48795283
0.19200001 320657.17065664 9283.02552915
0.19300001 315851.79598134 11029.54523684
0.19400001 311112.36749147 10010.04089705
0.19500001 306440.79763038 10811.23185129
0.19600001 301834.70444657 11594.98071925
0.19700001 297297.03429068 11478.63903642
0.19800001 292823.65781541 16607.49453785
0.19900001 288415.69167730 11248.21250700
0.20000001 284070.99163392 9421.21488280
0.20100001 279791.88014053 11868.77211651
0.20200001 275574.63173942 10908.62231298
0.20300001 271420.91549288 11627.67256929
0.20400001 267329.25705933 8220.37504312
0.20500001 263298.75433534 11390.30465093
0.20600001 259329.09636218 8857.38570492
0.20700001 255419.75136355 8766.00628116
0.20800001 251569.69963618 11041.39463896
0.20900001 247780.85110420 8585.60689661
0.21000001 244047.28426268 13130.96475048
0.21100001 240373.28061916 9937.03189055
0.21200001 236754.81172895 7564.31659234
0.21300001 233192.78676241 11228.23321343
0.21400001 229686.75622636 8148.13806235
0.21500001 226236.80917156 7330.07296371
0.21600001 222839.33154392 7978.76264315
0.21700001 219496.40752829 7895.28615208
0.21800001 216206.30740281 7102.37753399
0.21900001 212967.27789144 8433.50460325
0.22000001 209779.71009708 11126.71634965
0.22100001 206644.33503114 8257.50801829
0.22200001 203558.60083999 11575.36038410
0.22300001 200521.99626113 9432.55515015
0.22400001 197533.21184773 7333.42083662
0.22500001 194595.02643083 7256.44887874
0.22600001 191701.79117265 8485.68018753
0.22700001 188856.46892452 8396.55900545
0.22800001 186056.11378533 7669.23337291
0.22900001 183300.99481965 12647.76924068
0.23000001 180590.82033442 6883.21944257
0.23100001 177925.54062581 10526.07548123
0.23200001 175301.80206317 9190.19740780
0.23300001 172721.67023198 7275.03709424
0.23400001 170182.17632152 7798.59859877
0.23500001 167683.94438678 5936.01191204
0.23600001 165226.75392886 6461.19251798
0.23700001 162809.12857863 6974.74339820
0.23800001 160430.28739638 6901.71129023
0.23900001 158090.14757349 7967.74381457
0.24000001 155787.45914376 6194.88860587
0.24100001 153522.91944378 7244.74691124
0.24200001 151294.93739399 6617.64087464
0.24300001 149102.17894207 7094.28200964
0.24400001 146944.70407294 7020.28356917
0.24500001 144821.52805810 9084.65488483
0.24600001 142732.47165162 5288.23832485
0.24700001 140677.70839181 5756.53209971
0.24800001 138655.38164567 6732.41237429
0.24900001 136663.80260773 5124.89284024
0.25000001 134705.34741795 7607.48485533
0.25100001 132777.12476824 6524.66821979
0.25200001 130881.20549247 5960.33038011
0.25300001 129013.47005193 5406.95478568
0.25400001 127176.14230246 4864.48767321
0.25500001 125366.02527899 7221.08339771
0.25600001 123585.65437158 5717.07264172
0.25700001 121832.18215243 5186.39623961
0.25800001 120105.61203279 6532.54454754
0.25900001 118407.00531893 6465.02279630
0.26000001 116733.43182522 5484.13688663
0.26100001 115085.49836816 6784.29044981
0.26200001 113463.66696979 4476.14187376
0.26300001 111865.31399966 5758.82663720
0.26400001 110291.87441201 4822.51243686
0.26500001 108742.26989147 4772.69845138
0.26600001 107215.58140845 5152.78108632
0.26700001 105711.98007368 4674.58398006
0.26800001 104231.34508040 4626.30847031
0.26900001 102771.46481509 5827.14233076
0.27000001 101333.95363166 5354.99303307
0.27100001 99917.37941695  6114.94390969
0.27200001 98522.20270991  4437.93283109
0.27300001 97147.18528304  4791.29940490
0.27400001 95790.55265086  5531.90467738
0.27500001 94455.81467299  5083.61218628
0.27600001 93138.04262278  4256.87443954
0.27700001 91841.12997647  5744.66295190
0.27800001 90561.54247864  5685.00109815
0.27900001 89300.60495110  5250.87581964
0.28000001 88056.97357713  3711.60161194
0.28100001 86831.23178288  3672.96127825
0.28200001 85622.97203126  3998.16486823
0.28300001 84431.62183004  4316.14471224
0.28400001 83256.12319893  5338.79915282
0.28500001 82097.72915331  4578.59057159
0.28600001 80954.97703379  3833.62311889
0.28700001 79828.73558331  3793.46169447
0.28800001 78716.29274450  3412.35145199
0.28900001 77621.14197853  4727.12777024
0.29000001 76539.73043499  4009.15126995
0.29100001 75473.87765558  4297.48279713
0.29200001 74422.12642999  3597.93787257
0.29300001 73384.93948190  3559.90358278
0.29400001 72361.20444692  3842.38013802
0.29500001 71352.39124039  4752.06948156
0.29600001 70356.17876058  5014.98865945
0.29700001 69373.67674580  3411.10384707
0.29800001 68405.03064413  4295.15207747
0.29900001 67449.63171756  3035.23357098
0.30000001 66505.86378603  3903.56185971
0.30100001 65576.43298746  3861.79632145
0.30200001 64658.18330494  3526.45748440
0.30300001 63753.42622733  3197.87201095
0.30400001 62860.53748081  3738.63064366
0.30500001 61980.33024345  4551.83566857
0.30600001 61110.79048290  3658.39764546
0.30700001 60254.07676284  3062.11232606
0.30800001 59408.70289185  3304.31221128
0.30900001 58575.32547009  2996.12803964
0.31000001 57753.42156724  2963.61696803
0.31100001 56942.13071322  3730.84858097
0.31200001 56143.03352213  3690.28176813
0.31300001 55354.21512109  3128.62038677
0.31400001 54577.86437863  3610.32589958
0.31500001 53810.79157291  3315.82113372
0.31600002 53056.18655850  2775.10396934
0.31700002 52311.56780710  2495.26190254
0.31800002 51577.27345979  2961.56718229
0.31900002 50854.31309822  3417.41000201
0.32000002 50142.06731910  2655.77472131
0.32100002 49439.51914053  3104.30755382
0.32200002 48748.49534232  2598.05118229
0.32300002 48066.24814834  2803.22372475
0.32400002 47395.54145899  3465.79913330
0.32500002 46734.32575718  2742.37036529
0.32600002 46083.43978769  2486.43211148
0.32700002 45443.03002818  3130.11605656
0.32800002 44813.19923018  2653.83778408
0.32900002 44191.56535005  3718.72040030
0.33000002 43581.09361374  3029.32196054
0.33100002 42979.45688535  3210.56558137
0.33200002 42389.15273799  2752.53976339
0.33300002 41807.84332577  3351.31687970
0.33400002 41236.70694338  2901.00247085
0.33500002 40675.11633710  2665.03374861
0.33600002 40122.74278175  3447.94806423
0.33700002 39579.83887395  2608.70730372
0.33800002 39047.56402952  2779.79621490
0.33900002 38523.80678287  2161.18566287
0.34000002 38009.75687552  2527.45890313
0.34100002 37505.34925201  2501.23186007
0.34200002 37010.83485278  2856.31131504
0.34300002 36524.93615367  2073.15547427
0.34400002 36049.27567138  1865.55010435
0.34500002 35582.34959034  2400.74124056
0.34600002 35125.48930150  2011.10998520
0.34700002 34676.56805088  1810.11693798
0.34800002 34237.78137454  2688.52190977
0.34900002 33807.64548905  2307.37191391
0.35000002 33386.99299939  2988.30294994
0.35100002 32976.08319534  1915.25100270
0.35200002 32572.67037705  1724.72297815
0.35300002 32179.51905744  1708.73254288
0.35400002 31794.63650344  1693.06447400
0.35500002 31419.10661500  2013.33644725
0.35600002 31052.10597828  1829.12438929
0.35700002 30693.83708136  1813.08504227
0.35800002 30344.70796437  1960.87512153
0.35900002 30004.76665649  2106.33471905
0.36000002 29673.21208781  3534.96992346
0.36100002 29349.69354126  1912.42612173
0.36200002 29036.39156200  2845.85687179
0.36300002 28730.01524167  2039.25657845
0.36400002 28432.83583064  1556.69783546
0.36500002 28143.29490951  2008.58705283
0.36600002 27863.05761731  2454.17823118
0.36700002 27590.56719316  1522.99938120
0.36800002 27327.18241598  1815.07154205
0.36900002 27071.70493833  1802.97563430
0.37000002 26823.76496040  2089.83962706
0.37100002 26583.82737161  1631.71540136
0.37200002 26352.82347106  1916.77270597
0.37300002 26129.22733504  1612.43469523
0.37400002 25913.46978684  1749.15929347
0.37500002 25705.66711504  1739.75963276
0.37600002 25505.69873889  2307.75573122
0.37700002 25313.47007307  1865.85596747
0.37800002 25128.47079379  1857.11972199
0.37900002 24952.05475002  1564.49390694
0.38000002 24782.13926304  2124.44898896
0.38100002 24618.98491357  1833.86827309
0.38200002 24464.30560228  2108.21163515
0.38300002 24316.13497856  1540.67038523
0.38400002 24175.39317409  1675.35482633
0.38500002 24041.00856400  1391.97446180
0.38600002 23914.63949906  1388.24488869
0.38700002 23794.14797403  1523.30142546
0.38800002 23680.30748617  1519.92060801
0.38900002 23573.42903245  1516.95023010
0.39000002 23473.49370855  1514.39251835
0.39100002 23379.19707730  1649.63622393
0.39200002 23292.20456657  1647.69062910
0.39300002 23210.49952240  2331.95899750
0.39400002 23136.42249295  1507.91640742
0.39500002 23066.76141680  1781.21540099
0.39600002 23003.62977075  1780.82608307
0.39700002 22945.72704976  2465.74794559
0.39800002 22894.70712768  1918.34760112
0.39900002 22848.20846719  1645.07108758
0.40000002 22807.60889459  1646.25328801
0.40100002 22772.08785165  1373.15696251
0.40200002 22742.31968751  1512.25061927
0.40300002 22717.53979770  2065.02446545
0.40400002 22697.70118865  1516.77395380
0.40500002 22682.46284295  1519.49825784
0.40600002 22672.86411249  1661.01410358
0.40700002 22667.37882589  2358.31420479
0.40800002 22666.38172075  1946.81561824
0.40900002 22669.64820375  1533.60177365
0.41000002 22677.89820612  1537.90173972
0.41100002 22690.01881154  2243.58916639
0.41200002 22705.34776730  1687.91563300
0.41300002 22726.19024394  1552.42612912
0.41400002 22749.92973304  1557.80151228
0.41500002 22777.36311157  1989.83053571
0.41600002 22807.52163057  2139.91581838
0.41700002 22842.65290004  2291.57504752
0.41800002 22881.47155854  1725.72066672
0.41900002 22921.65800526  2454.90968869
0.42000002 22965.59628107  2030.38846342
0.42100002 23013.23494419  1602.41162509
0.42200002 23063.24580038  1756.03561845
0.42300002 23115.75102948  1617.17801865
0.42400002 23170.70325264  2067.98536329
0.42500002 23228.76520759  1781.18180052
0.42600002 23287.93604477  1789.91084922
0.42700002 23350.42362009  1649.00699419
0.42800002 23414.40444726  2109.40379661
0.42900002 23481.18507291  1817.44381077
0.43000002 23549.71533716  2588.23158678
0.43100002 23618.38199830  1530.47122601
0.43200002 23690.12685503  1846.40857458
0.43300002 23762.59493858  2011.02850495
0.43400002 23836.90544661  2021.96560033
0.43500002 23912.04880150  2345.77209859
0.43600002 23988.92731843  1729.72168626
0.43700002 24066.19151686  1581.14885759
0.43800002 24143.89143387  1907.85039152
0.43900002 24223.47518447  1598.74943794
0.44000002 24302.94908999  2250.69622188
0.44100002 24383.42568832  1939.94543970
0.44200002 24464.14686669  1950.77116360
0.44300002 24545.35468853  1634.72069973
0.44400002 24626.66866534  3123.27740150
0.44500002 24707.58091822  2809.99331100
0.44600002 24788.37794057  1994.47298362
0.44700002 24870.39582038  2005.54881400
0.44800002 24950.76922598  2184.56470311
0.44900002 25031.74731919  2027.57162895
0.45000002 25112.50652247  1698.86114676
0.45100002 25191.91082266  1708.01163472
0.45200002 25271.22994254  2404.05221837
0.45300002 25349.30962129  1898.91687373
0.45400002 25427.12581188  2256.02184458
0.45500002 25504.25534105  2267.83849241
0.45600002 25579.88270599  2104.20125112
0.45700002 25654.96254770  2643.74401584
0.45800002 25728.41856990  2302.82221324
0.45900002 25800.66758131  2136.29537698
0.46000002 25872.23605733  2146.87824979
0.46100002 25941.45533866  2157.29152821
0.46200002 26009.93249164  2890.22383545
0.46300002 26076.88867990  2359.43699958
0.46400002 26141.68303146  1823.38247786
0.46500002 26205.94122475  2381.33399196
0.46600002 26267.29276166  3128.04070678
0.46700002 26326.91053009  1848.14920681
0.46800002 26385.52221797  2598.71020642
0.46900002 26441.28212350  2423.34362148
0.47000002 26495.46937542  2246.28600011
0.47100002 26547.67788138  3195.27866125
0.47200002 26597.92157406  2641.97167517
0.47300002 26645.99032517  2462.88900249
0.47400002 26691.21135234  2091.92378889
0.47500002 26734.63228834  1908.85283586
0.47600002 26776.50502656  1915.85902546
0.47700002 26814.85525659  1922.62521303
