# SAXS profile: number of points = 501, q_min = 0, q_max = 0.5, delta_q = 0.001
#    q    intensity    error
0.00000000 1682732.95097188 353.37391970
0.00100000 1682650.47820764 757.19273318
0.00200000 1682403.00521271 984.20578921
0.00300000 1681990.75009442 1009.19448601
0.00400000 1681413.57034810 1387.16624825
0.00500000 1680672.02636843 2117.64683704
0.00600000 1679765.96568907 2116.50520294
0.00700000 1678695.99221972 3021.65291158
0.00800000 1677461.90677651 2943.94577069
0.00900000 1676064.97151173 3268.32683416
0.01000000 1674504.53244861 4144.39889676
0.01100000 1672781.94583951 3312.10839697
0.01200000 1670897.03754911 3258.24936607
0.01300000 1668851.02923934 3504.58731597
0.01400000 1666643.98154439 5624.92368707
0.01500000 1664277.25922637 5591.97184000
0.01600000 1661750.31194095 5084.95618185
0.01700000 1659065.39339105 7167.16282096
0.01800000 1656222.35215954 6136.30409087
0.01900000 1653222.13894799 5951.59996876
0.02000000 1650065.65312954 5197.70704248
0.02100000 1646755.05451119 7064.57950415
0.02200000 1643288.90276291 7370.15106373
0.02300000 1639670.48608503 6493.09542045
0.02400000 1635899.19346105 7361.54670624
0.02500000 1631977.77189290 7001.18496117
0.02600000 1627905.90740127 6593.01922653
0.02700000 1623686.11800923 8183.37840957
0.02800000 1619318.09052598 11270.45442692
0.02900000 1614804.37085290 9446.60600322
0.03000000 1610146.44365848 8984.61756859
0.03100000 1605344.50961760 11558.48100109
0.03200000 1600399.99176689 10298.57442135
0.03300000 1595316.95161443 8949.72851114
0.03400000 1590093.26666019 10017.58804217
0.03500000 1584732.48640460 16259.35606134
0.03600000 1579235.51842126 8764.75753229
0.03700000 1573604.35080119 8969.54521439
0.03800000 1567840.62713495 12840.61533049
0.03900000 1561946.25720071 14994.68476353
0.04000000 1555921.40285896 16267.15902069
0.04100000 1549769.62387841 12692.61380808
0.04200000 1543492.03235719 12942.18129174
0.04300000 1537089.64128617 10144.79210339
0.04400000 1530565.89203365 12397.58430124
0.04500000 1523922.19813215 11566.57002126
0.04600000 1517158.41569565 17113.54772460
0.04700000 1510279.09106840 15223.61394599
0.04800000 1503284.39974280 20993.36761919
0.04900000 1496178.47194623 11221.33906192
0.05000000 1488960.58151698 11390.54897902
0.05100000 1481635.41954299 15023.78385403
0.05200000 1474201.27144046 17579.85098117
0.05300000 1466664.28623841 21383.96629023
0.05400000 1459024.42112281 15648.03764627
0.05500000 1451284.32100432 12190.78886513
0.05600000 1443444.94185808 17278.03676031
0.05700000 1435511.49466945 13737.84564525
0.05800000 1427482.88736376 13896.54655735
0.05900000 1419361.83249121 12774.25708905
0.06000000 1411152.05598554 28406.49221411
0.06100000 1402854.92174619 16960.51679650
0.06200000 1394472.85683464 15813.32293568
0.06300000 1386008.49163753 15966.81857020
0.06400000 1377461.23217271 14773.27240595
0.06500000 1368837.23389151 14906.63817438
0.06600000 1360136.82939479 17770.18850748
0.06700000 1351362.22223805 16540.67437428
0.06800000 1342516.26556501 13895.04399901
0.06900000 1333601.79254546 18203.66532052
0.07000000 1324619.22000405 15517.91488903
0.07100000 1315572.30210706 15628.99968106
0.07200000 1306462.80651847 15736.34524171
0.07300000 1297294.01862831 14399.96428149
0.07400000 1288067.71676702 20287.06748982
0.07500000 1278786.11442255 21867.24358160
0.07600000 1269449.76865487 14662.14551533
0.07700000 1260064.53189770 17691.30685736
0.07800000 1250630.08506567 14819.96720303
0.07900000 1241149.04737627 19361.92604722
0.08000000 1231625.49488103 20949.95065071
0.08100000 1222060.41813785 15031.34384834
0.08200000 1212455.17251907 19623.58788806
0.08300000 1202813.66422103 19702.08874460
0.08400000 1193137.33433964 18255.00207226
0.08500000 1183428.85731776 18319.47957129
0.08600000 1173689.98315241 18379.98599913
0.08700000 1163924.43866586 18436.56397421
0.08800000 1154131.91110155 16948.42791049
0.08900000 1144317.68448022 20082.77630591
0.09000000 1134481.77944534 17034.24471856
0.09100000 1124627.03605899 26383.75150548
0.09200000 1114754.90705838 18660.99802098
0.09300000 1104871.09498251 17136.55148846
0.09400000 1094971.86366829 18724.01974871
0.09500000 1085063.12728450 17187.40074404
0.09600000 1075146.27302445 20336.39271023
0.09700000 1065225.53796001 18790.57937301
0.09800000 1055300.93832914 23506.82950652
0.09900000 1045374.91818792 17248.68696118
0.10000000 1035448.43644756 20393.15791487
0.10100000 1025524.26050069 26673.88727014
0.10200000 1015605.23160024 15691.10156628
0.10300000 1005692.17647311 17257.67856009
0.10400000 995788.55525534 18820.40457973
0.10500000 985896.85664247 20378.48898559
0.10600001 976014.31788081 17231.53359299
0.10700001 966148.78326069 17216.77212789
0.10800001 956298.38629603 17199.02728695
0.10900001 946467.35364957 15616.71207023
0.11000001 936655.25649714 18714.37290569
0.11100001 926865.43799747 17128.47410049
0.11200001 917098.96989609 21762.75958016
0.11300001 907358.00311007 29480.06290899
0.11400001 897644.32639476 20129.67496720
0.11500001 887960.15845123 21630.71047842
0.11600001 878306.03760367 16955.69885441
0.11700001 868685.04919447 19988.44392332
0.11800001 859096.40484246 16868.35870355
0.11900001 849542.95025158 19879.30597223
0.12000001 840025.67888382 18295.76014791
0.12100001 830549.29100429 16718.95801552
0.12200001 821111.44844526 16664.45763128
0.12300001 811716.43662244 18117.51171901
0.12400001 802362.85499718 16548.73466405
0.12500001 793053.09025333 16487.57452327
0.12600001 783790.75194092 17917.45743370
0.12700001 774574.80983639 20820.57186960
0.12800001 765406.92638784 23696.99955779
0.12900001 756288.88601830 20646.68756142
0.13000001 747221.84827131 14682.91001061
0.13100001 738206.35684429 16078.13520995
0.13200001 729244.36461917 16003.26833597
0.13300001 720337.11417540 15926.65434525
0.13400001 711484.25512934 25933.60232212
0.13500001 702689.16363842 21502.28942113
0.13600001 693951.60860998 21391.05934401
0.13700001 685272.71361267 21277.71876099
0.13800001 676651.84786711 15519.01086264
0.13900001 668093.39169347 16835.95426463
0.14000001 659595.27553671 22320.70517682
0.14100001 651160.71053203 13869.72378847
0.14200001 642788.58996691 19302.94226714
0.14300001 634481.56338652 13704.80241557
0.14400001 626236.36422433 14982.70572080
0.14500001 618059.57090734 17596.15681378
0.14600001 609948.13566377 20174.03553878
0.14700001 601904.97836142 21379.66584002
0.14800001 593927.22975926 13274.27421138
0.14900001 586018.47588055 15822.49959529
0.15000001 578178.28573879 13095.73878988
0.15100001 570407.59838415 15606.35262818
0.15200001 562707.80984061 12914.14484522
0.15300001 555078.25360669 15386.76991606
0.15400001 547517.59111464 14002.76305356
0.15500001 540030.14818669 16427.71788311
0.15600001 532612.12575748 12543.01615356
0.15700001 525269.24552952 13693.76987726
0.15800001 517995.23048402 18531.28024522
0.15900001 510796.39248014 13485.02539798
0.16000001 503667.98456299 17029.01536189
0.16100001 496615.08293605 13274.52179349
0.16200001 489635.01462904 16760.20734194
0.16300001 482728.07688788 13062.62237724
0.16400001 475895.50196671 18845.46276757
0.16500001 469135.67425520 11681.47884045
0.16600001 462450.53210394 12742.82501375
0.16700001 455838.65752099 16081.98859665
0.16800001 449300.85274060 17084.66573214
0.16900001 442838.18295138 18067.79871754
0.17000001 436448.24743363 17911.83692047
0.17100001 430133.13958140 15536.40973533
0.17200001 423891.54789779 12099.98480614
0.17300001 417723.95831401 10902.59582687
0.17400001 411630.93496233 20530.09385080
0.17500001 405610.40912327 11778.92683723
0.17600001 399662.39936690 15916.55580651
0.17700001 393790.43264850 13668.46656280
0.17800001 387989.55269653 14584.52797472
0.17900001 382261.43991318 14449.48311122
0.18000001 376607.27110191 11247.37668273
0.18100001 371026.10240825 14180.61830389
0.18200001 365514.58399129 14046.72612632
0.18300001 360075.83023123 14907.14007578
0.18400001 354708.53291363 10827.47847869
0.18500001 349412.67702625 9748.61414958
0.18600001 344187.94455747 11585.36676114
0.18700001 339032.63706155 16253.22538861
0.18800001 333945.98985488 9467.36925968
0.18900001 328932.52075335 13124.40819815
0.19000001 323984.09978476 12066.78836662
0.19100001 319107.03769595 10109.31143187
0.19200001 314296.53710714 11828.55073294
0.19300001 309555.74821969 10809.68723862
0.19400001 304880.43127017 9809.52833966
0.19500001 300272.55702183 10593.61631233
0.19600001 295729.69854702 9612.69430553
0.19700001 291254.47937315 12110.36182464
0.19800001 286843.23918550 9418.49820376
0.19900001 282496.89264447 11017.37933382
0.20000001 278213.19931821 12582.19253381
0.20100001 273994.55958414 11622.84976688
0.20200001 269837.58283482 9038.21026423
0.20300001 265743.17887343 12197.61248681
0.20400001 261710.61475489 10461.88231932
0.20500001 257738.73309134 9556.95267475
0.20600001 253826.73670815 13398.24493045
0.20700001 249974.96854572 8579.14132602
0.20800001 246181.69836533 8489.57626943
0.20900001 242449.28063278 7637.15270095
0.21000001 238771.52535978 8312.83104837
0.21100001 235152.64955360 8973.42553117
0.21200001 231589.04421670 8139.19734377
0.21300001 228081.09632936 9517.82459978
0.21400001 224628.83331001 7968.70823841
0.21500001 221231.92691570 7884.70624805
0.21600001 217887.12040445 9219.89393582
0.21700001 214596.07713352 7719.02125944
0.21800001 211357.53135554 9026.02380329
0.21900001 208169.67342875 7556.55950275
0.22000001 205032.42069239 7476.50757406
0.22100001 201947.14896373 9414.77652985
0.22200001 198910.59930404 7984.27183360
0.22300001 195922.75707953 7241.30544407
0.22400001 192982.43746731 6513.15757251
0.22500001 190091.92674728 9021.76327004
0.22600001 187245.92313983 8288.44117973
0.22700001 184447.32534790 8831.33835528
0.22800001 181693.19562759 6865.27772145
0.22900001 178983.61093280 9262.40230380
0.23000001 176318.60322014 7331.32786861
0.23100001 173697.85957688 9671.49727863
0.23200001 171118.15951553 7176.69594949
0.23300001 168581.55394237 8284.09795252
0.23400001 166085.27310612 8196.30861543
0.23500001 163629.40053240 7530.22536865
0.23600001 161214.19402466 6304.28135551
0.23700001 158838.08419862 7938.72782373
0.23800001 156500.21982739 5610.53314618
0.23900001 154200.55317406 5551.22017684
0.24000001 151937.75600625 8788.08022308
0.24100001 149712.65421496 6521.48352608
0.24200001 147523.73392750 7528.13649842
0.24300001 145369.26901319 6916.67014683
0.24400001 143249.83996172 6843.76142791
0.24500001 141164.19701736 5208.95911635
0.24600001 139112.17294106 8246.57000205
0.24700001 137093.80097535 7139.84549255
0.24800001 135107.46939577 5550.89064272
0.24900001 133151.62772535 5492.50490351
0.25000001 131228.25405160 4940.74399878
0.25100001 129334.62943111 6355.50399092
0.25200001 127472.80343554 4837.59311924
0.25300001 125638.74910743 4786.83656746
0.25400001 123834.60995156 6631.34367664
0.25500001 122057.46098063 5624.40806809
0.25600001 120309.41679663 5101.72106064
0.25700001 118587.69602456 4589.34405329
0.25800001 116892.71128507 5449.53845795
0.25900001 115225.13967080 4493.78065978
0.26000001 113582.13727662 7114.78541565
0.26100001 111964.24667000 6160.27314326
0.26200001 110372.26310462 4354.18598550
0.26300001 108803.08667328 9048.06511588
0.26400001 107258.75927923 6821.65741295
0.26500001 105737.58140056 6328.39454628
0.26600001 104238.97219281 4174.77103387
0.26700001 102763.17444353 4957.29576974
0.26800001 101309.71281700 4905.41652673
0.26900001 99876.82452609  6472.01853556
0.27000001 98465.90883562  6404.22301373
0.27100001 97075.40346981  4356.74431390
0.27200001 95706.07418296  4702.99670791
0.27300001 94356.48837416  6592.68815470
0.27400001 93025.03608103  4604.73950393
0.27500001 91714.93480201  4176.69832855
0.27600001 90421.42490260  4884.11349726
0.27700001 89148.56309484  4832.74383409
0.27800001 87892.61497767  5149.62855526
0.27900001 86655.00355080  4731.36341780
0.28000001 85434.44162285  4681.38045029
0.28100001 84231.41638646  5344.48362267
0.28200001 83045.50030334  4582.86615114
0.28300001 81876.12787016  3836.71553359
0.28400001 80722.42981196  5176.32605669
0.28500001 79585.43116217  4779.90122184
0.28600001 78463.83421718  3715.65504522
0.28700001 77358.40304359  4010.25980360
0.28800001 76266.56612966  3636.77137803
0.28900001 75191.59440347  3597.91796251
0.29000001 74130.19420261  3882.93975613
0.29100001 73084.15543522  3201.08615959
0.29200001 72051.85789034  3483.34723459
0.29300001 71033.90600758  4072.37402418
0.29400001 70029.02786217  3408.66309254
0.29500001 69038.98597235  3678.39734673
0.29600001 68061.22358509  4548.19148137
0.29700001 67097.07017937  3299.16309690
0.29800001 66146.32447976  3559.99535203
0.29900001 65208.64822259  3227.82823982
0.30000001 64282.58568084  3192.59476898
0.30100001 63370.38976176  3444.81455053
0.30200001 62469.35354647  3691.00192903
0.30300001 61581.48359227  2808.11578475
0.30400001 60705.36632219  3332.72476886
0.30500001 59841.65213286  3570.75155182
0.30600001 58988.51524241  3802.98975772
0.30700001 58147.91427451  4298.29402667
0.30800001 57318.62031989  3453.73363089
0.30900001 56501.01353370  3940.94588056
0.31000001 55694.68181950  2857.97273288
0.31100001 54898.86691904  2826.19380280
0.31200001 54115.18374131  3556.99119572
0.31300001 53341.55146706  2763.62591236
0.31400001 52580.19065902  4223.50401465
0.31500001 51828.24382373  3193.65653563
0.31600002 51088.23578318  4129.71773507
0.31700002 50358.17872233  3362.91933431
0.31800002 49638.43399710  2850.23901507
0.31900002 48929.88499106  2818.36150893
0.32000002 48231.84717313  2322.36355135
0.32100002 47543.46032433  2525.98416664
0.32200002 46866.56564877  2270.68521320
0.32300002 46198.16613484  2694.27717656
0.32400002 45541.22044415  2664.16152213
0.32500002 44893.77432959  2634.36680240
0.32600002 44256.69514353  2387.87009954
0.32700002 43629.78054444  3649.19501754
0.32800002 43013.42877360  3396.34049679
0.32900002 42405.14760010  2099.05490560
0.33000002 41808.13114277  2490.92857144
0.33100002 41219.72763904  2873.83954708
0.33200002 40642.70001564  2233.11325811
0.33300002 40074.45376203  2208.50325141
0.33400002 39516.61366629  2382.85191692
0.33500002 38967.87697136  2553.17542007
0.33600002 38428.58008930  2136.82129706
0.33700002 37898.62609088  2690.04460732
0.33800002 37379.23058976  2280.88075860
0.33900002 36868.38366803  2820.43148417
0.34000002 36367.16516856  2790.27087970
0.34100002 35875.52217816  2208.49724988
0.34200002 35393.84140412  2003.11454913
0.34300002 34920.74777874  2522.67493901
0.34400002 34457.82846260  2318.15051961
0.34500002 34003.67786549  1941.27006128
0.34600002 33559.41448544  2445.47464937
0.34700002 33123.26088370  2593.55145003
0.34800002 32697.15930842  1882.86600795
0.34900002 32279.64831330  1694.68161671
0.35000002 31871.72072016  1845.85079293
0.35100002 31473.52159393  2160.34262453
0.35200002 31082.81188851  1810.41846419
0.35300002 30702.28015304  2119.37849935
0.35400002 30330.16667356  2422.62217779
0.35500002 29967.41615710  2080.33812816
0.35600002 29613.07758229  2220.09253150
0.35700002 29267.59004999  1728.83662614
0.35800002 28931.08130554  2025.32044272
0.35900002 28603.89268321  2162.45438928
0.36000002 28285.23948220  1837.97494861
0.36100002 27974.51336752  1974.72099215
0.36200002 27673.96703061  1657.53233381
0.36300002 27380.52616031  2092.96751883
0.36400002 27096.16810699  2076.92138378
0.36500002 26819.54224360  1472.39293892
0.36600002 26552.24263835  1900.21133442
0.36700002 26292.75038624  1741.63186808
0.36800002 26042.32588874  1585.58708684
0.36900002 25799.95862630  1575.08754875
0.37000002 25565.10097418  1849.50731759
0.37100002 25338.30237895  1696.65280766
0.37200002 25120.29334502  1546.02852715
0.37300002 24909.96739022  1537.19416047
0.37400002 24707.45495771  1528.77384793
0.37500002 24512.90469624  1520.78067940
0.37600002 24326.29902065  1925.91318470
0.37700002 24147.31651728  1779.89878481
0.37800002 23975.74558417  1499.32332113
0.37900002 23812.73170022  1628.79092545
0.38000002 23656.29385137  2163.13161224
0.38100002 23506.69028067  1616.32010027
0.38200002 23365.51667774  1745.05369575
0.38300002 23230.83998934  1338.09644678
0.38400002 23103.75502613  1734.51449076
0.38500002 22983.09731873  1729.93781714
0.38600002 22870.37098954  2124.20015814
0.38700002 22763.65564596  1457.32930350
0.38800002 22663.66961874  1586.91022188
0.38900002 22570.59059933  1584.45553514
0.39000002 22484.54976007  1714.33457767
0.39100002 22404.19458448  1844.31338557
0.39200002 22331.05811973  1579.69912623
0.39300002 22263.33286768  1578.91564178
0.39400002 22203.24239095  1841.75904359
0.39500002 22147.76985110  1315.57759148
0.39600002 22098.69542809  1710.77058762
0.39700002 22054.91073782  1580.01388012
0.39800002 22018.00761997  1713.11116404
0.39900002 21985.71226747  2374.45703739
0.40000002 21959.34818064  2113.36776903
0.40100002 21938.11724104  1455.15538554
0.40200002 21922.65412561  1590.26940562
0.40300002 21912.13142230  1460.66274982
0.40400002 21906.70838479  1863.16563640
0.40500002 21905.75989217  1734.27909283
0.40600002 21910.56425834  1872.69601589
0.40700002 21919.53174433  1475.62294694
0.40800002 21932.99704188  1480.14837550
0.40900002 21950.67302310  1889.95303684
0.41000002 21973.31566001  2031.98246194
0.41100002 21999.91182125  1495.55407647
0.41200002 22029.83678845  1364.74845371
0.41300002 22065.05995326  1370.24028802
0.41400002 22103.37747746  1375.93531317
0.41500002 22145.38769887  1796.43393525
0.41600002 22190.10865777  1665.58963477
0.41700002 22239.73676690  1673.31787363
0.41800002 22293.00649162  1681.33862927
0.41900002 22347.78600200  1548.70164332
0.42000002 22406.25685892  1697.94622523
0.42100002 22468.37649414  2275.59727916
0.42200002 22532.95125446  1858.63057230
0.42300002 22599.96232841  1581.09343942
0.42400002 22669.43447014  1734.21181914
0.42500002 22741.95960074  2615.78031723
0.42600002 22815.55752338  2045.87114007
0.42700002 22892.62432170  1469.70655110
0.42800002 22971.02074541  2217.27788252
0.42900002 23052.22079930  1784.24197442
0.43000002 23135.09672593  1645.25248163
0.43100002 23218.15976738  1654.99050664
0.43200002 23304.27654044  1513.61283303
0.43300002 23390.99149024  2436.40578908
0.43400002 23479.57697198  2757.67644604
0.43500002 23568.96145707  1695.55116757
0.43600002 23660.07063037  1861.10124398
0.43700002 23751.44454557  1872.56397671
0.43800002 23843.24646815  1727.08563977
0.43900002 23936.87569104  1895.80064457
0.44000002 24030.39000519  1907.53244901
0.44100002 24124.81612515  2239.26553886
0.44200002 24219.44096840  1770.32012148
0.44300002 24314.53883476  2105.15287208
0.44400002 24409.62191767  1629.34234022
0.44500002 24504.27030963  1967.20291368
0.44600002 24598.77531564  1814.28275939
0.44700002 24694.30020590  2323.23987347
0.44800002 24788.29173365  2337.28813833
0.44900002 24882.71069372  2015.49966171
0.45000002 24976.80904947  2196.58557596
0.45100002 25069.47943172  1869.68186463
0.45200002 25162.04923265  1880.73745903
0.45300002 25253.34378861  2235.67863156
0.45400002 25344.10135341  2248.65549915
0.45500002 25434.19604931  2261.60881989
0.45600002 25522.75833566  1924.54368351
0.45700002 25610.62487822  2639.17501878
0.45800002 25696.79056541  1946.14652571
0.45900002 25781.64332006  2668.40021009
0.46000002 25865.68149224  2325.19554795
0.46100002 25947.34005572  2337.59597641
0.46200002 26028.13290180  2349.95009041
0.46300002 26107.30137629  2362.18874048
0.46400002 26184.09845265  1826.34095363
0.46500002 26260.28423843  2569.83153737
0.46600002 26333.52271484  2582.52869504
0.46700002 26404.93462785  2595.07709822
0.46800002 26475.13479155  2048.77840295
0.46900002 26542.42535002  2619.73750621
0.47000002 26607.95740522  2255.82273573
0.47100002 26671.50502334  2077.17690967
0.47200002 26732.85717639  2086.36593722
0.47300002 26791.87691395  2095.39279276
0.47400002 26848.02131116  1912.92160909
0.47500002 26902.19574672  2689.14361430
0.47600002 26954.65693281  2121.46637445
0.47700002 27003.52333651  3291.45961550
