# SAXS profile: number of points = 501, q_min = 0, q_max = 0.5, delta_q = 0.001
#    q    intensity    error
0.00000000 1664650.74656090 274.66737318
0.00100000 1664568.72372481 699.11888057
0.00200000 1664322.59243046 1048.52326643
0.00300000 1663912.58107648 1297.85185947
0.00400000 1663338.54267283 1621.75514073
0.00500000 1662601.02481869 1645.97507972
0.00600000 1661699.88906610 2268.22044092
0.00700000 1660635.73762717 2192.03926477
0.00800000 1659408.37042234 2912.26181305
0.00900000 1658019.04145543 2487.02866850
0.01000000 1656467.10562561 4099.75626345
0.01100000 1654753.91865110 2978.55718326
0.01200000 1652879.28488111 3867.73769620
0.01300000 1650844.42093687 4160.12812424
0.01400000 1648649.44081674 4822.29982817
0.01500000 1646295.66164519 5926.66464583
0.01600000 1643782.54977388 5029.97482717
0.01700000 1641112.33956209 4874.10386715
0.01800000 1638284.86860606 5136.02329419
0.01900000 1635301.06900884 6868.26479975
0.02000000 1632161.99770684 6169.57263042
0.02100000 1628869.56670342 5912.79679521
0.02200000 1625422.47344629 7290.02012461
0.02300000 1621823.99750312 7006.27998813
0.02400000 1618073.54018129 7888.10886806
0.02500000 1614173.75063053 6295.27791497
0.02600000 1610124.43092178 7825.20509219
0.02700000 1605928.06765268 7419.38801237
0.02800000 1601584.27507230 12540.40544891
0.02900000 1597095.64445619 7186.93073004
0.03000000 1592463.60870739 8885.94734503
0.03100000 1587688.48499287 8382.99558649
0.03200000 1582771.51473745 10185.13516644
0.03300000 1577716.91304470 12874.17060395
0.03400000 1572522.63765176 13209.19076575
0.03500000 1567191.91998101 11001.68778630
0.03600000 1561725.91109203 10401.09504855
0.03700000 1556126.43900398 9756.91322379
0.03800000 1550395.35219106 13604.71984510
0.03900000 1544534.27479998 11120.64729356
0.04000000 1538543.64957734 15139.27021338
0.04100000 1532426.92638918 12550.57710905
0.04200000 1526185.03133208 11812.67269053
0.04300000 1519819.21446114 13040.04946537
0.04400000 1513332.79727288 15322.49528399
0.04500000 1506727.32630032 13515.34474490
0.04600000 1500002.45982819 14805.02496674
0.04700000 1493162.79746212 11825.84990590
0.04800000 1486208.63315528 15293.08754673
0.04900000 1479143.93087573 14421.65399733
0.05000000 1471967.94382708 11260.55529464
0.05100000 1464685.51881105 13709.45709471
0.05200000 1457294.91824851 16219.69319596
0.05300000 1449802.15330118 14092.07758703
0.05400000 1442207.27286976 21416.77900086
0.05500000 1434512.82787265 12049.90831625
0.05600000 1426719.80762857 14638.14590935
0.05700000 1418833.47721284 17281.39255912
0.05800000 1410852.79664562 14983.25739998
0.05900000 1402780.23491098 13887.52497425
0.06000000 1394619.72672808 14036.84820530
0.06100000 1386372.44597682 14182.59078511
0.06200000 1378040.93935481 16929.23373131
0.06300000 1369627.98799295 13148.42929949
0.06400000 1361132.76076875 15925.25404577
0.06500000 1352561.22533904 16068.42810867
0.06600000 1343914.17080727 13506.33804855
0.06700000 1335193.32103003 17704.66426542
0.06800000 1326402.02557613 19219.56625025
0.06900000 1317542.74027734 16601.03930474
0.07000000 1308616.03038253 19511.46592670
0.07100000 1299625.58036653 22457.53108059
0.07200000 1290573.23869100 18371.31091340
0.07300000 1281461.96401972 25603.61124079
0.07400000 1272294.03465499 14313.30856065
0.07500000 1263071.28587664 23038.42133426
0.07600000 1253794.51005985 18825.72545111
0.07700000 1244469.32025781 16016.32090270
0.07800000 1235095.48406208 21953.82325875
0.07900000 1225675.45547366 14708.10615555
0.08000000 1216213.79246823 16254.69809886
0.08100000 1206710.93509544 16326.79971787
0.08200000 1197168.42606858 19376.17188515
0.08300000 1187590.41266186 19452.73187236
0.08400000 1177977.83584175 18023.06173436
0.08500000 1168333.89881837 18085.80960275
0.08600000 1158659.71536329 25704.86699222
0.08700000 1148959.65861403 19716.14866764
0.08800000 1139232.92986072 18250.51239348
0.08900000 1129485.15874035 18297.66043103
0.09000000 1119716.00145053 22926.18620667
0.09100000 1109928.57568428 24507.22410249
0.09200000 1100124.10456314 19950.75157367
0.09300000 1090308.63431311 16910.68771287
0.09400000 1080478.00245106 18476.17471025
0.09500000 1070638.47758002 16958.91428198
0.09600000 1060791.11340528 21608.31599582
0.09700000 1050940.18403057 24718.11429047
0.09800000 1041085.87911172 18552.15123805
0.09900000 1031230.65377849 23202.69080106
0.10000000 1021375.34875803 17021.22098751
0.10100000 1011522.69859363 24762.07682618
0.10200000 1001675.56656160 18571.06587757
0.10300000 991834.71008898 15472.62220523
0.10400000 982003.75644240 21653.18384823
0.10500000 972184.88953094 20095.06261206
0.10600001 962375.74323197 15446.13140567
0.10700001 952583.80431238 20061.41586286
0.10800001 942807.35935023 21580.86147116
0.10900001 933050.64387293 18474.40361819
0.11000001 923313.05821562 16910.47945719
0.11100001 913597.87334318 21487.82299254
0.11200001 903906.70546745 16853.34131685
0.11300001 894241.04422383 18349.82709140
0.11400001 884603.19150051 16785.34634905
0.11500001 874994.69862954 18269.89016768
0.11600001 865416.92392197 16706.87450307
0.11700001 855872.36167530 18178.72981811
0.11800001 846360.45907211 19639.79537777
0.11900001 836883.87780064 16570.30156094
0.12000001 827443.67806566 16519.91381075
0.12100001 818044.68759464 16467.24033702
0.12200001 808684.38790575 23872.36425564
0.12300001 799367.01583010 20815.51807293
0.12400001 790091.36003394 14814.21369864
0.12500001 780859.62444401 16234.07235715
0.12600001 771675.51279080 16170.46113254
0.12700001 762537.90340166 16104.80127880
0.12800001 753448.54604313 20410.92207426
0.12900001 744409.16757948 18870.77328756
0.13000001 735421.08577269 17341.23001990
0.13100001 726484.60999074 15822.83555145
0.13200001 717601.39731640 18610.99311673
0.13300001 708773.31755756 18520.24766088
0.13400001 699999.78256948 15592.49589185
0.13500001 691284.01031630 16922.63337041
0.13600001 682625.80585340 18236.34926323
0.13700001 674026.38846307 16742.81627890
0.13800001 665485.19545722 19425.51377142
0.13900001 657006.10698516 17936.26756654
0.14000001 648587.65003061 16461.15533409
0.14100001 640232.73751312 16364.34954263
0.14200001 631940.37392918 17621.65815815
0.14300001 623713.01004746 16166.64198297
0.14400001 615547.64617302 14726.97812936
0.14500001 607450.53143040 17294.11744562
0.14600001 599418.99019031 14538.90829293
0.14700001 591455.46777209 13130.31200398
0.14800001 583557.24726933 19563.75763770
0.14900001 575728.23692507 16840.05172459
0.15000001 567967.72234047 14150.91646979
0.15100001 560276.35844895 14051.73173293
0.15200001 552656.15440836 16488.49714482
0.15300001 545105.92720681 15110.33701521
0.15400001 537624.78169203 18749.66514633
0.15500001 530216.56484559 14888.48184350
0.15600001 522877.85007677 13545.15134550
0.15700001 515614.17870926 15886.07359580
0.15800001 508419.31773810 14550.96156045
0.15900001 501299.29475956 13234.30200632
0.16000001 494249.64519947 13129.74244448
0.16100001 487275.64564873 13024.87862302
0.16200001 480374.13243464 11745.14809247
0.16300001 473545.66042386 16308.91331491
0.16400001 466791.20957624 15019.00787716
0.16500001 460109.58378086 12602.40209473
0.16600001 453502.30383144 15904.32654626
0.16700001 446968.45311695 11263.60555036
0.16800001 440508.31822864 15633.64095210
0.16900001 434123.12807626 18819.23849071
0.17000001 427810.34617127 15362.67025643
0.17100001 421572.39507240 14139.53879842
0.17200001 415407.88733115 12935.80222236
0.17300001 409316.66911568 12819.79868211
0.17400001 403300.32183814 11645.29734304
0.17500001 397356.04190744 13637.26000232
0.17600001 391484.00219701 14551.46104892
0.17700001 385687.83924882 12357.43895318
0.17800001 379962.55081250 12242.39396541
0.17900001 374309.86390099 11117.00348296
0.18000001 368730.62395680 10011.03691330
0.18100001 363224.33237428 15865.63958755
0.18200001 357787.42484718 14731.89791399
0.18300001 352422.91013004 14590.30916862
0.18400001 347129.84007416 12522.70957226
0.18500001 341907.65724144 12400.99131400
0.18600001 336756.31746525 10390.61666628
0.18700001 331674.36974838 13094.50473631
0.18800001 326660.63462381 12039.07825786
0.18900001 321719.68436695 10085.91258144
0.19000001 316843.56612848 16339.62347727
0.19100001 312038.44741475 8986.70771017
0.19200001 307299.82673933 9785.96344491
0.19300001 302630.18785384 11448.50054748
0.19400001 298025.91098182 10460.70996977
0.19500001 293488.69010641 11217.13826593
0.19600001 289016.32421866 8540.43278425
0.19700001 284611.09566519 10988.83492294
0.19800001 280269.45545543 8366.04364071
0.19900001 275992.42764063 9107.75054257
0.20000001 271777.71498678 11471.73789176
0.20100001 267627.65819628 8920.03026926
0.20200001 263538.94169406 11234.66561541
0.20300001 259512.37055565 9529.29469720
0.20400001 255547.52065694 12572.93861059
0.20500001 251642.77874778 8553.33845393
0.20600001 247797.40513837 11541.16468985
0.20700001 244012.17533519 13703.72441459
0.20800001 240284.90756864 11299.39831254
0.20900001 236618.12253741 7453.47121226
0.21000001 233005.64878522 8849.55495920
0.21100001 229451.54118671 8755.87122560
0.21200001 225952.28118226 15882.18659512
0.21300001 222508.47136346 10713.78340265
0.21400001 219119.82831329 9186.59923635
0.21500001 215786.15182271 6991.47164960
0.21600001 212504.18054486 8300.41368451
0.21700001 209275.44008251 6843.30721425
0.21800001 206098.85346713 8801.45195345
0.21900001 202972.69286839 6698.09918135
0.22000001 199896.55398510 6626.57107793
0.22100001 196872.08354319 12456.09731475
0.22200001 193895.74774299 6485.81306868
0.22300001 190967.76586296 7699.82068368
0.22400001 188086.87806360 9521.89865223
0.22500001 185255.33672748 8792.21869685
0.22600001 182467.87517243 8698.24402079
0.22700001 179727.36183938 7376.01127869
0.22800001 177031.01798380 9121.52363297
0.22900001 174378.57502886 7219.27334760
0.23000001 171770.25921333 7737.39169218
0.23100001 169206.08534843 7066.04645832
0.23200001 166682.13664295 6990.64914142
0.23300001 164200.89969159 8068.83259246
0.23400001 161759.79862036 5702.03317105
0.23500001 159358.44103831 9026.06252731
0.23600001 156997.24931019 6139.37772465
0.23700001 154674.85215952 6626.27097992
0.23800001 152390.25555029 7102.14819584
0.23900001 150143.25595206 7567.22045791
0.24000001 147932.82493939 9091.21218667
0.24100001 145759.46792347 5291.06893590
0.24200001 143621.86059660 5758.51877301
0.24300001 141518.24857804 5179.56814296
0.24400001 139449.41072369 6149.71930382
0.24500001 137413.68639152 5577.62179448
0.24600001 135411.28473976 6020.38600433
0.24700001 133441.96096809 7942.46589255
0.24800001 131504.13182936 4911.67955618
0.24900001 129596.55503626 6317.83235690
0.25000001 127720.85263551 5770.42839506
0.25100001 125874.39965937 6185.46829189
0.25200001 124059.35031225 6120.46833721
0.25300001 122271.66302708 5124.40563990
0.25400001 120513.36011266 5070.59986664
0.25500001 118781.65878401 6841.82386966
0.25600001 117078.40205632 7221.39618050
0.25700001 115401.25115266 5359.23435709
0.25800001 113750.32586425 6628.80055337
0.25900001 112126.14116601 5247.50365485
0.26000001 110526.29075981 5192.52538558
0.26100001 108950.99995691 5138.12940108
0.26200001 107401.31067785 6779.17105075
0.26300001 105873.68010575 5869.63710280
0.26400001 104370.79751455 4563.61333727
0.26500001 102890.38172550 4515.85906762
0.26600001 101432.18265907 6093.53866159
0.26700001 99996.19378441  4421.83189839
0.26800001 98582.14533711  3977.78975258
0.26900001 97188.35765050  4723.35440533
0.27000001 95816.09910920  4673.90953573
0.27100001 94463.65247193  3854.11720324
0.27200001 93132.03246747  4576.50829203
0.27300001 91819.60938773  4528.54334931
0.27400001 90525.04094085  3734.15811553
0.27500001 89251.31530799  4434.00555434
0.27600001 87993.63701042  4752.97652806
0.27700001 86756.23402878  4703.05566928
0.27800001 85535.43020642  5011.52109298
0.27900001 84332.37105302  3896.15572705
0.28000001 83146.00879773  4205.52532403
0.28100001 81976.76136301  4507.90232071
0.28200001 80824.23796423  4460.28578316
0.28300001 79687.73435422  4073.63717299
0.28400001 78566.49692747  4030.46148314
0.28500001 77461.51486500  3987.71897399
0.28600001 76371.62508772  4274.13820034
0.28700001 75297.39213537  4228.70174248
0.28800001 74236.40671280  3539.96322166
0.28900001 73191.82174047  4775.76659462
0.29000001 72160.51712389  3464.78739371
0.29100001 71144.01759381  3427.71892992
0.29200001 70140.95002709  4007.50336949
0.29300001 69151.75452583  4574.38877842
0.29400001 68175.28852417  3318.43232600
0.29500001 67213.29694223  3282.69757805
0.29600001 66263.05993573  3542.42335185
0.29700001 65326.21761586  3796.10668536
0.29800001 64402.29982968  3177.28761251
0.29900001 63490.99994687  2857.09513286
0.30000001 62591.15356935  3956.38700441
0.30100001 61704.56419426  3354.26026839
0.30200001 60828.86020515  3041.13900993
0.30300001 59965.96216179  3281.33760484
0.30400001 59114.37620604  4056.72425919
0.30500001 58274.86798197  3209.77988040
0.30600001 57445.61619291  2909.90782601
0.30700001 56628.55715910  3139.48735753
0.30800001 55822.35195529  3363.57597631
0.30900001 55027.48960188  3070.53406516
0.31000001 54243.53985357  2783.50737937
0.31100001 53469.82638827  2752.62679279
0.31200001 52707.90631307  2969.56358227
0.31300001 51955.67017665  2691.82339930
0.31400001 51215.41257653  3145.90686646
0.31500001 50484.33022188  5025.21046822
0.31600002 49764.65026075  2602.94015513
0.31700002 49054.65330116  2339.90707326
0.31800002 48354.65152128  2545.14720333
0.31900002 47665.53031010  2287.94556322
0.32000002 46986.51439934  2714.88093054
0.32100002 46317.03932211  2908.24703674
0.32200002 45658.54847879  2654.58813425
0.32300002 45008.28170380  2843.62337269
0.32400002 44369.11843614  2162.99462618
0.32500002 43739.35020596  2566.62519162
0.32600002 43119.56139229  2749.51896237
0.32700002 42509.61524216  2718.91511964
0.32800002 41909.96225791  2275.08240890
0.32900002 41318.04649395  2045.24339830
0.33000002 40737.16711337  2629.38057584
0.33100002 40164.62970275  2400.23838470
0.33200002 39603.17226459  2175.99640312
0.33300002 39050.26748221  2152.06034286
0.33400002 38507.47854707  1935.00088862
0.33500002 37973.41685566  2296.63236019
0.33600002 37448.63915195  2082.33167866
0.33700002 36932.93197041  2059.74971353
0.33800002 36427.52221291  2037.57355147
0.33900002 35930.44050780  2382.18831848
0.34000002 35442.77490183  2719.34703313
0.34100002 34964.23853909  1973.03207420
0.34200002 34495.61880276  2307.23957289
0.34300002 34035.40806032  2458.71799472
0.34400002 33584.99106991  2954.63972931
0.34500002 33143.14872263  2580.19425026
0.34600002 32710.89223661  1702.60202155
0.34700002 32286.62434708  2696.57899318
0.34800002 31872.14933707  1668.50709682
0.34900002 31466.15804630  1982.36805081
0.35000002 31069.37437634  1962.96316607
0.35100002 30682.19589528  1944.02402400
0.35200002 30302.24842168  2085.85536890
0.35300002 29932.30166359  1907.28635234
0.35400002 29570.71590228  1732.10476601
0.35500002 29218.14668374  1872.29892817
0.35600002 28873.79658467  1855.43025641
0.35700002 28538.13657582  1532.49800671
0.35800002 28211.25373155  1974.92891102
0.35900002 27893.58300479  1958.12961968
0.36000002 27584.16803018  1941.78760046
0.36100002 27282.50986253  2222.16053356
0.36200002 26990.84456817  1616.61671198
0.36300002 26706.27659546  1603.97904830
0.36400002 26430.50502302  1881.19128412
0.36500002 26162.29743759  2154.46529604
0.36600002 25903.29617743  1568.57417432
0.36700002 25651.89189131  1557.58294942
0.36800002 25409.47524586  1547.05597363
0.36900002 25174.90014928  1397.20702447
0.37000002 24947.79301342  1943.68264575
0.37100002 24728.48484151  1793.80437538
0.37200002 24517.94907302  1508.95724718
0.37300002 24314.79935773  1773.27840116
0.37400002 24119.44506724  1899.40638902
0.37500002 23931.95864085  1619.71503754
0.37600002 23752.16322656  1477.50338350
0.37700002 23579.84198936  1738.07023537
0.37800002 23414.98326068  2262.94116443
0.37900002 23258.47810423  1325.73331474
0.38000002 23108.44312004  1980.97138031
0.38100002 22965.09027573  1315.89973514
0.38200002 22830.12593705  1442.74987694
0.38300002 22701.40375244  1438.36100990
0.38400002 22580.35210686  1695.22001473
0.38500002 22465.54809163  1560.90635535
0.38600002 22358.56344172  1427.70613621
0.38700002 22257.49541528  1424.92492399
0.38800002 22163.11360164  1551.86128791
0.38900002 22075.46646334  1937.12227393
0.39000002 21994.86436016  1289.99885584
0.39100002 21919.81652148  1417.77379978
0.39200002 21851.83296167  1416.98217553
0.39300002 21789.29354517  1674.07150239
0.39400002 21734.22858059  1802.85434617
0.39500002 21683.70719291  1545.61472194
0.39600002 21639.60212577  1417.50220441
0.39700002 21600.61341751  1676.42368676
0.39800002 21568.49200331  1549.04916907
0.39900002 21540.95525854  1421.70311442
0.40000002 21519.18727992  1812.13084670
0.40100002 21502.54525300  1685.58460224
0.40200002 21491.60725519  1299.16772013
0.40300002 21485.52803880  1432.22536693
0.40400002 21484.44429787  1566.21606352
0.40500002 21487.91545653  1570.33693597
0.40600002 21496.97944114  1706.10785418
0.40700002 21510.25060665  1842.99835930
0.40800002 21527.91454349  1849.03266775
0.40900002 21549.66354318  1590.36524484
0.41000002 21576.46232513  2261.32124113
0.41100002 21607.07799608  2002.97622514
0.41200002 21641.05978333  2010.99557565
0.41300002 21680.25118881  1480.97802888
0.41400002 21722.48832063  1757.89245064
0.41500002 21768.38476210  1901.68618293
0.41600002 21817.09152348  1774.05688129
0.41700002 21870.63662185  1645.54677740
0.41800002 21927.61041020  1515.96541754
0.41900002 21986.24108106  1800.67322986
0.42000002 22048.42114181  2227.77257773
0.42100002 22114.27072468  1679.80008384
0.42200002 22182.62687019  1829.73406409
0.42300002 22253.33812031  1981.43732012
0.42400002 22326.50145244  1707.97744205
0.42500002 22402.59231979  2004.13600390
0.42600002 22479.83740748  1583.81701960
0.42700002 22560.52655669  2607.09457243
0.42800002 22642.55527909  2185.57275188
0.42900002 22727.39413838  1465.91699139
0.43000002 22813.81343938  1917.38704137
0.43100002 22900.41968249  2225.92089862
0.43200002 22990.10832878  1941.16988873
0.43300002 23080.38069834  1652.78614013
0.43400002 23172.44581078  2872.80410553
0.43500002 23265.39538330  1673.71262319
0.43600002 23359.98371107  2449.99520772
0.43700002 23454.87351000  1695.08378890
0.43800002 23550.19305681  1860.93634354
0.43900002 23647.31943213  1560.72315648
0.44000002 23744.34453321  2041.89500490
0.44100002 23842.27400557  1738.81712563
0.44200002 23940.41477903  1590.84063746
0.44300002 24039.00091226  1600.99753663
0.44400002 24137.59998557  1933.42185047
0.44500002 24235.74335979  2269.91983065
0.44600002 24333.76572078  1631.57906890
0.44700002 24432.74525400  1806.06861477
0.44800002 24530.27517222  2643.38257783
0.44900002 24628.15837416  1994.88092285
0.45000002 24725.77788192  2007.23874358
0.45100002 24821.91117529  2356.09592042
0.45200002 24917.98660288  1862.49499690
0.45300002 25012.88976680  1873.71566123
0.45400002 25107.12902404  2227.63012823
0.45500002 25200.72697947  2413.22172992
0.45600002 25292.86130938  1907.20829742
0.45700002 25384.20514526  1918.28447374
0.45800002 25473.92404568  2280.04367977
0.45900002 25562.40302512  2469.32824926
0.46000002 25649.97000316  2305.80416272
0.46100002 25735.23636304  2140.14235738
0.46200002 25819.63628835  1793.17382521
0.46300002 25902.29318390  1983.07966015
0.46400002 25982.70062694  1812.29345462
0.46500002 26062.50150612  1821.76894162
0.46600002 26139.32448883  2380.37769739
0.46700002 26214.39459462  3128.42599920
0.46800002 26288.16556681  2589.12154939
0.46900002 26359.19078455  2787.48455758
0.47000002 26428.31040819  2987.45635014
0.47100002 26495.48516374  2063.46848235
0.47200002 26560.48466489  2638.25306681
0.47300002 26623.11813996  2839.35568420
0.47400002 26683.00280755  2661.62965621
0.47500002 26740.83732982  3245.80298894
0.47600002 26796.96561914  1917.32298093
0.47700002 26849.55764075  2310.13604891
