# SAXS profile: number of points = 501, q_min = 0, q_max = 0.5, delta_q = 0.001
#    q    intensity    error
0.00000000 1664650.74656090 274.66737318
0.00100000 1664569.16818820 699.11906724
0.00200000 1664324.37179290 823.84059012
0.00300000 1663916.57903702 1297.85497788
0.00400000 1663345.66036061 1871.26393901
0.00500000 1662612.13682254 1496.35098237
0.00600000 1661715.88327077 2268.24227301
0.00700000 1660657.48408235 2192.06797009
0.00800000 1659436.77476410 2688.28768862
0.00900000 1658054.93542365 2735.79076040
0.01000000 1656511.40629950 3279.89272610
0.01100000 1654807.45394493 2978.65354679
0.01200000 1652942.96615744 3867.88671039
0.01300000 1650919.14446027 4507.00946316
0.01400000 1648735.95495330 5193.51848834
0.01500000 1646394.86968480 3951.34786319
0.01600000 1643895.25522428 5449.51301468
0.01700000 1641239.40554086 6647.01989062
0.01800000 1638427.18802757 4669.51769600
0.01900000 1635459.37091739 6378.29183438
0.02000000 1632337.11438215 6170.23457148
0.02100000 1629062.29310338 8063.85871646
0.02200000 1625633.67435452 7851.81100386
0.02300000 1622054.39317025 10510.91294618
0.02400000 1618323.89600613 7282.45786409
0.02500000 1614444.82787452 6925.96862790
0.02600000 1610417.08969651 6522.18951158
0.02700000 1606242.94574235 8770.08688543
0.02800000 1601922.11587957 6968.36152364
0.02900000 1597457.23588860 7907.41368071
0.03000000 1592849.60939489 8147.42612655
0.03100000 1588099.61038621 9147.45417673
0.03200000 1583208.61498706 11755.32450771
0.03300000 1578180.35104219 12073.08024205
0.03400000 1573013.27330128 9084.15207246
0.03500000 1567710.27060956 11851.89019311
0.03600000 1562272.76750543 9537.67568639
0.03700000 1556702.52827431 8873.20482153
0.03800000 1551000.92197302 18146.71162691
0.03900000 1545170.38042690 10198.12498309
0.04000000 1539210.43528802 9466.14461567
0.04100000 1533125.13635399 13522.16432962
0.04200000 1526915.43558263 9848.60501641
0.04300000 1520581.98403290 15053.76234069
0.04400000 1514128.69709535 12264.44301606
0.04500000 1507556.75181864 10402.14207088
0.04600000 1500865.98666702 10581.10569788
0.04700000 1494060.82306261 12908.68611162
0.04800000 1487141.51333111 12023.53969471
0.04900000 1480112.16719227 19981.51518719
0.05000000 1472972.01330068 12395.06006912
0.05100000 1465725.84532821 19435.52561444
0.05200000 1458371.83102213 15072.27357600
0.05300000 1450916.18108547 15278.14809906
0.05400000 1443358.55718097 11907.70865205
0.05500000 1435701.73295145 14471.87414325
0.05600000 1427946.82330353 15871.62968166
0.05700000 1420098.58974802 14825.82996902
0.05800000 1412156.41851562 13747.34337615
0.05900000 1404122.62926796 15164.52510437
0.06000000 1396001.24418599 19160.11797159
0.06100000 1387793.27099082 14197.12582569
0.06200000 1379501.08772108 16947.17165482
0.06300000 1371127.92429428 14479.11155752
0.06400000 1362672.35861088 14614.66172958
0.06500000 1354140.76878936 21449.59078099
0.06600000 1345534.05264265 13522.61786176
0.06700000 1336853.37011219 16363.08601595
0.06800000 1328102.33810345 19244.20377992
0.06900000 1319283.28283308 26319.70272478
0.07000000 1310397.26311475 20933.59725855
0.07100000 1301447.12774226 15461.19260175
0.07200000 1292435.28079831 15567.38368650
0.07300000 1283364.61912977 17094.41752778
0.07400000 1274237.03362177 17202.20076006
0.07500000 1265054.45875211 15863.78365633
0.07600000 1255818.02096001 15955.16870428
0.07700000 1246532.99199731 20418.21136630
0.07800000 1237199.40347620 16126.89498060
0.07900000 1227819.71545346 14733.83727651
0.08000000 1218397.66203994 19244.59197471
0.08100000 1208934.37435583 20817.85090314
0.08200000 1199431.46971968 23892.67599798
0.08300000 1189892.71681746 16491.91382909
0.08400000 1180319.38455316 19563.79471727
0.08500000 1170714.21179923 18122.65684942
0.08600000 1161078.91650091 15152.08057175
0.08700000 1151417.16895070 24317.93175015
0.08800000 1141728.54892143 24387.32295028
0.08900000 1132018.73031869 19866.92965024
0.09000000 1122286.90978774 22978.82555735
0.09100000 1112536.49523354 19958.90566218
0.09200000 1102769.01130673 24613.80548889
0.09300000 1092989.82757323 21575.62021018
0.09400000 1083195.29951914 26240.40736408
0.09500000 1073391.14026178 17002.51646091
0.09600000 1063579.11925062 24760.12306007
0.09700000 1053763.00769821 23235.47541211
0.09800000 1043942.84115281 17052.80711201
0.09900000 1034121.54622337 26370.10066868
0.10000000 1024299.43166053 21725.39196720
0.10100000 1014479.64996229 18625.84724931
0.10200000 1004664.67629640 18626.48397466
0.10300000 994855.73322539 21727.65023573
0.10400000 985055.78274726 17066.09223897
0.10500000 975267.71744879 23260.13615553
0.10600001 965488.65013254 17045.70292015
0.10700001 955726.01157352 20127.59075090
0.10800001 945978.59993844 23200.12625533
0.10900001 936249.97407199 23172.18794890
0.11000001 926540.27007320 16969.58584514
0.11100001 916852.14476874 20024.05178435
0.11200001 907187.27473475 19989.87253985
0.11300001 897547.27928708 18417.67103809
0.11400001 887934.44687954 16848.55692284
0.11500001 878350.43759491 16811.62816719
0.11600001 868796.14488853 24395.79689730
0.11700001 859274.47177269 19771.90652665
0.11800001 849784.69647300 19719.25481040
0.11900001 840329.60778693 16638.52701788
0.12000001 830910.20285505 19605.32715987
0.12100001 821531.16205606 24054.43355816
0.12200001 812190.20376978 20978.87395172
0.12300001 802891.12887350 16427.15327071
0.12400001 793633.36790518 14880.62634936
0.12500001 784418.50107831 20755.71451655
0.12600001 775250.50708101 14768.52285584
0.12700001 766128.11417358 17651.59258241
0.12800001 757053.49772051 19043.68163267
0.12900001 748027.83404422 16045.19779649
0.13000001 739052.73471600 20331.34169035
0.13100001 730127.99737633 21684.80254425
0.13200001 721256.30408917 17266.87673386
0.13300001 712438.60315650 21480.02489780
0.13400001 703674.83598327 17099.29932055
0.13500001 694967.88851438 19848.28383178
0.13600001 686317.53463987 15514.20860204
0.13700001 677725.24824039 16834.69596010
0.13800001 669190.41933612 20928.93135166
0.13900001 660716.61122665 20812.57423512
0.14000001 652302.96137436 17935.07076882
0.14100001 643951.58890277 16459.40338863
0.14200001 635662.14727666 19088.93518305
0.14300001 627436.74771334 14907.89782884
0.14400001 619272.55908013 16163.01455440
0.14500001 611175.71371287 14723.22363787
0.14600001 603143.58570575 21278.90670752
0.14700001 595178.75484847 15855.56277717
0.14800001 587278.20512742 19688.50275577
0.14900001 579446.35039190 13037.54349894
0.15000001 571681.87013860 19422.89245439
0.15100001 563985.82535315 15430.65290976
0.15200001 556359.92012254 15322.15292318
0.15300001 548803.30159805 19016.03529772
0.15400001 541314.88638036 17619.80038318
0.15500001 533898.56627282 14991.87244845
0.15600001 526550.96655897 19840.44135631
0.15700001 519277.45855029 13537.56398334
0.15800001 512072.00144608 17098.08493529
0.15900001 504940.88579358 16966.01456347
0.16000001 497878.90042884 12023.77601291
0.16100001 490891.91214589 15507.27623670
0.16200001 483976.59955921 17749.84262673
0.16300001 477133.53483275 15258.73116428
0.16400001 470363.90779522 11641.50726752
0.16500001 463666.16815269 12699.81694528
0.16600001 457041.91548361 13738.68062808
0.16700001 450490.23027752 17028.53150849
0.16800001 444011.85364912 16883.55153219
0.16900001 437607.51424067 13390.79056805
0.17000001 431275.11246164 15487.09001979
0.17100001 425016.33148180 14255.04843104
0.17200001 418830.55274124 15216.11469964
0.17300001 412717.51283471 11849.12035305
0.17400001 406678.44108722 13877.90245750
0.17500001 400710.77547688 13752.39446386
0.17600001 394814.80749085 10482.33363395
0.17700001 388993.73865634 10386.13331267
0.17800001 383243.16741546 10290.07953113
0.17900001 377564.63929180 12233.09489087
0.18000001 371958.88740860 12118.42112419
0.18100001 366425.12545360 13004.42831663
0.18200001 360960.48465852 12880.87550350
0.18300001 355567.65463290 17664.60191663
0.18400001 350245.24904953 10691.23673230
0.18500001 344993.61336870 10587.85449448
0.18600001 339812.07202276 10484.90197761
0.18700001 334699.50617082 16045.49508390
0.18800001 329654.66361336 12149.42320148
0.18900001 324682.07334670 9253.43952758
0.19000001 319773.61619333 10993.81744417
0.19100001 314935.79264438 10884.18150807
0.19200001 310163.82285750 11673.01602481
0.19300001 305460.72371983 9777.79822830
0.19400001 300822.25845300 8799.05147554
0.19500001 296250.56888021 12193.67399132
0.19600001 291743.09662292 8621.00891260
0.19700001 287302.58364631 11092.75327880
0.19800001 282925.21464050 9289.84986175
0.19900001 278612.13790009 10030.03743842
0.20000001 274360.97456625 9099.18215153
0.20100001 270174.02445368 9823.52799342
0.20200001 266048.08463847 8911.28101614
0.20300001 261984.15089540 8016.71539631
0.20400001 257981.48326364 9519.51718238
0.20500001 254038.57364629 9419.75075605
0.20600001 250154.99394180 11650.96939356
0.20700001 246331.06034759 11528.29416920
0.20800001 242564.87189115 7604.40909325
0.20900001 238859.09068303 9028.87405463
0.21000001 235207.27771697 14888.62138330
0.21100001 231613.67600244 9574.90981858
0.21200001 228074.78305129 8744.38759557
0.21300001 224591.28571832 9372.19479610
0.21400001 221162.47944529 8558.98835917
0.21500001 217788.80828995 7761.99349442
0.21600001 214466.46832257 10471.32581092
0.21700001 211197.54234008 8978.00794935
0.21800001 207980.45049236 9565.02137038
0.21900001 204813.85813498 7434.74340183
0.22000001 201697.15200680 9360.76526724
0.22100001 198631.87133722 6614.44162828
0.22200001 195615.05166476 7197.65616634
0.22300001 192646.43969702 9062.08895185
0.22400001 189724.78790345 8324.17546288
0.22500001 186852.52177932 8234.59102421
0.22600001 184024.54354094 11278.86480698
0.22700001 181243.41626087 6818.37764217
0.22800001 178506.60159827 8584.38287682
0.22900001 175813.71859575 8491.80300976
0.23000001 173165.04158445 6000.16897466
0.23100001 170560.41864650 6529.05313456
0.23200001 167996.42729898 9394.36065885
0.23300001 165475.21636041 9293.08859031
0.23400001 162994.06137785 6320.09502884
0.23500001 160552.98160015 7957.00614444
0.23600001 158152.13348066 7309.00119450
0.23700001 155790.40403756 10011.09183696
0.23800001 153466.44738706 6602.12687886
0.23900001 151180.51063250 7075.24823226
0.24000001 148931.12194275 5922.24634418
0.24100001 146719.26915791 6923.68263906
0.24200001 144543.24704611 5268.60160405
0.24300001 142401.61762929 8860.22906801
0.24400001 140294.94219015 5671.42330632
0.24500001 138221.57311103 6630.48917579
0.24600001 136181.97715475 5550.09674149
0.24700001 134175.51968886 4991.32956854
0.24800001 132201.10497738 6419.02495584
0.24900001 130257.03887006 5861.56702645
0.25000001 128345.37302900 5798.64422777
0.25100001 126463.18322829 6214.40111783
0.25200001 124612.69863806 6620.67299186
0.25300001 122790.10933426 5146.13372566
0.25400001 120997.32593228 6942.22190381
0.25500001 119231.12461545 6409.86556259
0.25600001 117494.07993051 5435.27639474
0.25700001 115783.27634772 4480.81300666
0.25800001 114099.32768881 5319.31090853
0.25900001 112442.37887793 4823.77828210
0.26000001 110810.41574127 4338.22798154
0.26100001 109203.09949592 6437.52301988
0.26200001 107622.00769214 6793.10144696
0.26300001 106063.58522050 4620.12999082
0.26400001 104529.90481842 4570.57030446
0.26500001 103019.51555769 4110.47886526
0.26600001 101531.59320495 6506.14480044
0.26700001 100066.56076504 4022.67593311
0.26800001 98623.81799605  4377.41836890
0.26900001 97201.79149408  3936.67274180
0.27000001 95801.74252204  4283.77511959
0.27100001 94422.14091654  5393.39294438
0.27200001 93063.53028685  4573.14209471
0.27300001 91724.91233964  6031.83052091
0.27400001 90404.49917712  4847.94149780
0.27500001 89105.62015626  3688.97284905
0.27600001 87823.13663375  4013.95664981
0.27700001 86561.48365665  4692.49825111
0.27800001 85316.78052583  3927.55817739
0.27900001 84090.69450526  5650.89493820
0.28000001 82881.61164054  3842.80610559
0.28100001 81690.05961725  3801.03865389
0.28200001 80515.83796179  3759.68723157
0.28300001 79358.19112106  4056.79092212
0.28400001 78216.29584593  4681.24552795
0.28500001 77091.24546878  3637.93604586
0.28600001 75981.69444316  5560.72057102
0.28700001 74888.50199821  3882.22012734
0.28800001 73808.91810336  3519.57842635
0.28900001 72746.31514989  3480.91134469
0.29000001 71697.54671813  4068.47748110
0.29100001 70664.11946470  3095.08857906
0.29200001 69644.54407460  3979.14121406
0.29300001 68639.52560334  3935.10418911
0.29400001 67647.65800564  3592.09081014
0.29500001 66670.80233514  4736.29402209
0.29600001 65706.27344241  3512.65754451
0.29700001 64755.71478496  2894.58058791
0.29800001 63818.44726216  3148.48324472
0.29900001 62894.52408802  2830.25371794
0.30000001 61982.31801755  3638.05232826
0.30100001 61084.02559518  4704.08103378
0.30200001 60197.10829245  3830.34218198
0.30300001 59323.46181737  2975.66498563
0.30400001 58461.75098522  2674.62523420
0.30500001 57612.39237990  3702.17250960
0.30600001 56773.98484492  3137.33055106
0.30700001 55948.18592708  3101.76757464
0.30800001 55133.71942333  3577.62722276
0.30900001 54331.08466177  3284.31422330
0.31000001 53539.84988213  2497.63411525
0.31100001 52759.40396122  2962.96826674
0.31200001 51991.09130044  3173.27640776
0.31300001 51232.99909401  2654.38180874
0.31400001 50487.38460873  2862.63484285
0.31500001 49751.17525167  3065.66756416
0.31600002 49027.14569342  2331.24088810
0.31700002 48312.88789945  2534.97734811
0.31800002 47609.43182038  2505.92256252
0.31900002 46917.15936917  3152.83325889
0.32000002 46235.37115112  2448.85654897
0.32100002 45563.46162939  3301.07295135
0.32200002 44903.06821976  3045.77526156
0.32300002 44251.22203203  2150.60949259
0.32400002 43611.03160918  2338.64168078
0.32500002 42980.57214115  2522.10009267
0.32600002 42360.37349891  2701.10934406
0.32700002 41750.33399273  2670.35148862
0.32800002 41151.15975924  2436.97179634
0.32900002 40559.97452214  2007.71883392
0.33000002 39980.17000361  2977.52330202
0.33100002 39409.23172533  2551.35378272
0.33200002 38849.53419723  1940.53432505
0.33300002 38298.78583603  2494.40003962
0.33400002 37758.40350636  2087.09585265
0.33500002 37227.26612140  2814.38145206
0.33600002 36705.48267589  2226.55468456
0.33700002 36193.33421816  2018.50234494
0.33800002 35691.65243772  2177.90473489
0.33900002 35198.48598007  1974.63515700
0.34000002 34715.07002432  2130.81109900
0.34100002 34241.19528556  2810.51744214
0.34200002 33777.40547262  2085.41711264
0.34300002 33322.23583589  2407.19843079
0.34400002 32877.18088407  1701.39419133
0.34500002 32440.87630428  1852.04971592
0.34600002 32014.52556561  1832.99174807
0.34700002 31596.26344793  1814.25753311
0.34800002 31187.95670144  2449.03441597
0.34900002 30788.47223293  2101.31332942
0.35000002 30398.45016046  1760.52632443
0.35100002 30018.08562572  1743.45049572
0.35200002 29645.21230730  1569.71406602
0.35300002 29282.55147487  1710.39391266
0.35400002 28928.32247308  2156.60654251
0.35500002 28583.26386916  1526.34636291
0.35600002 28246.57245783  1966.38523479
0.35700002 27918.73350390  1949.00687822
0.35800002 27599.99413797  1486.25975473
0.35900002 27290.45694117  1621.05321909
0.36000002 26989.20648472  1461.46560037
0.36100002 26695.97267056  1884.46880008
0.36200002 26412.82970327  2013.45010365
0.36300002 26136.76729719  1712.48107443
0.36400002 25869.71078764  1982.91342580
0.36500002 25610.23635472  1687.20245097
0.36600002 25360.10105711  1954.50308105
0.36700002 25117.57158015  1663.78802028
0.36800002 24884.08720297  2203.73486708
0.36900002 24658.53285624  1779.11322985
0.37000002 24440.44948126  1360.11107806
0.37100002 24230.35963373  1892.87578425
0.37200002 24028.98340373  1613.30602215
0.37300002 23835.03106014  1470.85983640
0.37400002 23648.77640325  1330.24373570
0.37500002 23470.42745717  1720.85182268
0.37600002 23300.00279063  1581.13826427
0.37700002 23136.86773065  1705.41860122
0.37800002 22981.28646909  1567.78343719
0.37900002 22833.86717299  1561.83658862
0.38000002 22693.00486031  1426.59581813
0.38100002 22558.81285332  1421.88204150
0.38200002 22433.00107685  1804.28636209
0.38300002 22313.50473006  1799.36110667
0.38400002 22201.44050750  1410.34657505
0.38500002 22095.64260762  1791.07287462
0.38600002 21997.71082422  1404.66389123
0.38700002 21905.39375288  1657.36216986
0.38800002 21819.96937413  1527.83432796
0.38900002 21741.04594831  1653.40662270
0.39000002 21669.19381826  1779.25758871
0.39100002 21602.74642608  1397.26570504
0.39200002 21543.20131584  1396.96895551
0.39300002 21489.23281003  1905.02057886
0.39400002 21442.52538056  1778.65756459
0.39500002 21400.37868461  1398.30080950
0.39600002 21364.33445063  1653.92002985
0.39700002 21333.47249578  1400.96920517
0.39800002 21309.33721857  1785.50945014
0.39900002 21289.62766050  1532.85326418
0.40000002 21275.65844840  1663.65019119
0.40100002 21266.63814627  1538.85400917
0.40200002 21263.21754920  1413.89771792
0.40300002 21264.51047081  1804.08115382
0.40400002 21270.70775152  1550.63466856
0.40500002 21281.22385706  1555.23191316
0.40600002 21297.42038609  1300.20757618
0.40700002 21317.49835058  1435.09405696
0.40800002 21341.93753415  1702.12630868
0.40900002 21370.29295031  1971.40961807
0.41000002 21403.51289935  1583.43195932
0.41100002 21440.48559627  1590.02648716
0.41200002 21480.59250205  1729.93959912
0.41300002 21525.78712564  1737.77687699
0.41400002 21573.88130847  1611.56901010
0.41500002 21625.60880943  2159.10088584
0.41600002 21679.72854894  1491.67379349
0.41700002 21738.67267857  1635.61780984
0.41800002 21801.04467588  1644.23486737
0.41900002 21864.70817384  1652.97201627
0.42000002 21931.85504135  1523.49638264
0.42100002 22002.44112309  1671.30550690
0.42200002 22075.46375748  1540.75706596
0.42300002 22150.59042777  1831.41090335
0.42400002 22228.03868619  1700.44504007
0.42500002 22308.37364307  1853.15668634
0.42600002 22389.60564970  1864.27060276
0.42700002 22474.12942339  2019.97484829
0.42800002 22559.86382372  1887.24549760
0.42900002 22648.23241464  1752.97327196
0.43000002 22737.98854607  1764.01323500
0.43100002 22827.86878639  1923.01975769
0.43200002 22920.54090608  1637.55812263
0.43300002 23013.68817368  1947.64852243
0.43400002 23108.62592106  1507.83791280
0.43500002 23203.95848833  2124.55453987
0.43600002 23301.04588468  2749.29053422
0.43700002 23398.27829150  1690.99365226
0.43800002 23495.66899723  2475.50380286
0.43900002 23594.80945326  1868.70899726
0.44000002 23693.65761977  2037.53618357
0.44100002 23793.26482158  1735.24288567
0.44200002 23892.89001567  1746.45087846
0.44300002 23992.94340749  1597.93010667
0.44400002 24092.71845617  2251.46464643
0.44500002 24191.96766694  1618.44271362
0.44600002 24291.03564273  1791.58541874
0.44700002 24390.76010460  1639.05915671
0.44800002 24489.02047062  2309.06984961
0.44900002 24587.36831329  2323.50641572
0.45000002 24685.44463367  3172.94377636
0.45100002 24781.93669268  2352.30154235
0.45200002 24878.16717709  2366.66015572
0.45300002 24973.07401013  2210.86634690
0.45400002 25067.32374981  1881.92941971
0.45500002 25160.69468186  1893.09075758
0.45600002 25252.47649917  2077.26881527
0.45700002 25343.39832398  2785.74647580
0.45800002 25432.61248000  1751.03545224
0.45900002 25520.35814332  2465.26671348
0.46000002 25607.23586060  1947.81448805
0.46100002 25691.57906472  2314.55446764
0.46200002 25775.01077943  2506.10441686
0.46300002 25856.60445961  1979.58173125
0.46400002 25935.83110417  1809.02430525
0.46500002 26014.40904652  2000.24800639
0.46600002 26089.88642991  1827.59663104
0.46700002 26163.50438808  2387.68152362
0.46800002 26235.77228373  2399.39266793
0.46900002 26305.17131008  2039.96613178
0.47000002 26372.53391264  1863.21960924
0.47100002 26437.97592909  1871.80878450
0.47200002 26501.16189353  2444.33478310
0.47300002 26561.93815318  2266.26467064
0.47400002 26619.72201550  2655.31739690
0.47500002 26675.57837991  2095.10002526
0.47600002 26729.62780774  2486.25644838
0.47700002 26780.00350962  2496.16424545
