# SAXS profile: number of points = 501, q_min = 0, q_max = 0.5, delta_q = 0.001
#    q    intensity    error
0.00000000 1664650.74656090 299.63713438
0.00100000 1664569.10039035 549.30781617
0.00200000 1664324.10068004 823.84045592
0.00300000 1663915.97089299 1198.01954172
0.00400000 1663344.57824417 1372.25932919
0.00500000 1662610.44559734 1795.61935232
0.00600000 1661713.44470440 2093.75902557
0.00700000 1660654.16489572 2192.06358877
0.00800000 1659432.44745943 3360.35084798
0.00900000 1658049.47106954 2984.48917551
0.01000000 1656504.66199277 3553.20265340
0.01100000 1654799.30174661 3872.23053468
0.01200000 1652933.26698145 4512.50801670
0.01300000 1650907.72452537 5200.35956162
0.01400000 1648722.75900401 4451.55164665
0.01500000 1646379.73367618 5531.83615148
0.01600000 1643878.06925819 5030.26711680
0.01700000 1641219.99839460 4431.29419445
0.01800000 1638405.47263845 5603.34696856
0.01900000 1635435.20576191 6378.19759027
0.02000000 1632310.38416658 5655.95573699
0.02100000 1629032.87905278 5913.38961907
0.02200000 1625601.42950153 6729.99022390
0.02300000 1622019.24244427 5839.26953859
0.02400000 1618285.66006197 6675.42865214
0.02500000 1614403.42118468 6925.79099319
0.02600000 1610372.36474358 6522.00837552
0.02700000 1606194.83056662 12817.43533497
0.02800000 1601870.52653666 7664.95082099
0.02900000 1597401.98215032 10782.46387458
0.03000000 1592790.57373149 10369.06711161
0.03100000 1588036.74566332 8384.83440292
0.03200000 1583141.72911203 8620.20711205
0.03300000 1578109.50460258 10462.86649786
0.03400000 1572938.20647728 8257.92596503
0.03500000 1567630.95391562 14390.85282149
0.03600000 1562189.07272321 9537.16472972
0.03700000 1556614.30876542 8872.70197030
0.03800000 1550908.17408716 12701.93853361
0.03900000 1545072.85595769 11124.52507807
0.04000000 1539108.25852672 9465.51622856
0.04100000 1533018.09843083 11589.61736151
0.04200000 1526803.41317753 11817.45896624
0.04300000 1520465.00340333 11038.57643710
0.04400000 1514006.57874287 16351.27180981
0.04500000 1507429.36178599 10401.26307962
0.04600000 1500733.40548098 15870.25650072
0.04700000 1493922.86224258 10756.24510840
0.04800000 1486998.31760031 12022.38195718
0.04900000 1479963.30339285 17759.56046738
0.05000000 1472817.58809470 12393.76058095
0.05100000 1465565.73447101 17147.11989209
0.05200000 1458206.18486586 18548.38353587
0.05300000 1450744.64024868 12926.13534720
0.05400000 1443181.24877770 14287.49502918
0.05500000 1435518.54102635 14470.02756856
0.05600000 1427757.67192184 13428.06153103
0.05700000 1419903.55080655 16059.10990924
0.05800000 1411955.35917639 16244.54716582
0.05900000 1403915.44129215 16425.81143030
0.06000000 1395787.93884162 21711.48240302
0.06100000 1387573.76992411 16775.76766234
0.06200000 1379275.43469927 15640.98416060
0.06300000 1370896.03079548 19740.90376645
0.06400000 1362434.28825728 14612.10842492
0.06500000 1353896.44580640 17424.64807261
0.06600000 1345283.26941385 16224.11698823
0.06700000 1336596.27139513 16359.93912750
0.06800000 1327838.88670170 19240.38636893
0.06900000 1319013.54670405 16619.57146658
0.07000000 1310121.02875831 13952.78960966
0.07100000 1301164.44796065 18268.34970502
0.07200000 1292146.17190919 19808.60174334
0.07300000 1283069.05464484 15666.27389127
0.07400000 1273935.07593863 15764.94730355
0.07500000 1264746.09045120 21627.15916043
0.07600000 1255503.27371555 29002.12698247
0.07700000 1246211.67275342 18954.88043135
0.07800000 1236871.77232546 17588.31742729
0.07900000 1227485.50581824 14729.82676070
0.08000000 1218057.23468047 17759.27531475
0.08100000 1208587.51559990 20811.87799509
0.08200000 1199078.29182729 19407.08306391
0.08300000 1189533.08207861 19484.55279890
0.08400000 1179953.55460489 16548.84938011
0.08500000 1170342.06154557 16607.15463296
0.08600000 1160700.42206184 24235.42595054
0.08700000 1151032.49155382 18232.35552236
0.08800000 1141337.80388594 18284.23247695
0.08900000 1131621.74410854 18332.27311562
0.09000000 1121883.78321964 19907.82866841
0.09100000 1112127.20250210 21486.29856179
0.09200000 1102353.72812985 16915.61875296
0.09300000 1092568.74554997 15405.22003618
0.09400000 1082768.16544005 21601.22591573
0.09500000 1072958.36283370 20085.78149633
0.09600000 1063140.27500223 18562.43007412
0.09700000 1053318.52696098 18580.53968911
0.09800000 1043492.59383485 20144.62547114
0.09900000 1033665.78885729 17055.48631814
0.10000000 1023838.31503626 18613.38144269
0.10100000 1014013.01383272 18617.27980957
0.10200000 1004192.64357382 18617.73248757
0.10300000 994378.17260889 17063.53024465
0.10400000 984573.19544601 20159.13712515
0.10500000 974779.88394012 15499.00088387
0.10600001 964995.85342393 24781.09468196
0.10700001 955228.24416428 27854.45691060
0.10800001 945475.97119427 20096.09271349
0.10900001 935742.42625830 18527.70091193
0.11000001 926027.97698429 15418.36654252
0.11100001 916335.39297840 15394.43532671
0.11200001 906665.96305419 18441.58655670
0.11300001 897021.58114230 18406.88371165
0.11400001 887404.33221574 18369.27054177
0.11500001 877816.17697762 24438.40351781
0.11600001 868257.89854151 19809.30488807
0.11700001 858732.13702636 18239.47144943
0.11800001 849238.48417052 21222.47071896
0.11900001 839779.55520389 16627.63597623
0.12000001 830356.64793936 15070.97387002
0.12100001 820974.08286403 16526.20906657
0.12200001 811629.83238708 17969.48533562
0.12300001 802327.35960542 17907.94751012
0.12400001 793066.37023879 17843.99417114
0.12500001 783848.45343163 22222.10470190
0.12600001 774677.69492069 14757.61078367
0.12700001 765552.45069567 16168.46852065
0.12800001 756474.91962627 17565.34846156
0.12900001 747446.80510741 14575.21338655
0.13000001 738469.28189566 18864.19869519
0.13100001 729542.49732601 14444.94212796
0.13200001 720668.53612605 20128.27316285
0.13300001 711849.01188569 21462.24872015
0.13400001 703083.24160978 19932.41083936
0.13500001 694374.45959744 21247.85946548
0.13600001 685722.44453539 15500.75658959
0.13700001 677128.79997372 15418.22350242
0.13800001 668592.59619312 16728.18754558
0.13900001 660117.94558641 16634.97301325
0.14000001 651702.94665103 15161.86976888
0.14100001 643350.75239096 17814.38317388
0.14200001 635060.56921622 17708.66480783
0.14300001 626834.60867910 17601.51664193
0.14400001 618670.09440372 13456.07518800
0.14500001 610572.78156370 17383.00791111
0.14600001 602540.60421620 26572.04189945
0.14700001 594575.81600231 14519.54211176
0.14800001 586675.33670646 18357.07215161
0.14900001 578843.78777775 13023.98583948
0.15000001 571079.67925949 15521.94641464
0.15100001 563384.28990970 12845.16241604
0.15200001 555759.23269546 16581.07748988
0.15300001 548203.39962792 18995.24869347
0.15400001 540716.09534063 15085.97977193
0.15500001 533300.83363124 13727.16410549
0.15600001 525954.55873275 13624.85348700
0.15700001 518682.50428068 13522.05352480
0.15800001 511478.82473201 13418.64760019
0.15900001 504349.28222745 13314.82167927
0.16000001 497289.45697740 16813.35733404
0.16100001 490304.45297857 14297.27852375
0.16200001 483391.36495243 18910.27108962
0.16300001 476550.64656995 17584.71968857
0.16400001 469783.46246513 12789.85536942
0.16500001 463088.44514309 12683.99311130
0.16600001 456467.11412840 14864.85227341
0.16700001 449918.36362127 14739.32628815
0.16800001 443443.05844819 12365.41026868
0.16900001 437041.94328761 11144.57008006
0.17000001 430712.88761109 12152.56469779
0.17100001 424457.76378932 14236.31406975
0.17200001 418275.54191369 14110.52607280
0.17300001 412166.37256515 10757.54283197
0.17400001 406131.28028248 14925.32525525
0.17500001 400167.70229324 12677.31340737
0.17600001 394275.74783809 13608.42807935
0.17700001 388459.27906064 13483.42221303
0.17800001 382713.21776315 14386.19053521
0.17900001 377039.14863472 11198.06324338
0.18000001 371438.27487894 10084.54963931
0.18100001 365909.37927029 12986.12448372
0.18200001 360449.83980423 10883.78342702
0.18300001 355061.99872757 12739.62511616
0.18400001 349745.05732966 12617.05353921
0.18500001 344498.70788753 12494.96872537
0.18600001 339322.84045242 9518.00612435
0.18700001 334215.75504908 10367.37321143
0.18800001 329176.63423885 10265.37382374
0.18900001 324209.84694341 12011.97539679
0.19000001 319307.51411117 9148.16071152
0.19100001 314475.80697975 11773.97476964
0.19200001 309709.96504765 11655.93508533
0.19300001 305013.17717746 9763.47226280
0.19400001 300381.28674204 12300.61427334
0.19500001 295816.12951147 13915.19138978
0.19600001 291315.32270879 11190.87865070
0.19700001 286881.63359628 10224.46190455
0.19800001 282511.06432575 12649.43350298
0.19900001 278204.98860318 13353.84008405
0.20000001 273960.66232405 9085.90579539
0.20100001 269781.05844413 9809.23974864
0.20200001 265662.23847062 8898.35709814
0.20300001 261605.65507305 11207.18679303
0.20400001 257610.43477497 11882.28186562
0.20500001 253674.97674359 8622.41286707
0.20600001 249799.01066581 9307.51157736
0.20700001 245982.71644613 9977.05945066
0.20800001 242224.35537786 7593.73390005
0.20900001 238526.18289375 12773.07769776
0.21000001 234882.36705336 8177.42999553
0.21100001 231296.75810401 8826.28470650
0.21200001 227765.78792315 8004.82899498
0.21300001 224290.31824982 7199.71955619
0.21400001 220869.69384384 9259.96235218
0.21500001 217504.22040918 8456.56448931
0.21600001 214190.16362232 7669.07917108
0.21700001 210929.58140522 8276.87716567
0.21800001 207720.74685714 12964.89102808
0.21900001 204562.64503566 8775.73788696
0.22000001 201454.40985427 8013.85680292
0.22100001 198397.55725463 7267.30286586
0.22200001 195389.31751969 9150.08217210
0.22300001 192429.07005502 6465.61705958
0.22400001 189516.10437168 8315.01947249
0.22500001 186652.55995745 6960.27428995
0.22600001 183833.25114421 6259.52249746
0.22700001 181060.78891872 8669.19098339
0.22800001 178332.73253544 6125.72965228
0.22900001 175648.52363345 7271.84922232
0.23000001 173008.71083511 7193.70253673
0.23100001 170412.79393940 8302.51171338
0.23200001 167857.57434548 5866.62250083
0.23300001 165345.16007448 6383.97693240
0.23400001 162872.84874279 8611.90228458
0.23500001 160440.53723658 9087.35245888
0.23600001 158048.46629136 6742.34789088
0.23700001 155695.52472623 6114.16354519
0.23800001 153380.47266411 7698.16628713
0.23900001 151103.38839683 5983.69446354
0.24000001 148862.73192125 7533.94321889
0.24100001 146659.60158045 6388.49254703
0.24200001 144492.31688930 5793.41971972
0.24300001 142359.50227306 5731.39383262
0.24400001 140261.49189655 5670.07107813
0.24500001 138196.80224405 6629.30091724
0.24600001 136165.91164067 7567.42089741
0.24700001 134168.06547779 6488.36795344
0.24800001 132202.28106713 7900.40869031
0.24900001 130266.76211015 5862.00457227
0.25000001 128363.60200119 5799.46781278
0.25100001 126489.98277351 5737.58589005
0.25200001 124647.88985310 5203.42640809
0.25300001 122833.67382821 6083.95215255
0.25400001 121049.16645444 5556.15700313
0.25500001 119291.33692476 5496.94506556
0.25600001 117562.55870193 5891.64790810
0.25700001 115859.91998354 6725.66867326
0.25800001 114184.21747137 5766.87417625
0.25900001 112535.26138031 4827.76294164
0.26000001 110911.27527516 4342.17663247
0.26100001 109311.97983270 6443.94151604
0.26200001 107738.82141894 5100.35604731
0.26300001 106188.15803558 7148.58713721
0.26400001 104662.29818004 4992.39185942
0.26500001 103159.51972488 5350.88454133
0.26600001 101679.19482038 6515.60311241
0.26700001 100221.67656676 5640.47622409
0.26800001 98786.34545799  5580.44091899
0.26900001 97371.65287510  4337.90734086
0.27000001 95978.87051305  4291.69539808
0.27100001 94606.41323651  3859.94184271
0.27200001 93255.01752280  4582.55177793
0.27300001 91923.29642408  4533.65719419
0.27400001 90609.80178711  4858.95085078
0.27500001 89317.60839699  5546.62374395
0.27600001 88041.89979917  4389.76933174
0.27700001 86786.80644731  4342.81200015
0.27800001 85548.61800607  5012.29376619
0.27900001 84328.96002039  4604.36143503
0.28000001 83126.10452609  4554.89511308
0.28100001 81940.81007665  3812.70607332
0.28200001 80772.62254629  4800.31718512
0.28300001 79620.96084521  4070.22371105
0.28400001 78485.02389135  5703.89938127
0.28500001 77365.65969612  3318.98695806
0.28600001 76261.81732967  3939.68566972
0.28700001 75174.02258184  4221.77330802
0.28800001 74099.79684072  3533.44897960
0.28900001 73042.49017489  3495.08332030
0.29000001 71998.86487791  3457.02566075
0.29100001 70970.52617740  3108.50919371
0.29200001 69955.82198908  3996.92607854
0.29300001 68955.62447759  3649.13182009
0.29400001 67968.39686185  3609.12204421
0.29500001 66996.15093124  3867.01801480
0.29600001 66036.01236497  3530.28538815
0.29700001 65089.65389156  3200.45843335
0.29800001 64156.50144609  4316.12883911
0.29900001 63236.61696043  3983.90705710
0.30000001 62328.30418963  3095.53537412
0.30100001 61433.72080463  3061.24245261
0.30200001 60550.44812755  3027.21979745
0.30300001 59680.29469283  3265.70588019
0.30400001 58821.82507337  4036.64793676
0.30500001 57975.79334218  2927.19794443
0.30600001 57140.42658815  4210.10683033
0.30700001 56317.61054463  3122.24847641
0.30800001 55505.95530968  3087.24138049
0.30900001 54706.00171406  2798.21212015
0.31000001 53917.26541436  3521.33677093
0.31100001 53139.15432852  3232.98630241
0.31200001 52373.15677958  2704.81180994
0.31300001 51617.16438814  2431.16855779
0.31400001 50873.53726842  2403.77474974
0.31500001 50139.17559918  2614.25673952
0.31600002 49416.88910522  2819.72782585
0.31700002 48704.17506543  3717.10281699
0.31800002 48002.13184747  3445.35317648
0.31900002 47311.02534546  4087.67278340
0.32000002 46630.45706371  3143.35925950
0.32100002 45959.59381930  2885.80303256
0.32200002 45300.08101107  2633.74683469
0.32300002 44648.91578300  2169.93740980
0.32400002 44009.24002710  2574.54066349
0.32500002 43379.24354981  2333.36962103
0.32600002 42759.44937848  2726.55641873
0.32700002 42149.54887989  2695.88527401
0.32800002 41550.39647971  2665.66581238
0.32900002 40959.12347070  2027.47670781
0.33000002 40379.10361497  2004.82258942
0.33100002 39807.81260527  2180.67207778
0.33200002 39247.57723990  2548.54154876
0.33300002 38696.16155137  2326.41334264
0.33400002 38155.00364005  2109.01792608
0.33500002 37623.10297455  1896.20447971
0.33600002 37100.27373674  1875.41892621
0.33700002 36586.90663851  1854.95625442
0.33800002 36083.91166706  2018.35369468
0.33900002 35589.34319579  2178.06790673
0.34000002 35104.36159945  2334.26463510
0.34100002 34628.82749868  1954.10482829
0.34200002 34163.24432305  2285.00870476
0.34300002 33706.13051432  1913.16005860
0.34400002 33259.01315611  2753.84641975
0.34500002 32820.57391324  2214.40422680
0.34600002 32391.89784381  1685.99836262
0.34700002 31971.20009875  1835.78639661
0.34800002 31560.38607914  2478.27943424
0.34900002 31158.29063969  2290.13447048
0.35000002 30765.53155279  2105.74690686
0.35100002 30382.22268059  1764.59957686
0.35200002 30006.40653798  1906.60716173
0.35300002 29640.69519018  1888.70518697
0.35400002 29283.21821760  1871.19773273
0.35500002 28934.89187767  1854.14795934
0.35600002 28594.78092523  1531.25059107
0.35700002 28263.38849846  1669.51843768
0.35800002 27941.02504734  1805.54912408
0.35900002 27627.71511383  1641.08635549
0.36000002 27322.61800454  1627.47181853
0.36100002 27025.49122260  2054.47794006
0.36200002 26738.31321731  1892.67159074
0.36300002 26458.08912453  2455.83994886
0.36400002 26186.83228297  1577.10204894
0.36500002 25923.09183101  1707.81337072
0.36600002 25668.49758542  1413.05085901
0.36700002 25421.45431295  1824.24364791
0.36800002 25183.43332640  1812.07403084
0.36900002 24953.21147284  1523.39363258
0.37000002 24730.34437695  1513.86810275
0.37100002 24515.49983747  1641.55794688
0.37200002 24309.22373273  1496.11124550
0.37300002 24110.28030887  1352.58678940
0.37400002 23918.96131999  1479.98580178
0.37500002 23735.53510981  1606.42109233
0.37600002 23559.91350860  1732.00712363
0.37700002 23391.48875784  1724.18671802
0.37800002 23230.56755698  2245.11830790
0.37900002 23077.81665100  1578.52273371
0.38000002 22931.46238782  1965.79970632
0.38100002 22791.77346477  2089.54989024
0.38200002 22660.39784631  1301.83991794
0.38300002 22535.22184835  1427.83172395
0.38400002 22417.45915824  1553.52999326
0.38500002 22305.92565448  1420.66447224
0.38600002 22202.20547105  1288.83808865
0.38700002 22104.11886341  1801.04369032
0.38800002 22012.78415965  2055.11362651
0.38900002 21927.93353511  1667.61942435
0.39000002 21850.15538667  1665.96517638
0.39100002 21777.63705571  1536.63014345
0.39200002 21712.07667583  1663.90507488
0.39300002 21652.07575270  1535.56528513
0.39400002 21599.26158924  1407.73194077
0.39500002 21550.97438034  1920.19190826
0.39600002 21508.73385204  1280.84516157
0.39700002 21471.66318943  1538.23002377
0.39800002 21441.33188805  1539.91652916
0.39900002 21415.36883588  1670.39884834
0.40000002 21395.20632780  1415.61389375
0.40100002 21379.84827632  1547.04589457
0.40200002 21370.15327364  1421.00840926
0.40300002 21365.16526748  1683.14779952
0.40400002 21365.01528577  1427.71721412
0.40500002 21369.22413734  1561.66297395
0.40600002 21379.09807357  1827.27159893
0.40700002 21392.80353022  1963.85945712
0.40800002 21410.92037319  1444.91602985
0.40900002 21432.92521721  1449.93745964
0.41000002 21459.79622157  1587.59579970
0.41100002 21490.47676730  1726.54498529
0.41200002 21524.14610091  2000.13137120
0.41300002 21563.13562064  1606.88494259
0.41400002 21604.92538217  1613.88800252
0.41500002 21650.31817923  1621.17590208
0.41600002 21698.15580874  2171.55153623
0.41700002 21750.80934894  1636.53097296
0.41800002 21806.93037631  1644.67876691
0.41900002 21864.40033308  1790.69447213
0.42000002 21925.40267729  1938.42494255
0.42100002 21989.74542148  1391.95095114
0.42200002 22056.57898949  1539.43900352
0.42300002 22125.57907899  2251.49903377
0.42400002 22196.92618383  1839.57034465
0.42500002 22271.18692363  1707.75469423
0.42600002 22346.40125453  1717.54448181
0.42700002 22424.92289236  1871.58415328
0.42800002 22504.70026669  1737.81303694
0.42900002 22587.03504494  1456.86382943
0.43000002 22670.87147809  1905.37348367
0.43100002 22754.89864557  2064.32450295
0.43200002 22841.79596137  1631.93218979
0.43300002 22929.09885865  2239.02660965
0.43400002 23018.38178974  1802.33937955
0.43500002 23107.96757762  2266.89172679
0.43600002 23199.50073997  2129.01828380
0.43700002 23291.10137871  2754.40577957
0.43800002 23382.98714217  2155.67768679
0.43900002 23476.70979333  2479.14067166
0.44000002 23570.11781451  1715.07970405
0.44100002 23664.34606189  2510.31394921
0.44200002 23758.72304334  2052.39738736
0.44300002 23853.44616861  2065.23146715
0.44400002 23948.11077761  1918.24376419
0.44500002 24042.24427104  1769.26883975
0.44600002 24136.21843240  1942.00022710
0.44700002 24231.02585928  1953.99001789
0.44800002 24324.31799835  1965.89147379
0.44900002 24417.78542901  1977.84071348
0.45000002 24511.13073936  1989.81368772
0.45100002 24602.89026345  2335.30645448
0.45200002 24694.41956812  2013.58306701
0.45300002 24784.75483551  3038.11539172
0.45400002 24874.49710777  2716.29521290
0.45500002 24963.48684152  1878.25283897
0.45600002 25050.85743845  1888.95999467
0.45700002 25137.51930359  1899.64242380
0.45800002 25222.54346617  2431.20107993
0.45900002 25306.16626884  1920.73811084
0.46000002 25388.95376162  2282.34010657
0.46100002 25469.32847885  2647.53682086
0.46200002 25548.87244096  1951.80620263
0.46300002 25626.67771757  2140.34022441
0.46400002 25702.14423923  1971.99711022
0.46500002 25777.09945532  2162.18320479
0.46600002 25849.02522376  2716.08645412
0.46700002 25919.15937331  2183.43008909
0.46800002 25988.05828665  3108.04197810
0.46900002 26054.10157181  2571.53994702
0.47000002 26118.26691804  2767.88346783
0.47100002 26180.48852500  2965.72588068
0.47200002 26240.70985192  2234.13414268
0.47300002 26298.49058772  1869.82276941
0.47400002 26353.36299808  2816.51580392
0.47500002 26406.43809726  2639.58767731
0.47600002 26457.85669844  2271.67168380
0.47700002 26505.54934076  1900.44797781
