# SAXS profile: number of points = 501, q_min = 0, q_max = 0.5, delta_q = 0.001
#    q    intensity    error
0.00000000 1682732.95097188 328.13292544
0.00100000 1682650.84221364 605.75431758
0.00200000 1682404.45802642 832.79023309
0.00300000 1681994.01502596 1009.19644497
0.00400000 1681419.37689279 1765.49041282
0.00500000 1680681.08817389 1663.87434315
0.00600000 1679779.00829936 2469.27524273
0.00700000 1678713.71885187 2618.79351025
0.00800000 1677485.05527584 3170.44688833
0.00900000 1676094.24186537 3519.79805838
0.01000000 1674540.64595915 4697.08671473
0.01100000 1672825.60521394 3914.41208663
0.01200000 1670948.96562711 3584.18568841
0.01300000 1668911.92418695 4205.65823444
0.01400000 1666714.52737518 4125.11863812
0.01500000 1664358.13411554 5192.79760967
0.01600000 1661842.16640035 5932.77679927
0.01700000 1659168.97727997 5823.68337150
0.01800000 1656338.35889581 5192.62098879
0.01900000 1653351.13985756 6944.07510074
0.02000000 1650208.41486314 9356.68213553
0.02100000 1646912.12781985 5978.29129503
0.02200000 1643461.01729185 8504.91115088
0.02300000 1639858.16212072 6493.83861759
0.02400000 1636103.18104829 8589.54209217
0.02500000 1632198.62965264 7002.13244100
0.02600000 1628144.34792101 8572.18038388
0.02700000 1623942.64398782 9548.78318399
0.02800000 1619593.29475701 8454.27738634
0.02900000 1615098.91092542 9448.32906273
0.03000000 1610460.76590318 11981.82864907
0.03100000 1605679.34549915 11560.89181955
0.03200000 1600755.93861391 8716.11648720
0.03300000 1595694.31652313 8951.84552838
0.03400000 1590492.78300554 10855.11374487
0.03500000 1585154.41061775 8559.83421261
0.03600000 1579680.68123182 8767.22818600
0.03700000 1574073.22987358 12561.10495531
0.03800000 1568333.48651282 14679.60211313
0.03900000 1562463.81642665 13124.69666579
0.04000000 1556463.92453783 13401.15501127
0.04100000 1550337.67901081 20510.96844434
0.04200000 1544086.13780163 14939.03407630
0.04300000 1537710.04879279 12178.66415175
0.04400000 1531213.13464461 11369.25805275
0.04500000 1524596.62950482 14727.60412533
0.04600000 1517860.53685873 12841.10073877
0.04700000 1511009.09392383 11967.19258045
0.04800000 1504042.65409518 12160.18542415
0.04900000 1496965.36118663 21331.75738985
0.05000000 1489776.47066367 14815.82769067
0.05100000 1482480.65969350 11563.34968428
0.05200000 1475076.16973536 15244.91292465
0.05300000 1467569.12265312 13076.04149242
0.05400000 1459959.47675115 15658.06611835
0.05500000 1452249.65130606 19518.23622407
0.05600000 1444441.10457198 18524.95803059
0.05700000 1436538.48773295 13747.67396933
0.05800000 1428540.94546707 13906.84675347
0.05900000 1420451.20769487 14062.46761298
0.06000000 1412273.07659023 19383.44888177
0.06100000 1404007.50215681 16974.45149432
0.06200000 1395657.14684247 15826.75278499
0.06300000 1387224.81308462 15980.83059392
0.06400000 1378709.53416926 17475.14416285
0.06500000 1370117.71572438 13564.16602017
0.06600000 1361449.70395276 19155.59823088
0.06700000 1352707.40414654 19316.66263521
0.06800000 1343893.87272667 16691.16268056
0.06900000 1335011.65857419 16821.14768558
0.07000000 1326061.82348038 15534.81498954
0.07100000 1317047.19310233 15646.52138690
0.07200000 1307970.22505857 18618.95702595
0.07300000 1298833.97824921 17300.46940090
0.07400000 1289640.03241612 21762.67656691
0.07500000 1280390.58792130 17515.74406377
0.07600000 1271086.53800479 14681.05020221
0.07700000 1261733.46595545 17714.73869263
0.07800000 1252331.25056240 19292.16381964
0.07900000 1242882.29139277 22371.88229439
0.08000000 1233390.47748668 19481.40350580
0.08100000 1223856.95975274 18064.12957349
0.08200000 1214283.34347315 25700.30817060
0.08300000 1204673.11885168 15178.88200991
0.08400000 1195028.00452705 16760.26855020
0.08500000 1185350.43038779 15291.02126984
0.08600000 1175642.31889060 24547.41277097
0.08700000 1165907.40791453 18467.97420858
0.08800000 1156145.10525200 18521.44545597
0.08900000 1146360.95396359 18571.04832649
0.09000000 1136554.54461215 15513.97026273
0.09100000 1126729.10707194 17103.74864891
0.09200000 1116886.31358384 21812.79072920
0.09300000 1107031.22181644 17170.05505723
0.09400000 1097160.34297828 15634.53562222
0.09500000 1087279.74042898 18788.19479771
0.09600000 1077390.75662776 17243.63987041
0.09700000 1067497.37212404 15692.21210796
0.09800000 1057599.63460818 15705.35531236
0.09900000 1047700.32819454 25144.80905904
0.10000000 1037800.00081743 18867.20490213
0.10100000 1027901.51674193 22017.65152414
0.10200000 1018007.71238377 20446.68586496
0.10300000 1008119.53353191 17299.33200918
0.10400000 998240.16798299 18866.74006247
0.10500000 988372.45835200 22001.17195806
0.10600001 978513.44378655 15705.14151176
0.10700001 968670.82719256 15692.46813897
0.10800001 958843.01161169 17244.79237541
0.10900001 949033.69098469 17224.96230208
0.11000001 939243.27237831 20329.92158755
0.11100001 929474.38011888 21861.23844948
0.11200001 919728.21390637 23384.09093943
0.11300001 910007.00087243 20229.45658181
0.11400001 900312.59226947 20189.51083225
0.11500001 890647.15286974 15497.26118967
0.11600001 881011.11386898 17007.92035417
0.11700001 871407.60458723 18508.69839310
0.11800001 861835.92063841 21537.28067112
0.11900001 852298.73591768 23012.06695368
0.12000001 842797.20720863 19885.80104081
0.12100001 833336.20387712 16775.05857429
0.12200001 823912.74821875 15201.19092078
0.12300001 814531.55916450 15150.28771426
0.12400001 805191.34225680 15097.33837866
0.12500001 795894.28362653 22563.60400402
0.12600001 786643.92677089 20979.79451562
0.12700001 777439.14045987 17912.19864033
0.12800001 768282.16584481 16352.88667071
0.12900001 759174.14918914 16284.28626762
0.13000001 750116.64818579 16213.77211477
0.13100001 741109.50517775 19076.15956248
0.13200001 732155.78293113 18988.46112544
0.13300001 723256.05030914 15991.19202621
0.13400001 714409.85124825 21700.20025473
0.13500001 705620.95301324 20152.53536821
0.13600001 696888.69701653 17185.27607873
0.13700001 688214.51828141 17095.24944021
0.13800001 679597.86252336 14169.61610179
0.13900001 671042.75780015 16910.27829402
0.14000001 662547.49477020 16815.45621029
0.14100001 654114.82552038 16719.17572883
0.14200001 645744.07590657 16621.45329779
0.14300001 637437.75063547 15145.52166948
0.14400001 629192.57500357 15053.43306703
0.14500001 621015.18562267 14960.25652736
0.14600001 612902.39793985 14865.94836332
0.14700001 604857.40261517 14770.61846869
0.14800001 596876.90025385 21344.31896007
0.14900001 588965.04624372 13251.71416571
0.15000001 581120.87533693 14478.62729216
0.15100001 573345.51157743 16993.96176501
0.15200001 565640.47232461 18174.02923337
0.15300001 558004.96974324 18045.88157306
0.15400001 550437.83245294 20476.28833355
0.15500001 542943.07714845 13975.35546534
0.15600001 535517.27053667 16394.86201123
0.15700001 528165.88194578 12517.53199290
0.15800001 520882.89258970 13665.36333208
0.15900001 513674.36010447 14793.82226929
0.16000001 506535.54507664 13456.11739012
0.16100001 499471.82003716 16992.03211976
0.16200001 492480.06252867 15653.47952641
0.16300001 485560.97694582 27473.04137254
0.16400001 478715.68233905 13033.03506696
0.16500001 471942.62281595 15276.78342179
0.16600001 465243.54786026 13985.22170896
0.16700001 458617.09549163 18491.44216329
0.16800001 452064.26174677 13751.79549165
0.16900001 445586.15707447 15907.42655868
0.17000001 439180.18095619 14644.46382549
0.17100001 432848.34877618 16751.23188865
0.17200001 426589.58416765 18819.00039424
0.17300001 420404.41531227 10972.55575782
0.17400001 414293.13808564 13050.23446601
0.17500001 408253.91117477 18322.43639885
0.17600001 402286.70075635 13884.92613238
0.17700001 396394.93628985 10583.74529882
0.17800001 390574.03480548 13632.98732880
0.17900001 384825.22991075 17663.47888721
0.18000001 379150.27577317 13382.10961552
0.18100001 373547.37882513 15296.76588545
0.18200001 368014.04612847 18183.57487816
0.18300001 362553.02200843 11007.11026814
0.18400001 357162.83992342 12884.65005892
0.18500001 351843.92888229 10798.09068752
0.18600001 346595.56563077 13610.80850534
0.18700001 341416.36882316 11553.53046682
0.18800001 336305.54562034 10487.68893567
0.18900001 331267.39255716 11329.34536074
0.19000001 326294.07070546 11217.99068089
0.19100001 321391.68552443 11107.29717654
0.19200001 316555.51625890 19244.99352031
0.19300001 311788.90060192 9073.05743624
0.19400001 307087.36572551 10778.76704630
0.19500001 302453.01953398 11559.75495285
0.19600001 297883.30077953 9682.69714941
0.19700001 293381.20078865 11327.44869776
0.19800001 288942.67741319 10349.92719407
0.19900001 284568.89532273 11098.18744209
0.20000001 280257.45872046 10139.71533572
0.20100001 276010.89457573 8363.13050091
0.20200001 271825.72557845 10760.22185559
0.20300001 267703.08213413 9010.88617053
0.20400001 263642.09584291 8917.69431339
0.20500001 259641.50838114 12034.38448229
0.20600001 255700.80729827 10321.36357446
0.20700001 251820.10469962 10999.50269322
0.20800001 247997.79173326 8552.20425219
0.20900001 244236.20946056 8462.78505785
0.21000001 240529.23681168 11419.12605744
0.21100001 236881.04317919 9039.38103504
0.21200001 233287.92672960 8944.25953365
0.21300001 229750.67553102 8849.99643984
0.21400001 226268.77193549 8026.88506389
0.21500001 222842.44105194 7942.10497457
0.21600001 219467.93125411 8572.41780008
0.21700001 216147.43500179 7068.02145873
0.21800001 212879.24702273 11188.93375253
0.21900001 209661.82914129 6918.84068880
0.22000001 206495.00690174 6845.30980246
0.22100001 203380.06773036 11513.34617861
0.22200001 200314.25819329 8040.61470407
0.22300001 197296.96467097 9943.76748961
0.22400001 194327.17184828 7870.25083201
0.22500001 191407.37726560 6488.71039614
0.22600001 188532.25027970 7703.42811071
0.22700001 185704.53714130 8256.42411174
0.22800001 182921.51337012 8168.36056582
0.22900001 180183.06484366 6837.94763419
0.23000001 177489.31271881 7380.00597186
0.23100001 174839.99016944 6692.87514021
0.23200001 172231.90843480 6621.45603293
0.23300001 169667.07390781 5955.31457582
0.23400001 167142.62931379 7070.13355436
0.23500001 164658.92294825 6411.81876286
0.23600001 162215.91266771 6920.13116171
0.23700001 159812.31705074 5705.29998856
0.23800001 157447.09904506 5644.47876774
0.23900001 155120.43709792 8376.50399949
0.24000001 152830.73277461 6629.79750135
0.24100001 150579.06917893 8199.03070462
0.24200001 148363.65559530 5407.85550225
0.24300001 146183.11907803 6955.39313474
0.24400001 144037.90691563 6881.41132841
0.24500001 141926.51674614 7331.92420194
0.24600001 139849.26246424 5699.55696135
0.24700001 137805.83835880 6664.29065829
0.24800001 135794.75723070 5579.12786475
0.24900001 133814.42510441 6523.45353245
0.25000001 131866.89831325 6454.22564328
0.25100001 129949.42849655 5403.29749251
0.25200001 128064.04965795 5832.03709734
0.25300001 126206.89817916 5770.17965774
0.25400001 124380.00162498 5709.04234469
0.25500001 122580.06747399 6589.90473918
0.25600001 120809.89693936 5588.66609683
0.25700001 119066.28056794 7372.58444159
0.25800001 117349.83619893 6382.65789285
0.25900001 115660.96381664 4961.85558250
0.26000001 113997.32634976 5355.59464531
0.26100001 112358.92800074 5740.41790317
0.26200001 110746.89597082 6116.55135388
0.26300001 109158.08192361 6051.72434820
0.26400001 107594.32595470 5132.24959089
0.26500001 106054.23972211 5077.87723817
0.26600001 104537.02220192 4605.37873103
0.26700001 103042.99856666 4556.56161224
0.26800001 101571.79169218 5327.94858534
0.26900001 100121.50065470 4460.41306524
0.27000001 98693.48695518  4413.07947804
0.27100001 97286.43146555  3969.28659163
0.27200001 95900.73236952  5497.98924693
0.27300001 94535.30701554  5439.56182310
0.27400001 93188.30505488  3844.01776543
0.27500001 91863.24119410  5704.70754813
0.27600001 90555.12406938  6772.61804967
0.27700001 89267.94711572  4466.96828508
0.27800001 87998.02587739  4050.98931299
0.27900001 86747.11307678  5829.40627465
0.28000001 85513.41594421  5046.14691369
0.28100001 84297.60606338  3565.78890525
0.28200001 83099.39103842  6349.62476977
0.28300001 81918.17439420  4885.60015211
0.28400001 80752.92604234  4142.62530205
0.28500001 79604.82565184  4098.05661852
0.28600001 78472.46778688  3716.06388794
0.28700001 77356.70949098  3675.99100901
0.28800001 76254.86777628  4297.34327694
0.28900001 75170.34636696  3596.90124391
0.29000001 74099.75895061  3881.34555755
0.29100001 73044.93439236  4799.05241674
0.29200001 72004.14253008  3164.58221399
0.29300001 70978.11980311  4382.18932408
0.29400001 69965.55288513  3715.17103406
0.29500001 68968.24293368  4287.06618369
0.29600001 67983.43356172  3634.39453025
0.29700001 67012.79835384  2995.47222822
0.29800001 66055.75921452  3555.12112922
0.29900001 65112.26059318  2930.05186540
0.30000001 64180.59623560  4056.85568010
0.30100001 63263.16525155  3152.40367372
0.30200001 62357.27236515  3684.37961212
0.30300001 61464.84028770  3363.35621977
0.30400001 60584.56690206  2771.74406699
0.30500001 59716.88726508  3015.10578076
0.30600001 58860.23677810  3523.66824154
0.30700001 58016.45218171  3484.46828300
0.30800001 57184.17723921  2915.53541457
0.30900001 56363.90180927  3145.10586986
0.31000001 55555.28559425  2850.81961524
0.31100001 54757.44815288  3331.44330335
0.31200001 53971.92064486  2787.37997367
0.31300001 53196.83161282  3006.68506511
0.31400001 52434.35062610  3468.53245814
0.31500001 51681.36284411  3919.51474367
0.31600002 50940.80281757  3148.90587526
0.31700002 50210.20017831  2634.52932810
0.31800002 49490.38034195  3315.36073608
0.31900002 48781.89411681  2341.53102848
0.32000002 48084.16201297  3009.82826372
0.32100002 47396.35881167  3204.94193460
0.32200002 46720.16423276  2263.59206426
0.32300002 46052.70919055  2238.16177264
0.32400002 45397.06984357  2434.41798563
0.32500002 44751.00970470  2844.82182164
0.32600002 44115.41200661  3029.40548594
0.32700002 43490.22600033  2567.66306465
0.32800002 42875.89254962  3173.88809628
0.32900002 42269.68565138  3138.52430824
0.33000002 41674.92249964  2482.99200011
0.33100002 41089.05321744  2455.48193655
0.33200002 40514.60837476  3642.66861147
0.33300002 39949.16421907  2001.45322215
0.33400002 39394.03702850  2573.41559075
0.33500002 38848.48086774  2349.55623415
0.33600002 38312.25457397  1936.68456043
0.33700002 37785.61040195  2490.44969953
0.33800002 37269.54409265  2084.67204755
0.33900002 36762.16963720  2624.81903640
0.34000002 36264.46581176  3153.37677400
0.34100002 35776.56309289  2202.40532830
0.34200002 35298.62636255  2179.33729484
0.34300002 34829.36846167  2516.07369683
0.34400002 34370.20856299  1778.65837737
0.34500002 33920.04627859  1760.45048523
0.34600002 33479.80467324  2091.14869893
0.34700002 33047.57180491  1725.08332992
0.34800002 32625.55927904  2561.92216372
0.34900002 32212.24014295  2198.48549388
0.35000002 31808.50599489  2177.13329593
0.35100002 31414.40158464  2653.88877157
0.35200002 31027.80055632  2135.79875245
0.35300002 30651.54078564  1790.35658209
0.35400002 30283.59899431  2257.64241196
0.35500002 29924.92333082  1757.79007971
0.35600002 29574.73761775  2217.21818422
0.35700002 29233.30106049  1569.82834130
0.35800002 28901.07058254  1711.95499704
0.35900002 28578.00569866  1697.53361890
0.36000002 28263.28666157  1683.50274974
0.36100002 27956.61743147  2125.26215781
0.36200002 27660.03348524  1656.69778407
0.36300002 27370.47290524  1494.42789141
0.36400002 27089.98823609  1928.13000403
0.36500002 26817.18492279  1766.71622640
0.36600002 26553.60581713  1607.95367642
0.36700002 26297.72266586  1596.79779591
0.36800002 26050.84348272  1730.29710608
0.36900002 25811.89684579  1719.07241136
0.37000002 25580.39504706  2277.67848288
0.37100002 25356.99152209  2263.87231033
0.37200002 25142.28925896  1688.05338081
0.37300002 24934.95674954  1818.50648189
0.37400002 24735.37583357  1530.50145220
0.37500002 24543.69479179  2214.82312293
0.37600002 24359.91979714  1790.81958872
0.37700002 24183.52230807  1508.32635781
0.37800002 24014.58119100  1501.75190592
0.37900002 23853.85756124  1495.63693994
0.38000002 23699.68840863  2167.09961075
0.38100002 23552.18034602  1484.49399754
0.38200002 23413.01354014  2017.61653740
0.38300002 23280.31494254  1340.94620422
0.38400002 23154.92988519  1604.63671706
0.38500002 23035.78653649  1600.52652438
0.38600002 22924.54596059  1730.00094287
0.38700002 22819.04185650  1593.68195876
0.38800002 22720.26172021  1723.44553444
0.38900002 22628.05616509  1456.11548321
0.39000002 22542.92659841  1454.35697840
0.39100002 22463.15163778  1452.91671677
0.39200002 22390.46887331  1583.90184314
0.39300002 22323.21589372  1583.16254619
0.39400002 22263.26413663  1582.91815511
0.39500002 22207.84195017  1582.97504921
0.39600002 22158.55004248  1847.35840457
0.39700002 22114.47131851  1980.35100040
0.39800002 22077.16448890  1585.58202872
0.39900002 22044.20139652  1983.97821969
0.40000002 22017.06130148  1721.62419004
0.40100002 21994.77480410  1591.54198023
0.40200002 21978.18323995  1328.58123980
0.40300002 21966.37642753  1730.51121695
0.40400002 21959.42681303  1867.64933894
0.40500002 21956.85747652  1604.60722041
0.40600002 21959.88560795  1608.78129586
0.40700002 21966.87013779  1478.80976774
0.40800002 21978.17723428  1618.03348465
0.40900002 21993.55292241  1487.86392570
0.41000002 22013.74650395  1628.57704353
0.41100002 22037.77496475  1361.93455735
0.41200002 22064.78551701  1503.60488030
0.41300002 22097.11245167  1646.67689792
0.41400002 22132.26087339  1791.05329604
0.41500002 22171.04604173  1521.82067241
0.41600002 22212.25323636  1667.25180692
0.41700002 22258.35740258  2093.39861291
0.41800002 22307.96652664  1682.46691516
0.41900002 22358.78043524  1690.32388100
0.42000002 22413.19890347  1698.47229339
0.42100002 22471.16654294  1564.66740053
0.42200002 22531.44588724  2144.43046393
0.42300002 22593.94757257  2586.55524067
0.42400002 22658.81851212  2166.74962289
0.42500002 22726.60404688  2178.34510112
0.42600002 22795.38053144  1606.04861145
0.42700002 22867.36369074  1468.08481851
0.42800002 22940.69300080  1771.48039747
0.42900002 23016.69482970  1633.03457555
0.43000002 23094.09964472  1642.33697406
0.43100002 23171.73180302  1501.52829199
0.43200002 23252.18504419  2265.34423528
0.43300002 23333.16941684  1518.98940102
0.43400002 23416.02106338  1833.47453615
0.43500002 23499.32573883  2151.59836661
0.43600002 23584.43414811  2009.74765117
0.43700002 23669.68532807  1710.60823972
0.43800002 23755.28195956  2033.57100852
0.43900002 23842.62490479  1573.61331829
0.44000002 23929.73553409  1582.95208060
0.44100002 24017.65542351  2229.31888206
0.44200002 24105.71944883  1601.82513329
0.44300002 24194.18587930  2416.99928388
0.44400002 24282.51061311  1782.94342626
0.44500002 24370.43045789  1793.42006239
0.44600002 24458.13720288  1639.91817717
0.44700002 24546.74859580  1649.54158381
0.44800002 24633.76268545  2156.80919414
0.44900002 24721.08493457  1835.54064338
0.45000002 24808.25543867  3020.90140793
0.45100002 24893.86647771  2362.92591805
0.45200002 24979.28118370  2715.74757900
0.45300002 25063.38086991  1877.49794994
0.45400002 25147.05607115  1716.28665820
0.45500002 25229.91817556  2243.44443049
0.45600002 25311.19974103  2429.11595427
0.45700002 25391.77797241  2093.29827525
0.45800002 25470.72878055  2455.12366352
0.45900002 25548.30353918  1939.11633053
0.46000002 25625.05922063  2657.95939363
0.46100002 25699.45511810  2137.16678891
0.46200002 25772.96869126  1789.93276044
0.46300002 25844.84531995  1798.80131952
0.46400002 25914.41337524  2169.03650231
0.46500002 25983.43108911  1997.86611113
0.46600002 26049.44599031  2189.71653373
0.46700002 26113.71325556  2016.50103317
0.46800002 26176.75398843  2578.14862252
0.46900002 26236.97017131  2774.55972712
0.47000002 26295.31732866  2043.54068305
0.47100002 26351.85071255  2238.85334265
0.47200002 26406.24716130  2997.63731983
0.47300002 26458.37090680  2445.54733883
0.47400002 26507.53875930  1888.66222612
0.47500002 26554.93594264  2085.62476779
0.47600002 26600.65656099  1903.27706715
0.47700002 26642.81143374  1910.28967034
