# SAXS profile: number of points = 501, q_min = 0, q_max = 0.5, delta_q = 0.001
#    q    intensity    error
0.00000000 1664650.74656090 299.63713438
0.00100000 1664569.16009480 549.30783588
0.00200000 1664324.33598146 823.84057240
0.00300000 1663916.50034203 1098.18492935
0.00400000 1663345.52015287 1621.76194377
0.00500000 1662611.91290986 1795.62093702
0.00600000 1661715.56922956 2617.20212809
0.00700000 1660657.06333795 2391.34627059
0.00800000 1659436.21574742 2240.23898584
0.00900000 1658054.22508339 3233.20587712
0.01000000 1656510.54348964 3279.89101773
0.01100000 1654806.40245548 4765.84264657
0.01200000 1652941.73134448 3545.56016918
0.01300000 1650917.66336794 3466.92724598
0.01400000 1648734.25531158 4080.61746279
0.01500000 1646392.89973447 3951.34313531
0.01600000 1643893.02031242 5030.31286703
0.01700000 1641236.91537637 4874.47385733
0.01800000 1638424.39042262 5603.41166739
0.01900000 1635456.24547646 5397.00585360
0.02000000 1632333.68051741 5656.03645885
0.02100000 1629058.49560492 8601.42924677
0.02200000 1625629.49705162 5608.42201963
0.02300000 1622049.84966419 7591.19364197
0.02400000 1618318.95524179 6068.69635887
0.02500000 1614439.50537426 11962.99728118
0.02600000 1610411.35570341 7174.38291780
0.02700000 1606236.75994504 8770.05311098
0.02800000 1601915.51480553 7665.16608987
0.02900000 1597450.13238872 7907.37851839
0.03000000 1592842.11160534 8147.38777536
0.03100000 1588091.56518020 9147.40783634
0.03200000 1583200.03783203 8620.52460304
0.03300000 1578171.33520114 11268.14385280
0.03400000 1573003.71029377 12387.40479012
0.03500000 1567700.22632580 9312.13977439
0.03600000 1562262.17747963 11271.72213142
0.03700000 1556691.30301229 11535.08308879
0.03800000 1550989.15863014 10887.94439747
0.03900000 1545157.95106722 11125.13776289
0.04000000 1539197.49314794 11359.27802581
0.04100000 1533111.62351021 10624.46404355
0.04200000 1526901.27626624 16742.47327099
0.04300000 1520567.27470860 14050.04227048
0.04400000 1514113.32921645 10220.26544686
0.04500000 1507540.69897280 10402.03130624
0.04600000 1500849.35695471 11639.08730425
0.04700000 1494043.47277989 12908.53620517
0.04800000 1487123.62024105 12023.39502907
0.04900000 1480093.61286092 14430.91339712
0.05000000 1472952.77730856 12394.89819823
0.05100000 1465705.89423421 12575.75715836
0.05200000 1458351.25470443 13912.67161823
0.05300000 1450894.82664166 15277.92323676
0.05400000 1443336.59713819 15479.78572619
0.05500000 1435678.99946236 20501.49706870
0.05600000 1427923.41810237 14650.49495338
0.05700000 1420074.57794587 13590.11434531
0.05800000 1412131.68966430 13747.10264077
0.05900000 1404097.21338442 16427.93816388
0.06000000 1395975.15056966 15327.80786935
0.06100000 1387766.45778073 16778.09725863
0.06200000 1379473.56537161 14339.62838232
0.06300000 1371099.70497009 21060.09245301
0.06400000 1362643.46581905 19928.66161960
0.06500000 1354111.24033317 14746.27209703
0.06600000 1345503.67859931 13522.31260261
0.06700000 1336822.41809599 20453.38395407
0.06800000 1328070.62654825 20618.29744229
0.06900000 1319250.92433944 26319.05717280
0.07000000 1310364.16503337 15350.91691223
0.07100000 1301413.33066916 21082.89694432
0.07200000 1292400.81557638 14151.78959353
0.07300000 1283329.42759199 22791.93170196
0.07400000 1274201.15676340 27236.05100221
0.07500000 1265018.03227659 18747.56811708
0.07600000 1255780.96776228 15954.69794339
0.07700000 1246495.17890110 14583.99427696
0.07800000 1237160.98777160 16126.39423187
0.07900000 1227780.54758912 17680.04071454
0.08000000 1218358.01794629 17763.66073497
0.08100000 1208894.01310360 16356.33676470
0.08200000 1199390.53756717 19412.13676144
0.08300000 1189851.15830521 14992.12529826
0.08400000 1180277.26931605 16553.38947915
0.08500000 1170671.48640411 21142.32803699
0.08600000 1161035.54569198 19696.96895747
0.08700000 1151373.25100542 16717.94038963
0.08800000 1141684.15206012 16765.63256038
0.08900000 1131973.61915948 16809.80903407
0.09000000 1122241.45044969 18382.31582188
0.09100000 1112490.43604244 16887.60561252
0.09200000 1102722.34623169 19997.87068855
0.09300000 1092942.65838932 16951.54142821
0.09400000 1083147.62083300 16978.33975450
0.09500000 1073343.11220526 18547.36985068
0.09600000 1063530.52102979 20116.68075092
0.09700000 1053713.92005632 17038.55488834
0.09800000 1043893.28340584 18602.17918492
0.09900000 1034071.72722189 20164.39962901
0.10000000 1024249.21575832 18620.85161817
0.10100000 1014428.93920089 18624.91619969
0.10200000 1004613.71011877 15521.28255140
0.10300000 994804.34984046 17070.84344629
0.10400000 985004.08430656 15513.81505768
0.10500000 975215.60631399 15505.92886994
0.10600001 965436.32727345 20143.82991640
0.10700001 955673.34921842 18578.29078306
0.10800001 945925.75621115 18559.06421028
0.10900001 936196.84021887 18536.69830878
0.11000001 926486.82997967 18511.20773431
0.11100001 916798.52622521 16942.43756218
0.11200001 907133.36828348 15375.91131626
0.11300001 897493.29286358 23020.70404578
0.11400001 887880.18250746 21442.30741715
0.11500001 878296.07539189 19867.05816086
0.11600001 868741.66686704 15246.41697149
0.11700001 859219.81599507 15208.19145934
0.11800001 849729.99708835 15167.68116240
0.11900001 840274.97017896 15124.95017563
0.12000001 830855.36025147 16588.02804880
0.12100001 821476.35634367 19542.92343805
0.12200001 812135.28589869 14983.89673074
0.12300001 802836.27829827 22399.13321984
0.12400001 793578.54995917 17855.51821539
0.12500001 784363.64601363 19271.81569065
0.12600001 775195.86327226 20674.47464772
0.12700001 766073.58850785 17650.33631102
0.12800001 756998.88563717 14647.92912743
0.12900001 747973.40085557 26253.86760743
0.13000001 738998.38751373 18877.71469884
0.13100001 730073.95497841 18792.10448696
0.13200001 721202.37145856 20143.18318439
0.13300001 712384.99755202 20046.51477617
0.13400001 703621.24096441 15673.16388140
0.13500001 694914.60598236 19846.76208260
0.13600001 686264.45229558 18333.55570752
0.13700001 677672.49757568 15430.60349740
0.13800001 669137.84625293 25112.74455408
0.13900001 660664.61956394 20810.93649767
0.14000001 652251.16661548 16554.13538940
0.14100001 643900.11086144 19201.10221147
0.14200001 635611.03089000 14997.24298120
0.14300001 627386.08590608 16261.84811372
0.14400001 619222.27581599 14814.89364771
0.14500001 611125.96229467 16060.39104671
0.14600001 603094.24288492 14628.05155124
0.14700001 595129.90165776 19817.82666014
0.14800001 587229.87770992 15749.50606322
0.14900001 579398.43360993 14340.11190842
0.15000001 571634.52881267 15537.02722621
0.15100001 563939.08379533 24429.84226274
0.15200001 556313.69874237 12767.39998859
0.15300001 548757.68569774 19014.45470670
0.15400001 541269.82285741 17618.33356544
0.15500001 533854.10793181 14990.62405818
0.15600001 526507.07746630 21078.71184117
0.15700001 519234.30166943 14767.02423644
0.15800001 512029.54226343 13433.09567531
0.15900001 504898.98283958 12117.57616011
0.16000001 497837.76689735 16831.89569331
0.16100001 490851.49636395 14313.23030962
0.16200001 483936.86885228 13015.48270219
0.16300001 477094.53474426 11736.52610876
0.16400001 470325.62280724 16296.78359964
0.16500001 463628.55980698 11544.35168422
0.16600001 457005.28205421 11447.98285595
0.16700001 450454.41756771 15892.03260213
0.16800001 443976.73845286 18007.69736191
0.16900001 437573.31197486 11158.11998222
0.17000001 431241.61953362 16592.02209503
0.17100001 424983.79673803 13157.49896832
0.17200001 418798.74824343 14128.17643917
0.17300001 412686.62674959 17233.79434692
0.17400001 406648.42883489 12809.42611324
0.17500001 400681.66663199 10577.99649866
0.17600001 394786.46681347 12577.89742672
0.17700001 388966.45221532 11423.94524112
0.17800001 383216.70236639 17491.92720569
0.17900001 377539.03426499 12232.26528796
0.18000001 371934.24994943 11107.81689942
0.18100001 366401.40227893 11003.03463018
0.18200001 360937.76650185 13870.83902190
0.18300001 355545.83474843 11775.67860314
0.18400001 350224.49985535 10690.60336312
0.18500001 344973.79525405 11549.72321074
0.18600001 339793.26692850 11437.44190516
0.18700001 334681.56950008 11325.62484696
0.18800001 329637.62450701 14952.36335408
0.18900001 324666.02481997 9252.98214455
0.19000001 319758.58190545 11909.40894577
0.19100001 314921.75803406 11790.67117791
0.19200001 310150.84960293 12570.41452838
0.19300001 305448.71518184 8888.55803180
0.19400001 300811.24174141 9678.60216038
0.19500001 296240.50533805 9580.41839536
0.19600001 291734.09964818 10344.89166239
0.19700001 287294.54957556 9385.91337819
0.19800001 282918.19857438 9289.61948921
0.19900001 278606.09341116 9194.00151708
0.20000001 274355.87806831 9926.19613763
0.20100001 270169.98406374 9004.76599443
0.20200001 266045.07137703 8911.18008695
0.20300001 261982.09420223 8016.65246149
0.20400001 257980.44312932 9519.47880142
0.20500001 254038.51525791 11774.68573876
0.20600001 250155.92423611 9320.81017761
0.20700001 246332.94274200 9222.70581221
0.20800001 242567.76566026 10646.29973808
0.20900001 238862.88598327 8276.59939057
0.21000001 235212.05634684 11911.13909647
0.21100001 231619.48182863 8838.59984441
0.21200001 228081.56046946 10202.08868210
0.21300001 224598.82084600 7930.58473899
0.21400001 221171.08493480 7132.76782636
0.21500001 217798.32255893 8467.99918144
0.21600001 214476.90788748 8377.46841816
0.21700001 211208.83013751 7597.18197924
0.21800001 207992.70914252 8882.32906389
0.21900001 204826.95884142 10814.86393817
0.22000001 201711.11149476 8692.74076088
0.22100001 198646.80201228 7937.92658374
0.22200001 195630.79445223 7852.62046062
0.22300001 192662.96642241 6473.47597789
0.22400001 189742.29013271 8324.94337323
0.22500001 186870.86319305 7601.90707417
0.22600001 184043.66096727 7520.02434273
0.22700001 181263.33034041 9918.72990528
0.22800001 178527.33131154 7972.13835672
0.22900001 175835.20038417 7886.20911018
0.23000001 173187.35339433 6601.03628680
0.23100001 170583.46332026 6529.93528472
0.23200001 168020.14235255 7046.76510353
0.23300001 165499.72334415 8132.65678976
0.23400001 163019.32812474 6321.07474699
0.23500001 160578.91126901 6252.94310056
0.23600001 158178.80316806 6747.90806231
0.23700001 155817.64459737 8900.30428037
0.23800001 153494.35725716 7703.88215512
0.23900001 151209.10206518 5987.88072501
0.24000001 148960.27072297 8615.86246615
0.24100001 146749.07757331 6392.39012146
0.24200001 144573.68163556 5796.68203937
0.24300001 142432.62207876 8340.85474348
0.24400001 140326.38417730 6188.39383495
0.24500001 138253.65543692 6121.87215234
0.24600001 136214.53383822 10093.49743489
0.24700001 134208.59150547 6989.58377625
0.24800001 132234.63469491 6914.54937530
0.24900001 130291.11342171 7817.46717513
0.25000001 128379.90285202 5316.85392815
0.25100001 126498.09598372 5737.95390528
0.25200001 124648.05044904 6149.51185984
0.25300001 122825.82216513 5615.59685507
0.25400001 121033.37116782 5555.43199944
0.25500001 119267.55694615 6411.82416478
0.25600001 117530.87603107 4983.89703390
0.25700001 115820.36364008 5378.69794193
0.25800001 114136.68818026 4877.63160016
0.25900001 112480.12959991 6141.41536673
0.26000001 110848.31895485 5641.62546014
0.26100001 109241.30454340 6439.77520754
0.26200001 107660.44214564 6370.80696541
0.26300001 106102.19444209 4201.64709872
0.26400001 104568.75624470 4572.26908315
0.26500001 103058.52290127 4112.03525834
0.26600001 101570.77495263 4067.90972934
0.26700001 100105.78776545 4024.25285860
0.26800001 98663.22222031  6767.80404846
0.26900001 97241.25181072  6695.06050399
0.27000001 95841.20253205  5064.72858748
0.27100001 94461.61931571  4624.84110056
0.27200001 93103.15905247  4193.83199798
0.27300001 91764.46996851  4148.67188361
0.27400001 90444.12633283  4103.90242657
0.27500001 89145.10936484  4059.66847260
0.27600001 87862.69020856  4015.76444603
0.27700001 86600.90130768  4333.50930653
0.27800001 85356.13792951  3572.15454141
0.27900001 84129.88163718  3886.80071559
0.28000001 82920.71951133  4893.15188995
0.28100001 81729.05809123  3802.85325297
0.28200001 80554.66160295  5471.27287503
0.28300001 79396.81205858  3382.30435378
0.28400001 78254.81243424  4014.47206788
0.28500001 77129.52691901  3970.62823373
0.28600001 76019.78505587  4254.44747202
0.28700001 74926.31882722  3884.18055185
0.28800001 73846.49966921  5442.11805071
0.28900001 72783.59904535  3799.30405000
0.29000001 71734.55318860  3757.45607387
0.29100001 70700.80056933  3406.36473267
0.29200001 69680.95059854  3368.72571615
0.29300001 68675.51423040  4845.74451347
0.29400001 67683.34180936  3893.48442189
0.29500001 66706.15892481  3257.92895611
0.29600001 65741.24108827  4393.15864368
0.29700001 64790.22917045  3185.73571912
0.29800001 63852.56158762  3436.54502733
0.29900001 62928.16449146  3964.47455064
0.30000001 62015.60583702  4200.00710414
0.30100001 61116.81234378  3322.31007629
0.30200001 60229.42462287  3011.17022657
0.30300001 59355.22662905  2977.25830866
0.30400001 58493.02213733  3211.26706737
0.30500001 57643.26685502  2910.40868130
0.30600001 56804.28522320  3923.75618755
0.30700001 55977.97399340  2586.18252093
0.30800001 55162.98306185  2556.80438597
0.30900001 54359.77158391  3791.59424749
0.31000001 53567.97377572  2748.84070444
0.31100001 52786.98095005  2470.43082543
0.31200001 52018.04051628  3174.92125323
0.31300001 51259.42953478  3380.04694356
0.31400001 50513.14808236  2386.74635990
0.31500001 49776.37551705  2595.34034234
0.31600002 49051.72286752  3032.13239262
0.31700002 48336.90465251  2766.80455331
0.31800002 47632.75916440  2735.07316072
0.31900002 46939.78361992  3154.35360861
0.32000002 46257.37680237  2450.02207834
0.32100002 45584.86488453  2201.74907818
0.32200002 44923.83036738  3264.83952654
0.32300002 44271.30360117  2366.74400259
0.32400002 43630.41340431  2977.77585585
0.32500002 42999.26861909  2523.19720205
0.32600002 42378.42690668  2910.12671348
0.32700002 41767.72685765  2465.96671045
0.32800002 41167.81856595  2437.95833092
0.32900002 40575.99861864  2410.21443208
0.33000002 39995.54904681  2780.09074589
0.33100002 39423.84913866  2552.30011410
0.33200002 38863.48134765  2523.60028081
0.33300002 38312.01642444  2687.20495926
0.33400002 37770.93639767  2846.98446580
0.33500002 37239.17922307  2064.54019390
0.33600002 36716.69781736  2041.63207882
0.33700002 36203.79159208  2019.08555271
0.33800002 35701.38183645  1996.95688759
0.33900002 35207.57672232  1795.58649787
0.34000002 34723.39847348  2841.76306565
0.34100002 34248.86057677  2284.05662003
0.34200002 33784.40671543  2259.67015018
0.34300002 33328.55068149  2407.65461526
0.34400002 32882.77873406  1871.85226809
0.34500002 32445.83529048  2189.12061073
0.34600002 32018.74811194  1666.57591816
0.34700002 31599.79194165  1979.41106097
0.34800002 31190.93138427  1632.84533530
0.34900002 30790.66616261  2101.46306513
0.35000002 30400.00818300  1920.67260797
0.35100002 30018.96737889  1743.50170794
0.35200002 29645.43218503  1883.67085025
0.35300002 29282.16219725  1865.85946358
0.35400002 28927.26916361  1848.45258710
0.35500002 28581.67401025  1526.26146444
0.35600002 28244.32265402  1512.48354976
0.35700002 27915.88172453  1948.80779549
0.35800002 27596.45755403  1486.06930967
0.35900002 27286.31997041  1473.46134819
0.36000002 26984.55992965  1899.57818622
0.36100002 26690.74267891  1884.09961495
0.36200002 26407.02301651  1725.43496563
0.36300002 26130.30756674  1854.72931894
0.36400002 25862.74200381  1557.58371096
0.36500002 25602.69972191  1546.14710944
0.36600002 25352.03429104  1395.62955383
0.36700002 25108.95439095  1386.01434803
0.36800002 24874.95831574  1789.87771039
0.36900002 24648.93338772  1641.61904138
0.37000002 24430.31166283  1903.36567181
0.37100002 24219.74405691  1621.75413887
0.37200002 24017.87005576  1612.55987193
0.37300002 23823.48654124  1737.44695576
0.37400002 23636.77079706  1329.56842032
0.37500002 23458.01970542  1984.54856109
0.37600002 23287.13083924  1448.57604248
0.37700002 23123.62874211  1442.22079297
0.37800002 22967.56165418  1827.98831865
0.37900002 22819.82430971  1430.80305200
0.38000002 22678.57261713  1425.68853511
0.38100002 22544.01355791  1937.65805710
0.38200002 22417.81281912  1674.27442971
0.38300002 22297.99929823  1669.67426655
0.38400002 22185.59724604  1793.70562232
0.38500002 22079.48151747  1406.24224447
0.38600002 21981.21951599  1658.81280936
0.38700002 21888.72009000  1783.49299743
0.38800002 21802.98302982  1399.42453207
0.38900002 21723.84444237  1397.92945609
0.39000002 21651.67504596  1523.84496193
0.39100002 21585.03781403  1523.04034031
0.39200002 21525.29388558  1649.59097507
0.39300002 21471.12742508  1268.94369094
0.39400002 21424.19131111  1523.26007439
0.39500002 21381.92679959  1651.11246569
0.39600002 21345.71540243  1525.36489493
0.39700002 21314.70650199  1526.98564615
0.39800002 21290.44155256  1529.07958475
0.39900002 21270.56436801  1403.85731480
0.40000002 21256.56529545  1790.01544834
0.40100002 21247.41593535  1793.70693825
0.40200002 21243.93371018  1541.03502435
0.40300002 21245.19807365  1287.45906426
0.40400002 21251.36478813  1807.42866087
0.40500002 21261.85104052  1424.33146869
0.40600002 21278.05147721  1818.63514593
0.40700002 21298.08112896  1564.13115222
0.40800002 21322.53159237  1569.76485021
0.40900002 21350.94330266  1838.31630546
0.41000002 21384.19954684  1450.16956098
0.41100002 21421.23189451  1456.21541319
0.41200002 21461.39567814  1728.39358283
0.41300002 21506.69179004  1736.23531048
0.41400002 21554.90251582  1610.15129423
0.41500002 21606.72048286  1348.25942202
0.41600002 21660.98389846  2032.34191057
0.41700002 21720.05149761  2042.77094014
0.41800002 21782.56181857  1642.84089020
0.41900002 21846.35533906  1651.58454189
0.42000002 21913.69288539  2075.77465693
0.42100002 21984.49142597  2226.58939713
0.42200002 22057.73804105  1399.56354502
0.42300002 22133.01689737  1829.95792379
0.42400002 22210.78070446  1557.53107070
0.42500002 22291.33046284  1994.18251770
0.42600002 22372.82527825  1719.57543237
0.42700002 22457.59298186  2162.66630663
0.42800002 22543.60090287  1450.68078684
0.42900002 22632.21990422  1605.75607830
0.43000002 22722.23675975  1615.89194374
0.43100002 22812.45737688  1921.72150049
0.43200002 22905.41831646  1636.47768917
0.43300002 22998.90808315  1796.67478460
0.43400002 23094.17167678  1958.96320531
0.43500002 23189.84217134  1819.93889985
0.43600002 23287.30722524  2289.72459143
0.43700002 23384.81457769  1536.38239056
0.43800002 23482.64144126  1700.96521340
0.43900002 23582.14283719  1867.70580122
0.44000002 23681.41382532  1566.52559878
0.44100002 23781.37863611  1734.37602612
0.44200002 23881.44610112  1904.30660235
0.44300002 23981.89174488  2395.79109885
0.44400002 24082.07732894  1928.97448546
0.44500002 24181.76405472  2103.08811951
0.44600002 24281.23441029  2279.27958211
0.44700002 24381.42839850  1966.11847923
0.44800002 24480.07874204  2473.10007212
0.44900002 24578.90223714  1990.89117556
0.45000002 24677.45915102  2337.20226696
0.45100002 24774.40942650  1847.67554259
0.45200002 24871.09337496  1858.98996241
0.45300002 24966.46483688  2550.32450395
0.45400002 25061.14170595  2394.59220349
0.45500002 25155.00417114  2236.78307691
0.45600002 25247.25761166  1903.76955043
0.45700002 25338.73599240  2263.00261873
0.45800002 25428.36886882  2626.11491939
0.45900002 25516.63566934  2817.03671141
0.46000002 25603.94645558  1947.56427945
0.46100002 25688.80141776  2314.30422941
0.46200002 25772.72485513  1968.90740862
0.46300002 25854.87069110  1979.44899393
0.46400002 25934.56966800  1989.82995209
0.46500002 26013.62795368  2000.18794816
0.46600002 26089.61396523  2193.09305386
0.46700002 26163.73247108  2204.03292783
0.46800002 26236.46957846  2399.45643902
0.46900002 26306.38058378  2781.89987859
0.47000002 26374.25834098  2795.01216016
0.47100002 26440.22390248  2246.36152923
0.47200002 26503.88710704  2256.54105525
0.47300002 26565.15215604  3399.80833407
0.47400002 26623.41734570  2465.99414853
0.47500002 26679.75031577  2285.92111540
0.47600002 26734.33280738  2486.69408394
0.47700002 26785.15110139  1920.49542500
