# SAXS profile: number of points = 501, q_min = 0, q_max = 0.5, delta_q = 0.001
#    q    intensity    error
0.00000000 1646666.22097351 246.99993315
0.00100000 1646585.08166248 493.97553623
0.00200000 1646341.59001364 889.02448676
0.00300000 1645935.98557564 987.56162653
0.00400000 1645368.12421653 1604.23398207
0.00500000 1644638.52395414 1628.19220316
0.00600000 1643747.06320227 1725.93448663
0.00700000 1642694.34731622 2365.47995845
0.00800000 1641480.17466244 2880.79782816
0.00900000 1640105.75155968 2460.15873251
0.01000000 1638570.50649312 3785.09803344
0.01100000 1636875.71133456 3535.65169042
0.01200000 1635021.24521528 4144.77903834
0.01300000 1633008.25170919 3429.31747984
0.01400000 1630836.83281124 4036.32134014
0.01500000 1628508.34772162 5862.63031285
0.01600000 1626022.21690848 4975.62820617
0.01700000 1623380.68466899 4821.44084975
0.01800000 1620583.63099169 5542.39626739
0.01900000 1617631.83926560 5338.18531045
0.02000000 1614526.54194007 6102.91060460
0.02100000 1611269.42244424 5848.90826865
0.02200000 1607859.35844672 5547.11503866
0.02300000 1604299.54731981 5775.47863324
0.02400000 1600589.32800438 7802.87332981
0.02500000 1596731.38313589 6849.97794650
0.02600000 1592725.61565415 8385.70074997
0.02700000 1588574.30004956 6672.01236579
0.02800000 1584277.16440223 7580.76657932
0.02900000 1579836.69765255 9242.04510561
0.03000000 1575254.37208737 10254.90643366
0.03100000 1570530.47891278 10553.96530392
0.03200000 1565666.31301414 9300.05832765
0.03300000 1560665.89151255 7959.39641365
0.03400000 1555527.48512620 11433.12754321
0.03500000 1550253.88958488 12557.05708550
0.03600000 1544846.58679688 10288.67874355
0.03700000 1539307.19677488 8774.05142739
0.03800000 1533637.48987100 9868.95770405
0.03900000 1527839.35781398 11917.14754283
0.04000000 1521912.92355194 11231.71789628
0.04100000 1515861.84021533 11459.91604338
0.04200000 1509686.98123781 11684.97777688
0.04300000 1503389.30783625 13891.31784921
0.04400000 1496972.47180513 10104.56465396
0.04500000 1490437.79814147 11312.42341352
0.04600000 1483785.10871009 10460.68550269
0.04700000 1477018.67530519 10634.53495679
0.04800000 1470139.14170052 11886.07551369
0.04900000 1463149.93532965 10973.62502577
0.05000000 1456050.80456774 12252.66809100
0.05100000 1448846.34279356 15821.40280033
0.05200000 1441535.05049151 14898.26544111
0.05300000 1434122.49241873 13939.67127615
0.05400000 1426608.93565442 12946.47669481
0.05500000 1418996.76233948 15495.44536760
0.05600000 1411287.23185428 14479.80767451
0.05700000 1403485.17346001 13431.35373697
0.05800000 1395589.90590345 16056.26261712
0.05900000 1387603.57810302 14986.11934345
0.06000000 1379530.46087004 18934.05646002
0.06100000 1371371.35035361 16579.88040058
0.06200000 1363128.64464346 15457.87955281
0.06300000 1354805.85701119 26012.27367083
0.06400000 1346401.35596855 14440.15521808
0.06500000 1337921.26677003 15894.50539274
0.06600000 1329366.67830851 13360.13574210
0.06700000 1320738.80133500 14818.69004448
0.06800000 1312041.28309962 14937.59070730
0.06900000 1303276.52670385 17789.72542240
0.07000000 1294445.16324050 15164.42579749
0.07100000 1285550.40872165 20825.91759673
0.07200000 1276594.64443324 16774.45441368
0.07300000 1267580.48845523 15477.15848923
0.07400000 1258510.17590548 18405.71218519
0.07500000 1249385.50795092 18515.89409572
0.07600000 1240207.61700718 25783.91756634
0.07700000 1230981.44096816 15842.73188810
0.07800000 1221707.44500306 17372.68068266
0.07900000 1212387.68324846 17458.38345764
0.08000000 1203026.59240525 16078.45116175
0.08100000 1193624.43701719 14681.58126414
0.08200000 1184183.25537590 14743.08222125
0.08300000 1174706.90943126 16281.43852884
0.08400000 1165196.43972064 19313.13189490
0.08500000 1155654.69746943 26834.30333498
0.08600000 1146083.03409483 23930.21487546
0.08700000 1136485.75265740 19502.09643137
0.08800000 1126862.10998890 15043.60987486
0.08900000 1117217.53326326 16590.68114822
0.09000000 1107551.57753464 18141.69569223
0.09100000 1097867.46623033 25755.97196781
0.09200000 1088166.61455365 22769.88747942
0.09300000 1078454.86840969 19768.07866689
0.09400000 1068728.01355991 15229.37490897
0.09500000 1058992.27009005 22874.23410910
0.09600000 1049248.51038039 19846.53650679
0.09700000 1039501.38926804 29033.27516719
0.09800000 1029750.54830106 16820.97599738
0.09900000 1019999.23037701 16829.98809261
0.10000000 1010247.56915834 16835.77653176
0.10100000 1000498.33881130 15307.62530376
0.10200000 990754.47231887 22960.73597598
0.10300000 981016.72467228 22955.79243719
0.10400000 971288.64461719 27536.03437033
0.10500000 961572.55987179 15289.00442130
0.10600001 951866.24642536 18332.94476878
0.10700001 942176.32250880 16789.58285719
0.10800001 932502.17922667 16771.05248267
0.10900001 922847.03190706 18272.37209176
0.11000001 913210.94573895 19766.45185092
0.11100001 903596.90398946 16698.47157178
0.11200001 894006.44482377 21214.77393440
0.11300001 884441.21077763 16636.33995798
0.11400001 874903.37145188 15092.08386815
0.11500001 865394.45523649 19575.22349921
0.11600001 855915.91433011 16523.45750426
0.11700001 846469.91539281 19477.27367047
0.11800001 837056.28830179 23906.32871985
0.11900001 827677.56555818 19367.65594631
0.12000001 818334.62039240 19308.60627769
0.12100001 809032.43176628 16285.82361865
0.12200001 799768.40397448 19182.44607304
0.12300001 790546.44723302 17644.99753357
0.12400001 781366.13140791 17580.73878504
0.12500001 772228.68657846 20433.17200969
0.12600001 763138.64782143 20352.90869650
0.12700001 754094.17349956 18822.19145757
0.12800001 745097.35153412 18742.92476118
0.12900001 736150.00898105 18661.40360722
0.13000001 727253.31443388 17148.63396265
0.13100001 718407.54102604 17069.36397939
0.13200001 709614.14658065 18403.84375913
0.13300001 700875.38671554 15496.35553083
0.13400001 692190.39198047 16820.22731813
0.13500001 683562.46668769 15339.14247568
0.13600001 674991.11437364 15258.17485985
0.13700001 666478.05240851 17934.92523600
0.13800001 658022.53551227 17835.70166612
0.13900001 649628.19292619 15006.41196427
0.14000001 641293.70833386 20345.04385638
0.14100001 633021.81994933 14831.70194092
0.14200001 624812.02306841 20103.32779041
0.14300001 616666.02676407 15983.98416765
0.14400001 608581.64340164 14560.31650519
0.14500001 600564.27659977 15782.82993355
0.14600001 592611.94324338 13067.09396495
0.14700001 584726.70964043 19471.40034962
0.14800001 576905.65259472 20630.14711009
0.14900001 569153.33828673 12805.95071565
0.15000001 561468.48246069 20347.61876443
0.15100001 553851.99025429 16416.17376573
0.15200001 546305.60869232 15045.25717333
0.15300001 538828.30062098 14936.32119804
0.15400001 531419.41160761 14826.60228353
0.15500001 524082.28570198 24527.05212836
0.15600001 516814.05335909 14605.16583722
0.15700001 509619.76660598 13285.78794247
0.15800001 502493.68192254 14381.36985541
0.15900001 495441.37618593 19024.94974353
0.16000001 488458.47094277 11796.27263008
0.16100001 481550.39167440 14042.01008407
0.16200001 474713.79070828 13928.10327687
0.16300001 467949.35412015 12662.71012027
0.16400001 461258.02092594 13699.36386824
0.16500001 454638.64769093 13584.60343435
0.16600001 448092.59190372 15714.60794000
0.16700001 441619.20496956 13354.56538881
0.16800001 435218.69485773 13239.35332269
0.16900001 428892.10294042 21873.49828279
0.17000001 422637.06126275 11924.70524661
0.17100001 416455.74728700 11819.01466611
0.17200001 410347.26585815 11713.36325706
0.17300001 404311.03733953 11607.77043019
0.17400001 398348.96082089 11502.32678691
0.17500001 392457.83129248 11396.97595899
0.17600001 386637.98679348 12318.28684102
0.17700001 380893.28650385 12203.82147598
0.17800001 375218.64344892 13097.00736818
0.17900001 369615.77760651 16965.36499347
0.18000001 364085.43050379 12850.39587662
0.18100001 358626.91638208 12727.66986361
0.18200001 353237.33809528 11635.63846650
0.18300001 347919.02494522 14403.84831316
0.18400001 342671.43544369 11410.95933934
0.18500001 337493.81561524 9416.07790050
0.18600001 332386.22240992 10255.77737698
0.18700001 327347.29952326 12000.55256749
0.18800001 322375.72774308 10967.22277598
0.18900001 317476.13298246 9048.07021750
0.19000001 312640.39280862 8957.14767718
0.19100001 307875.12405560 11526.84518929
0.19200001 303175.42459095 9654.62185229
0.19300001 298543.87017311 12162.67784557
0.19400001 293976.99433299 9458.71023962
0.19500001 289476.49723854 9361.67036308
0.19600001 285039.96756752 11792.10401552
0.19700001 280669.97458526 11670.25809476
0.19800001 276362.60721054 9899.30905811
0.19900001 272119.40833854 9796.29916316
0.20000001 267937.50880062 9693.97952656
0.20100001 263819.85724909 10391.86466819
0.20200001 259762.54914977 7909.76999545
0.20300001 255766.97026174 10174.41055790
0.20400001 251832.54638696 9292.62140090
0.20500001 247957.20450444 7661.87798134
0.20600001 244140.78046820 8338.62875104
0.20700001 240383.81904498 8249.97305959
0.20800001 236684.18605077 7420.04958344
0.20900001 233044.40396952 11745.43851529
0.21000001 229458.42742175 10167.30339969
0.21100001 225930.12512577 7184.57831864
0.21200001 222456.09066694 11371.95589250
0.21300001 219037.00743995 7734.19709834
0.21400001 215672.46235223 7650.98096366
0.21500001 212362.36996498 9632.75755702
0.21600001 209103.32663300 8167.57632444
0.21700001 205897.23506911 6732.83990509
0.21800001 202742.49140606 7326.10027334
0.21900001 199638.02427466 8564.47164632
0.22000001 196582.93775354 7168.39716412
0.22100001 193578.87591733 9024.64762198
0.22200001 190622.67330506 7651.59446827
0.22300001 187714.17095258 9460.79466337
0.22400001 184852.53199179 6862.65057470
0.22500001 182039.62628108 8639.60107184
0.22600001 179270.58742397 7324.99654853
0.22700001 176547.89427079 6641.73209655
0.22800001 173869.25496428 7166.89102855
0.22900001 171233.87765604 9452.11049361
0.23000001 168642.28026187 7596.49187365
0.23100001 166094.50596335 5780.08908088
0.23200001 163586.59148960 8004.29230014
0.23300001 161121.11849905 6220.88667946
0.23400001 158695.50361666 5594.01676706
0.23500001 156309.18051423 5533.34525191
0.23600001 153962.63045473 6020.70894869
0.23700001 151654.88526892 5414.07966017
0.23800001 149384.42773800 6426.51838526
0.23900001 147151.51607456 5827.20031218
0.24000001 144954.66257617 6288.13355999
0.24100001 142794.79051252 7256.83159710
0.24200001 140670.35816104 6665.66523676
0.24300001 138579.83396868 5579.22437949
0.24400001 136523.79564429 6020.69967271
0.24500001 134500.61480116 7940.91667350
0.24600001 132510.78552639 4909.52483600
0.24700001 130553.51418577 7770.54553193
0.24800001 128627.77467861 5284.67237267
0.24900001 126732.10905412 6653.43604010
0.25000001 124868.25221251 4701.28991821
0.25100001 123033.29633881 6045.85646811
0.25200001 121229.64657154 6440.93142706
0.25300001 119453.47891558 4551.17776200
0.25400001 117706.55595414 6753.41396738
0.25500001 115985.88736228 5344.62994252
0.25600001 114293.69367500 4846.62430960
0.25700001 112627.35724884 4794.54682493
0.25800001 110987.49704132 5174.23735688
0.25900001 109373.98324206 4692.14410309
0.26000001 107785.08896459 5063.74371915
0.26100001 106220.33828832 6261.68923838
0.26200001 104681.48983770 6194.52745425
0.26300001 103164.51568940 4085.31501461
0.26400001 101672.24139232 6466.35485853
0.26500001 100202.53490123 4397.88946492
0.26600001 98754.87373771  4350.64616839
0.26700001 97329.51279439  4303.91125943
0.26800001 95926.02208167  4257.67669157
0.26900001 94542.92681902  4977.68533257
0.27000001 93181.30287793  4166.60215536
0.27100001 91839.52360640  4121.75801451
0.27200001 90518.54890650  4818.75517908
0.27300001 89216.81334081  5866.89792294
0.27400001 87933.03002352  5440.85649019
0.27500001 86670.17452877  6099.84717201
0.27600001 85423.38744985  3904.27610817
0.27700001 84196.82775545  3862.10867192
0.27800001 82986.96477424  3473.00464017
0.27900001 81795.10866839  3778.93419933
0.28000001 80619.91143487  4417.56825615
0.28100001 79461.81385304  3361.23488507
0.28200001 78320.60735182  5652.00689705
0.28300001 77195.45736114  3617.37930315
0.28400001 76085.76345816  4228.46650432
0.28500001 74992.30005207  3538.88680696
0.28600001 73914.07422034  3500.20115038
0.28700001 72851.65703496  4406.06842602
0.28800001 71802.49016119  3735.16571498
0.28900001 70769.74543523  4002.02929379
0.29000001 69750.65761635  4262.46288870
0.29100001 68746.34732358  3613.30818636
0.29200001 67755.54716508  3573.42772664
0.29300001 66778.74929064  3533.93157974
0.29400001 65814.82507174  2912.30614728
0.29500001 64865.56504379  3168.03434670
0.29600001 63928.04791508  3987.19253721
0.29700001 63004.20137333  3379.54552165
0.29800001 62093.22370365  4177.32182241
0.29900001 61195.11972405  3029.15856974
0.30000001 60308.59838445  3267.52001515
0.30100001 59435.32832584  3769.38870087
0.30200001 58573.13776913  3460.79400893
0.30300001 57723.83368389  3948.31041090
0.30400001 56886.05067272  2602.53694149
0.30500001 56060.42521738  4374.39518681
0.30600001 55245.19866763  3307.25397481
0.30700001 54442.34804815  4778.94953792
0.30800001 53650.37745496  2486.69511277
0.30900001 52869.87011716  2458.44907684
0.31000001 52100.36118538  2916.57835724
0.31100001 51341.34820217  2883.33025155
0.31200001 50594.17304476  3088.01549799
0.31300001 49856.86569125  2583.08433376
0.31400001 49131.61818784  2553.61597622
0.31500001 48415.67045650  2983.37375478
0.31600002 47711.29887422  2495.53960577
0.31700002 47016.49219110  2915.49281881
0.31800002 46332.05076270  3325.48310095
0.31900002 45658.43654115  2629.92606929
0.32000002 44995.09329495  3033.11938263
0.32100002 44341.43176298  2355.86038112
0.32200002 43698.78968726  2964.08904484
0.32300002 43064.37575878  2511.51451317
0.32400002 42441.19535246  3103.51255710
0.32500002 41827.73284410  2249.91385622
0.32600002 41224.23531102  2426.45860530
0.32700002 40630.42987135  2798.62414206
0.32800002 40047.24628955  2964.49754696
0.32900002 39471.76971472  2149.23796274
0.33000002 38907.47132796  2511.28285578
0.33100002 38351.65486857  2482.88625377
0.33200002 37806.85338798  2454.98814100
0.33300002 37270.70616883  2240.71496098
0.33400002 36744.75092097  2031.06620334
0.33500002 36227.70524808  2191.05171716
0.33600002 35719.73624376  2166.75930316
0.33700002 35221.13274789  2321.42496935
0.33800002 34732.71656591  2825.85395363
0.33900002 34252.71880275  1921.57761584
0.34000002 33782.11686914  1900.75089566
0.34100002 33320.76568640  1880.29089673
0.34200002 32869.38115193  2198.46866246
0.34300002 32426.46180358  1673.20550831
0.34400002 31993.27209974  1655.65190957
0.34500002 31568.69037194  1802.25661869
0.34600002 31153.64061081  2594.47531294
0.34700002 30746.62654004  2567.95837025
0.34800002 30349.43558485  2065.43093655
0.34900002 29960.78249494  1887.52938658
0.35000002 29581.36284956  2024.69647613
0.35100002 29211.41918846  1696.59930682
0.35200002 28848.71933771  2444.06361805
0.35300002 28496.13030695  2269.71688645
0.35400002 28151.82973015  1648.99350455
0.35500002 27816.53367761  1633.94326561
0.35600002 27489.24873858  2208.07400951
0.35700002 27170.70555973  1459.06695767
0.35800002 26861.04143910  1591.11386501
0.35900002 26560.46791577  2007.97146954
0.36000002 26268.02320641  1706.89622880
0.36100002 25983.39025514  1975.25742076
0.36200002 25708.68377367  1959.77305689
0.36300002 25440.93207676  1527.98245291
0.36400002 25182.06695104  1654.46187705
0.36500002 24930.57305569  1916.16393582
0.36600002 24688.28131322  1494.99894574
0.36700002 24453.42256615  1619.79478751
0.36800002 24227.52101440  1609.19202200
0.36900002 24009.44646896  1732.28164479
0.37000002 23798.65629734  1324.39528568
0.37100002 23595.73830950  1448.30648604
0.37200002 23401.43052186  1833.03413961
0.37300002 23214.38756280  2213.95624674
0.37400002 23034.93537894  1684.42972938
0.37500002 22863.37273641  1418.44371176
0.37600002 22699.45784968  1797.11616309
0.37700002 22542.74168068  1661.62556800
0.37800002 22393.52710931  1527.68649177
0.37900002 22252.45815709  1395.22919255
0.38000002 22117.71973350  1643.23606545
0.38100002 21989.58201922  1386.00342033
0.38200002 21869.73584323  1633.34129883
0.38300002 21755.99652944  1754.40364325
0.38400002 21649.75764536  1500.32827590
0.38500002 21549.68178203  1622.04462458
0.38600002 21457.32183743  1370.15735084
0.38700002 21370.62628637  1492.52461055
0.38800002 21290.62668453  1490.76975108
0.38900002 21217.06506633  1241.19836518
0.39000002 21150.52352097  1488.57391593
0.39100002 21089.31826403  1364.05716994
0.39200002 21034.85721982  1364.00538104
0.39300002 20986.06664197  1488.33191676
0.39400002 20944.31730441  1489.14103089
0.39500002 20907.18337783  1614.45277693
0.39600002 20876.09097201  1491.80553154
0.39700002 20850.02988660  1618.17089617
0.39800002 20830.68821179  1246.71674854
0.39900002 20815.74913101  1748.52300985
0.40000002 20806.54633153  1376.66520325
0.40100002 20802.13566229  1505.24260784
0.40200002 20803.37522272  2137.85895605
0.40300002 20809.20474488  1513.24544075
0.40400002 20819.88351947  1897.21197560
0.40500002 20834.95902350  1776.38869051
0.40600002 20855.58744081  1400.55704095
0.40700002 20880.11705269  1405.64954659
0.40800002 20908.94918560  1539.31691198
0.40900002 20941.57307934  1931.86020810
0.41000002 20979.12836845  1293.36332520
0.41100002 21020.37354337  1558.87097584
0.41200002 21064.73462819  1826.94452087
0.41300002 21114.20252520  1573.43044673
0.41400002 21166.51377332  1581.13865379
0.41500002 21222.40058029  1456.70564485
0.41600002 21280.80471407  1464.22583773
0.41700002 21343.97401229  1472.09395738
0.41800002 21410.36668906  2018.46241525
0.41900002 21478.19334746  1623.75149401
0.42000002 21549.44144295  1633.01674993
0.42100002 21624.12343220  1505.68778593
0.42200002 21701.26882717  1927.72380126
0.42300002 21780.45543710  1385.23703144
0.42400002 21862.08413694  2508.67427359
0.42500002 21946.37647188  1542.61087531
0.42600002 22031.67914505  2116.69367416
0.42700002 22120.28430195  1562.13455143
0.42800002 22210.05443394  1857.98219172
0.42900002 22302.47054711  1582.36036030
0.43000002 22396.19667435  2027.07985705
0.43100002 22490.15114322  1603.09804946
0.43200002 22586.86768288  1613.71883807
0.43300002 22684.04660203  2215.09725566
0.43400002 22782.98287367  1932.56661384
0.43500002 22882.36772202  1646.15761193
0.43600002 22983.48275184  1807.88083893
0.43700002 23084.68609813  2123.32952793
0.43800002 23186.17285058  1679.49051002
0.43900002 23289.37253923  1690.80852648
0.44000002 23392.28184177  1856.87942060
0.44100002 23495.91795403  2648.22503810
0.44200002 23599.67819723  2509.11790484
0.44300002 23703.76059921  2052.27168994
0.44400002 23807.62385430  2065.90665786
0.44500002 23910.97823789  1759.60897192
0.44600002 24014.08948583  1932.17373160
0.44700002 24117.94100175  1944.87085455
0.44800002 24220.29658563  2446.85557852
0.44900002 24322.71704453  1970.14017398
0.45000002 24424.94259578  2313.28642288
0.45100002 24525.53057243  1829.11415678
0.45200002 24625.85926562  2007.99265968
0.45300002 24724.97885043  2694.03382322
0.45400002 24823.29517645  2033.02797130
0.45500002 24920.82729233  2215.96006786
0.45600002 25016.77362652  2229.36988739
0.45700002 25111.87466178  1897.70445813
0.45800002 25205.21419584  1735.37907963
0.45900002 25297.24683034  1920.06112542
0.46000002 25388.24412642  1931.15688100
0.46100002 25476.83438338  2471.76258902
0.46200002 25564.47977394  1952.99852489
0.46300002 25650.28735438  3213.46815206
0.46400002 25733.71185387  1974.41913557
0.46500002 25816.52325575  2526.40508555
0.46600002 25896.20812343  2539.64125103
0.46700002 25974.12303165  2552.73693254
0.46800002 26050.59932408  2015.92572424
0.46900002 26124.31532930  2025.94074981
0.47000002 26195.95247230  1850.74412989
0.47100002 26265.62720982  1859.60649459
0.47200002 26333.09473767  2055.16647621
0.47300002 26398.10603915  1876.90542834
0.47400002 26460.21085431  2450.87714655
0.47500002 26520.33339694  2082.90708372
0.47600002 26578.68497323  2091.87549997
0.47700002 26633.34087433  2100.57169432
