# SAXS profile: number of points = 501, q_min = 0, q_max = 0.5, delta_q = 0.001
#    q    intensity    error
0.00000000 1664650.74656090 349.57665678
0.00100000 1664569.15522537 549.30783427
0.00200000 1664324.31130998 823.84056019
0.00300000 1663916.44843183 998.34990462
0.00400000 1663345.42910109 2120.76550269
0.00500000 1662611.77016550 1645.98571761
0.00600000 1661715.36133287 1919.28132048
0.00700000 1660656.78669647 2590.62469491
0.00800000 1659435.84784299 2464.26233809
0.00900000 1658053.76764756 3730.62113668
0.01000000 1656509.97059423 3553.21404035
0.01100000 1654805.71856681 4765.84067697
0.01200000 1652940.91979763 5479.49938937
0.01300000 1650916.69277246 4160.31024928
0.01400000 1648733.13722070 4080.61469552
0.01500000 1646391.61219451 4741.60805426
0.01600000 1643891.56385850 5030.30841028
0.01700000 1641235.26402521 4431.33541165
0.01800000 1638422.55165201 5136.45493056
0.01900000 1635454.19725381 6868.90793841
0.02000000 1632331.42704259 5656.02865056
0.02100000 1629055.98962797 5913.47351046
0.02200000 1625626.76796251 6730.09512513
0.02300000 1622046.84258485 6423.30578901
0.02400000 1618315.67992943 6068.68407645
0.02500000 1614435.93990456 8185.19058914
0.02600000 1610407.53070212 7174.36587742
0.02700000 1606232.64147784 9444.64836447
0.02800000 1601911.11490291 8361.97640327
0.02900000 1597445.40373348 8626.20557623
0.03000000 1592837.03292729 8888.03105228
0.03100000 1588086.20196819 8385.09553222
0.03200000 1583194.29240743 9404.17453004
0.03300000 1578165.22946525 8048.64304132
0.03400000 1572997.21190941 12387.35361534
0.03500000 1567693.33063344 9312.09881398
0.03600000 1562254.96011073 9537.56697224
0.03700000 1556683.62834671 8873.09709193
0.03800000 1550981.12684549 11795.21201554
0.03900000 1545149.48324758 14833.43572611
0.04000000 1539188.57367588 10412.61118343
0.04100000 1533102.26756004 10624.39920681
0.04200000 1526891.52362201 14772.67617639
0.04300000 1520557.02140628 12042.81216854
0.04400000 1514102.57121057 12264.23139638
0.04500000 1507529.49237482 11442.14937878
0.04600000 1500837.69593940 11638.99687307
0.04700000 1494031.25221290 13984.13317109
0.04800000 1487111.01372264 12023.29310537
0.04900000 1480080.40129587 14430.78458435
0.05000000 1472939.08848740 12394.78300680
0.05100000 1465691.60577543 16005.35308066
0.05200000 1458336.51113035 17390.66370566
0.05300000 1450879.46629129 15277.76149226
0.05400000 1443320.70485604 14288.87564442
0.05500000 1435662.50884943 13265.52220060
0.05600000 1427906.35289108 12208.59988692
0.05700000 1420057.04103926 12354.49683373
0.05800000 1412113.42183914 13746.92480348
0.05900000 1404078.49953223 13900.37779460
0.06000000 1395955.82606915 15327.59568633
0.06100000 1387746.41175436 24521.48024162
0.06200000 1379452.94076380 16946.58016943
0.06300000 1371078.51083644 14478.58975138
0.06400000 1362621.68385901 17271.23065063
0.06500000 1354088.75886917 17427.12314185
0.06600000 1345480.56244332 16226.49634228
0.06700000 1336798.62579442 16362.41594547
0.06800000 1328046.10973628 20617.91681876
0.06900000 1319225.78150124 15237.05848972
0.07000000 1310338.34364401 25119.18722395
0.07100000 1301386.83943015 15460.47637656
0.07200000 1292373.68519208 19812.08952213
0.07300000 1283301.57244969 15669.11293380
0.07400000 1274172.61321669 20068.21959864
0.07500000 1264988.71335561 24515.48241393
0.07600000 1255751.08461552 14503.92570726
0.07700000 1246464.51854401 14583.63555077
0.07800000 1237129.57854054 17591.98343184
0.07900000 1227748.36339490 22099.47157766
0.08000000 1218325.13337753 16282.91617144
0.08100000 1208860.47461298 25277.27371012
0.08200000 1199356.29169292 19411.58249194
0.08300000 1189816.20381333 19489.19033313
0.08400000 1180241.51067376 27086.54394137
0.08500000 1170634.94307507 19631.54891697
0.08600000 1160998.30732313 22726.54293290
0.08700000 1151335.36644499 16717.39030579
0.08800000 1141645.45448655 22861.45129975
0.08900000 1131934.21536041 24449.78020018
0.09000000 1122201.09514954 19913.45936887
0.09100000 1112449.42785684 16886.98310824
0.09200000 1102680.62793331 16920.63503068
0.09300000 1092900.15999225 15409.89298003
0.09400000 1083104.25661135 16977.66002029
0.09500000 1073299.11177466 17001.05872961
0.09600000 1063485.61859922 17021.08812580
0.09700000 1053668.25476449 20135.60129518
0.09800000 1043846.97897786 17051.24120331
0.09900000 1034024.47976422 17061.40471838
0.10000000 1024201.38357318 24826.64270534
0.10100000 1014380.22283087 17072.01995317
0.10200000 1004564.27147916 20176.67434170
0.10300000 994754.13942574 26380.88101855
0.10400000 984953.08412031 21718.21652659
0.10500000 975163.81790784 15505.10543424
0.10600001 965383.81181696 26340.49854484
0.10700001 955620.22262782 17029.15316858
0.10800001 945871.75633880 18558.00473274
0.10900001 936142.04050191 21624.88215338
0.11000001 926431.37065213 18510.09965689
0.11100001 916742.15040826 18481.52262222
0.11200001 907076.36600456 16912.43964034
0.11300001 897435.38189587 19949.98947881
0.11400001 887821.60843671 16846.41581329
0.11500001 878236.67878233 18337.58271645
0.11600001 868681.64169267 15245.36352963
0.11700001 859159.07645674 16727.82800641
0.11800001 849668.45650625 21233.21572814
0.11900001 840212.68804465 18148.59491659
0.12000001 830792.30038562 22618.32144343
0.12100001 821412.63581557 22547.77791532
0.12200001 812070.78932132 16480.97744572
0.12300001 802771.15168850 14931.54412490
0.12400001 793512.67454483 17854.03601850
0.12500001 784297.06827540 17787.85834666
0.12600001 775128.61154603 17719.44089494
0.12700001 766005.72982879 14707.31070581
0.12800001 756930.06479433 21969.89616608
0.12900001 747904.06580557 20417.78195882
0.13000001 738928.43472853 15971.93886949
0.13100001 730003.38889137 21681.10167207
0.13200001 721131.09691581 14386.56606166
0.13300001 712312.96684246 17180.98957020
0.13400001 703548.66860078 17096.23345301
0.13500001 694841.32857715 19844.66927980
0.13600001 686190.80483364 18331.58821548
0.13700001 677598.06315012 18234.16473917
0.13800001 669062.87758839 20924.94248331
0.13900001 660588.99268171 18034.08035067
0.14000001 652174.86040404 13793.49894805
0.14100001 643823.23210670 15084.77903970
0.14200001 635533.62695787 17721.85602358
0.14300001 627308.18516757 13549.85743873
0.14400001 619143.82912980 17506.29259441
0.14500001 611046.95148734 13381.92886883
0.14600001 603014.78425503 14626.12428208
0.14700001 595049.94395511 21136.17500642
0.14800001 587149.48166636 23621.02476185
0.14900001 579317.44771256 14338.10750737
0.15000001 571552.93546227 15534.80951884
0.15100001 563857.16984854 17998.32171082
0.15200001 556231.26117713 14042.05885102
0.15300001 548674.82424496 22813.90026867
0.15400001 541186.52839143 15099.10485466
0.15500001 533770.46638742 14988.27540350
0.15600001 526422.98396261 17356.16660037
0.15700001 519149.79877083 12303.85081157
0.15800001 511944.87361433 17093.84013679
0.15900001 504813.77980529 12115.53128719
0.16000001 497752.32329164 16829.00684486
0.16100001 490765.66914959 15503.28822026
0.16200001 483850.69799040 16562.21017405
0.16300001 477007.99190814 14081.27658587
0.16400001 470238.83938515 15129.93537150
0.16500001 463541.47782153 23084.36668536
0.16600001 456918.04723935 13734.95714848
0.16700001 450366.88718314 17023.86913930
0.16800001 443889.01470921 14628.36317044
0.16900001 437485.44418416 15618.23109484
0.17000001 431153.40427119 16588.62801264
0.17100001 424895.52716832 15347.22716604
0.17200001 418710.38395440 16298.30246508
0.17300001 412598.04465995 12922.57136901
0.17400001 406559.68752576 11739.41153171
0.17500001 400592.81506075 10575.65081707
0.17600001 394697.45182116 13622.98319301
0.17700001 388877.48976460 13497.93830725
0.17800001 383127.70745335 12344.37531720
0.17900001 377449.98320051 11210.26503056
0.18000001 371845.17290630 14133.83568978
0.18100001 366312.34769956 14000.45859041
0.18200001 360848.66643053 10895.82599757
0.18300001 355456.77718834 16678.03277354
0.18400001 350135.54812125 15546.01907099
0.18500001 344884.78837160 14433.42907522
0.18600001 339704.42561561 9528.70958869
0.18700001 334592.81355988 13209.72490343
0.18800001 329548.96794097 11211.25641904
0.18900001 324577.54257173 14800.73664057
0.19000001 319670.26844017 9158.55362354
0.19100001 314833.68910429 12694.09494448
0.19200001 310063.03836248 9873.95792321
0.19300001 305360.94704921 9774.60437692
0.19400001 300723.71034448 12314.63652052
0.19500001 296153.26740483 12189.66906241
0.19600001 291647.19262296 12065.44492898
0.19700001 287207.94098343 10236.09150038
0.19800001 282831.91201330 9286.78626984
0.19900001 278520.11523761 9191.16423722
0.20000001 274270.25221365 8269.24849506
0.20100001 270084.77637370 13093.71057744
0.20200001 265960.23391806 11337.88530779
0.20300001 261897.71186405 8815.47739800
0.20400001 257896.43034383 10309.41029028
0.20500001 253954.95252600 7847.20840397
0.20600001 250072.87664548 11647.14478030
0.20700001 246250.25101872 7683.00819495
0.20800001 242485.83216064 9882.51055686
0.20900001 238781.27805498 12786.73804429
0.21000001 235131.12665921 7441.90051056
0.21100001 231539.17476663 8835.53532678
0.21200001 228001.66034879 7284.65339252
0.21300001 224519.62663608 7927.78839131
0.21400001 221092.47924697 9269.30263065
0.21500001 217720.39830777 11286.62598188
0.21600001 214399.65465038 6978.70908881
0.21700001 211132.34887825 9665.63938863
0.21800001 207916.77687318 8196.07973186
0.21900001 204751.78980477 8108.17125964
0.22000001 201636.68352919 8689.53328755
0.22100001 198573.19496266 7273.73647541
0.22200001 195557.98197642 8503.83924834
0.22300001 192590.86419033 7118.15867706
0.22400001 189670.99420726 7041.53599291
0.22500001 186800.41340141 6965.78774513
0.22600001 183974.03947099 8770.04287630
0.22700001 181194.67580008 7436.22984649
0.22800001 178459.48170122 6743.09183496
0.22900001 175768.25272655 7276.80600701
0.23000001 173121.28428071 8398.11389762
0.23100001 170518.38984742 7120.84829679
0.23200001 167956.01572630 8218.08823815
0.23300001 165436.53337776 8129.55163467
0.23400001 162957.19033250 6893.08947708
0.23500001 160517.71384961 6818.79280683
0.23600001 158118.67252029 6183.23098135
0.23700001 155758.46441019 5560.57744245
0.23800001 153436.30129854 6600.82999407
0.23900001 151152.21210998 5985.62788267
0.24000001 148904.40855824 7536.05247359
0.24100001 146694.29129365 8520.00484134
0.24200001 144519.99647310 5267.75412062
0.24300001 142380.09249994 5732.22279520
0.24400001 140274.99012064 5670.61674387
0.24500001 138203.39303109 6629.61707731
0.24600001 136165.48402747 6053.91770624
0.24700001 134160.72039109 5489.85693811
0.24800001 132188.01035581 5924.66690442
0.24900001 130245.49035728 6837.88856724
0.25000001 128335.59020906 6281.38575994
0.25100001 126455.08855879 4780.00257366
0.25200001 124606.21299733 4728.80600697
0.25300001 122785.23518981 4678.11768206
0.25400001 120994.07832504 5090.82608638
0.25500001 119229.55166054 5951.93950049
0.25600001 117494.09996414 4529.39776792
0.25700001 115784.89600112 4928.96325597
0.25800001 114102.53050197 4432.88351974
0.25900001 112447.27917105 5262.53291420
0.26000001 110816.71838414 4772.32220302
0.26100001 109211.21047414 5579.60100713
0.26200001 107631.61735562 4670.67425615
0.26300001 106074.66763456 5040.66844451
0.26400001 104542.56911011 7480.02117377
0.26500001 103033.78573112 5344.36271876
0.26600001 101547.30979390 5693.75792957
0.26700001 100083.80664728 4425.70613937
0.26800001 98642.49176135  5174.29215019
0.26900001 97221.97180333  5906.23506654
0.27000001 95823.38310140  4284.74277814
0.27100001 94445.19392671  4238.70050402
0.27200001 93088.13539437  6099.13491967
0.27300001 91750.76194897  3770.95649456
0.27400001 90431.89708067  4476.37911734
0.27500001 89134.13376205  5166.21463734
0.27600001 87853.21535448  4745.39165195
0.27700001 86592.81604610  6860.74914003
0.27800001 85349.58161549  4286.25619159
0.27900001 84124.65232048  4239.88267762
0.28000001 82916.87903054  3494.94661655
0.28100001 81726.69048818  4148.44700552
0.28200001 80553.72762452  4103.40707941
0.28300001 79397.31702510  4397.02362496
0.28400001 78256.67525392  3680.02032799
0.28500001 77132.78850656  5294.39485368
0.28600001 76024.47834674  4909.28092161
0.28700001 74932.45077127  3884.49843185
0.28800001 73854.02231580  3201.57201893
0.28900001 72792.47992723  3799.76763206
0.29000001 71744.86772870  4384.32907443
0.29100001 70712.49735470  3097.20753074
0.29200001 69694.01179421  3981.96755235
0.29300001 68690.05015544  3635.07762630
0.29400001 67699.21720413  3894.39765401
0.29500001 66723.36901654  3258.76949703
0.29600001 65759.87854253  4687.36436440
0.29700001 64810.11025111  2897.01206536
0.29800001 63873.88266479  3151.21815044
0.29900001 62950.80095849  2832.78617723
0.30000001 62039.63346940  3361.30750050
0.30100001 61142.07636173  4154.60428546
0.30200001 60256.07129967  4929.54942639
0.30300001 59383.10920067  3249.44388929
0.30400001 58522.16796038  3212.86717313
0.30500001 57673.72808611  3706.11394227
0.30600001 56836.01899744  2879.02867862
0.30700001 56011.05185151  2587.71071805
0.30800001 55197.24960590  2558.39264036
0.30900001 54395.27484583  3035.25648010
0.31000001 53604.72669568  2750.72668062
0.31100001 52824.90590920  3213.86742768
0.31200001 52057.16965556  3177.30950036
0.31300001 51299.69400904  2899.45884267
0.31400001 50554.60356724  4060.79872380
0.31500001 49818.98125131  3305.98775237
0.31600002 49095.45304147  3268.28446372
0.31700002 48381.77718486  2769.37305719
0.31800002 47678.74318417  3650.28475102
0.31900002 46986.83354810  3383.05217565
0.32000002 46305.38508127  2675.52527668
0.32100002 45633.98991981  2424.53399924
0.32200002 44974.01050267  2614.78909444
0.32300002 44322.49327959  2584.88793046
0.32400002 43682.56270229  2129.52503257
0.32500002 43052.41184980  2947.36825480
0.32600002 42432.51921121  2289.44668245
0.32700002 41822.73787821  2880.75032146
0.32800002 41223.81965501  3458.47251373
0.32900002 40632.84008133  2011.32567927
0.33000002 40053.19224083  2187.50519782
0.33100002 39482.31987070  2162.84158494
0.33200002 38922.79689420  2333.03255632
0.33300002 38372.15157147  2114.68937325
0.33400002 37831.90034513  2471.36900708
0.33500002 37300.88076213  2255.95737533
0.33600002 36779.10764779  2231.02077557
0.33700002 36266.95423032  2206.48159987
0.33800002 35765.14828972  2364.25523966
0.33900002 35272.02403398  1798.87331092
0.34000002 34788.50618440  2313.26182828
0.34100002 34314.56957011  1936.37125255
0.34200002 33850.64844261  2612.42391728
0.34300002 33395.37155378  2240.16162992
0.34400002 32950.12017318  2728.27007955
0.34500002 32513.66048463  2699.93449451
0.34600002 32087.05490268  2171.17067282
0.34700002 31668.55704257  2644.95800946
0.34800002 31260.04722127  1636.46354954
0.34900002 30860.25100709  1944.19590553
0.35000002 30469.95913237  1764.66776673
0.35100002 30089.26927426  2383.07023939
0.35200002 29716.03650781  2202.84989066
0.35300002 29353.08930099  1714.51402728
0.35400002 28998.46092678  1544.16811749
0.35500002 28653.08469564  1683.08227474
0.35600002 28315.86216808  1819.57738910
0.35700002 27987.61824296  2254.40275625
0.35800002 27668.37524520  1936.92470078
0.35900002 27358.37182480  1477.35214851
0.36000002 27056.63141438  1611.62832653
0.36100002 26762.81772345  2470.47582107
0.36200002 26479.18916161  1730.15030177
0.36300002 26202.43202577  1573.71814201
0.36400002 25934.89430241  1987.90974244
0.36500002 25674.73094933  1691.45135506
0.36600002 25424.01947936  2239.34774182
0.36700002 25180.78346310  1667.97517560
0.36800002 24946.66984132  1795.03771346
0.36900002 24720.43914797  1646.38132524
0.37000002 24501.57433340  1636.21521149
0.37100002 24290.74735067  1355.42376637
0.37200002 24088.68578567  1886.86684697
0.37300002 23894.00272537  1608.54433967
0.37400002 23706.84913082  1333.51032678
0.37500002 23527.80529459  1326.96828147
0.37600002 23356.50756738  1452.89162205
0.37700002 23192.62303163  1446.52396701
0.37800002 23036.09615551  1440.56234133
0.37900002 22887.92499523  1565.53414384
0.38000002 22746.11370506  1819.91664376
0.38100002 22610.97737290  1554.73087781
0.38200002 22484.26522752  1291.72109851
0.38300002 22363.80953471  1932.23323534
0.38400002 22250.82012245  1798.97889212
0.38500002 22144.00421145  2051.42064733
0.38600002 22045.11166036  1535.66255101
0.38700002 21951.89345931  1405.36028584
0.38800002 21865.43333383  1658.60252411
0.38900002 21785.51443782  1401.89792049
0.39000002 21712.50821167  1273.43866694
0.39100002 21645.04384644  1527.27436616
0.39200002 21584.48806982  1526.88675840
0.39300002 21529.47687387  1526.87057223
0.39400002 21481.62613916  1527.34369086
0.39500002 21438.40426066  1273.44127342
0.39600002 21401.21817978  1401.88686328
0.39700002 21369.23893254  2041.18979954
0.39800002 21343.98006088  1277.43726717
0.39900002 21323.11684749  1791.14190005
0.40000002 21308.04312458  2050.68616747
0.40100002 21297.73037900  1412.67852297
0.40200002 21293.18902522  1802.04267258
0.40300002 21293.31190021  1548.44971475
0.40400002 21298.27584024  1682.03141418
0.40500002 21307.65716983  2076.21821300
0.40600002 21322.64321001  1562.09691558
0.40700002 21341.40414674  1959.14099350
0.40800002 21364.64623316  1572.86533021
0.40900002 21391.74149200  1841.82902973
0.41000002 21423.69333039  3037.77273972
0.41100002 21459.44517133  1458.81315187
0.41200002 21498.21372907  1598.17728434
0.41300002 21542.21006795  1471.54843947
0.41400002 21589.01784635  1881.48299446
0.41500002 21639.44836627  1755.39213465
0.41600002 21692.28463975  2306.64919647
0.41700002 21749.96528123  1772.83975408
0.41800002 21810.97710054  1919.14796601
0.41900002 21873.32482489  1791.42538804
0.42000002 21939.14848229  1524.00302154
0.42100002 22008.49187836  1811.07888249
0.42200002 22080.14333033  1541.08367676
0.42300002 22153.91963980  1549.88829144
0.42400002 22230.16467511  1558.89037171
0.42500002 22309.16443789  1568.11124265
0.42600002 22389.04230670  1577.42005047
0.42700002 22472.19488968  1875.52947437
0.42800002 22556.54249364  1596.66493607
0.42900002 22643.55730128  1752.61141817
0.43000002 22731.94960898  1616.58267305
0.43100002 22820.53799504  2070.27930502
0.43200002 22911.81810439  1785.74718768
0.43300002 23003.65759563  1946.79963457
0.43400002 23097.24240028  2260.64270705
0.43500002 23191.23038452  2123.38915463
0.43600002 23287.02268958  1679.11085060
0.43700002 23382.79391770  1689.87459651
0.43800002 23478.90102044  2009.91141710
0.43900002 23576.67534483  2022.87884045
0.44000002 23674.24185755  1722.65629040
0.44100002 23772.46464567  1733.72592877
0.44200002 23870.79840025  1744.83609175
0.44300002 23969.50420801  1756.00596150
0.44400002 24067.93928414  1606.53502335
0.44500002 24165.89394829  1940.03805811
0.44600002 24263.58000528  1789.56042810
0.44700002 24362.04843264  1637.12973226
0.44800002 24458.95344615  1812.04165193
0.44900002 24555.94516978  2486.28956627
0.45000002 24652.75235834  1834.53465369
0.45100002 24747.98653895  2684.66170698
0.45200002 24842.86436273  2025.68725614
0.45300002 24936.54354053  2207.63230427
0.45400002 25029.43987272  1879.08528750
0.45500002 25121.56642717  1890.14674756
0.45600002 25212.08350325  2419.60376848
0.45700002 25301.77654786  1738.23213122
0.45800002 25389.65771952  1922.88581852
0.45900002 25476.21798582  2812.57459893
0.46000002 25561.80699729  2121.11884516
0.46100002 25644.93482441  2132.63288107
0.46200002 25727.18521852  1965.42840792
0.46300002 25807.52725084  1975.82437997
0.46400002 25885.56561717  2527.72560232
0.46500002 25962.94659844  2540.73407454
0.46600002 26037.21187275  2371.07881157
0.46700002 26109.69118503  2932.64065290
0.46800002 26180.79256517  2210.18261311
0.46900002 26249.07486908  2405.72782577
0.47000002 26315.26391353  1859.17348361
0.47100002 26379.56061429  2054.44027801
0.47200002 26441.67170538  2251.24403570
0.47300002 26501.33058640  2449.51810220
0.47400002 26557.98518363  2081.48218742
0.47500002 26612.73151686  1900.14912037
0.47600002 26665.78752414  2861.90578168
0.47700002 26715.06594475  2681.65844664
