# SAXS profile: number of points = 501, q_min = 0, q_max = 0.5, delta_q = 0.001
#    q    intensity    error
0.00000000 1664650.74656090 299.63713438
0.00100000 1664568.97067781 749.05605459
0.00200000 1664323.57895762 1048.52388794
0.00300000 1663914.80096233 1098.18380776
0.00400000 1663342.51236616 1497.00831801
0.00500000 1662607.20438827 1496.34654318
0.00600000 1661708.78945537 2617.19144994
0.00700000 1660647.82987255 2391.33297440
0.00800000 1659424.17334933 3360.33409291
0.00900000 1658038.99713675 2984.47032243
0.01000000 1656491.75133220 3826.49611080
0.01100000 1654783.67685371 4170.05504723
0.01200000 1652914.69494104 3545.50217610
0.01300000 1650885.97775533 4506.91891805
0.01400000 1648697.53057978 4451.48352990
0.01500000 1646350.81462766 4741.49055726
0.01600000 1643845.16424972 4610.98589185
0.01700000 1641182.94730890 6203.67181912
0.01800000 1638363.99971827 7470.94017489
0.01900000 1635389.03218433 6378.01751331
0.02000000 1632259.28959069 6169.94039375
0.02100000 1628976.65335064 5913.18551976
0.02200000 1625539.82807761 6729.73519399
0.02300000 1621951.96535517 7590.73554338
0.02400000 1618212.58020646 7281.95694297
0.02500000 1614324.25265577 8814.21082205
0.02600000 1610286.96293842 9782.49374729
0.02700000 1606102.89187950 8769.32219131
0.02800000 1601771.83391810 8361.24935650
0.02900000 1597296.34265388 11500.53419515
0.03000000 1592677.88262394 8146.54774408
0.03100000 1587916.59748660 7622.00001865
0.03200000 1583014.04189465 11753.87980243
0.03300000 1577974.01027494 9657.20138808
0.03400000 1572794.70393784 9082.88983433
0.03500000 1567479.34169418 9310.82771962
0.03600000 1562029.04708274 10403.11393434
0.03700000 1556445.82927645 10646.08996461
0.03800000 1550730.95825990 9071.77652566
0.03900000 1544886.74752927 13903.98137166
0.04000000 1538912.98861984 13250.04144601
0.04100000 1532813.60934777 10622.39880530
0.04200000 1526589.51411796 12800.45366973
0.04300000 1520241.56549109 11036.95427778
0.04400000 1513773.39185213 10217.97086954
0.04500000 1507186.33511053 11439.54481503
0.04600000 1500480.22736282 13751.90192306
0.04700000 1493659.48428373 11829.78366571
0.04800000 1486724.53380400 10927.42583189
0.04900000 1479679.20394232 16646.39181920
0.05000000 1472522.93144506 13517.76114014
0.05100000 1465260.43111286 11429.03189509
0.05200000 1457889.76495702 13908.26900583
0.05300000 1450417.47536670 11748.38209815
0.05400000 1442843.04291522 13093.80122507
0.05500000 1435169.17230963 14466.50593173
0.05600000 1427396.91541859 12204.24419633
0.05700000 1419531.53005141 13584.91737672
0.05800000 1411571.78224296 18738.61628423
0.05900000 1403520.42579072 17684.35819093
0.06000000 1395381.16003794 14044.51203192
0.06100000 1387155.46448968 12900.54642261
0.06200000 1378845.26316478 16939.11484977
0.06300000 1370454.18697322 13156.36081007
0.06400000 1361980.49407014 22574.82774496
0.06500000 1353430.60782297 18758.54910191
0.06600000 1344805.43819471 13515.29528622
0.06700000 1336106.37730848 17716.77139224
0.06800000 1327336.92505282 19233.11294430
0.06900000 1318499.33680489 15228.66805309
0.07000000 1309594.74768194 18131.34013072
0.07100000 1300626.11219954 16856.11520361
0.07200000 1291595.76732911 15557.27174629
0.07300000 1282506.22632285 14235.81977921
0.07400000 1273360.13399750 14325.30217881
0.07500000 1264158.94112271 18734.83638559
0.07600000 1254903.94692156 15943.55539308
0.07700000 1245600.30147705 21860.28631592
0.07800000 1236248.19907894 20509.35858453
0.07900000 1226849.73025238 14722.19745355
0.08000000 1217409.36318911 17749.82934796
0.08100000 1207927.62296797 16343.26150555
0.08200000 1198406.39251047 16412.17631558
0.08300000 1188849.29550859 17975.40219171
0.08400000 1179257.64833768 24056.85715529
0.08500000 1169634.33032216 15088.28356948
0.08600000 1159980.96917834 18165.30283022
0.08700000 1150301.19659916 18220.77180974
0.08800000 1140594.82087221 33499.27146227
0.08900000 1130867.20025135 18320.04950456
0.09000000 1121117.77763208 22954.88757533
0.09100000 1111349.79327629 16870.29065452
0.09200000 1101565.02724415 18440.19942251
0.09300000 1091768.50096157 15393.93658695
0.09400000 1081956.87213287 30835.77230499
0.09500000 1072135.97431050 18526.51050688
0.09600000 1062307.22341683 18547.88499275
0.09700000 1052474.46432357 26301.33809994
0.09800000 1042637.94411890 21676.44387741
0.09900000 1032800.57129715 23238.01394689
0.10000000 1022962.57574447 24796.61400216
0.10100000 1013126.93807203 17050.92716969
0.10200000 1003296.38754028 21701.30188325
0.10300000 993472.11524297 18597.79887220
0.10400000 983657.21718203 17041.86208941
0.10500000 973854.17049288 18581.13844723
0.10600001 964060.47697450 15473.17138351
0.10700001 954283.72940472 17005.33685822
0.10800001 944521.91058181 16987.22736126
0.10900001 934779.61356068 16966.25078465
0.11000001 925056.18041197 15402.18612883
0.11100001 915354.89179011 16915.75919656
0.11200001 905676.96220788 15351.22523212
0.11300001 896024.08735124 21450.81766111
0.11400001 886398.87483170 21406.53383510
0.11500001 876802.79744499 19833.28021212
0.11600001 867236.67311308 21308.00606181
0.11700001 857703.44150855 15181.35162967
0.11800001 848202.47340594 18168.49783606
0.11900001 838736.40329579 21136.15835860
0.12000001 829306.41210049 21072.67692410
0.12100001 819917.20255009 19505.83116755
0.12200001 810566.42040557 17945.94139324
0.12300001 801257.72145561 14903.39432124
0.12400001 791990.69717006 20789.75678027
0.12500001 782767.06486404 16273.72804535
0.12600001 773590.58586109 19157.97176164
0.12700001 764460.14462773 26419.74384340
0.12800001 755377.37883554 16078.20826627
0.12900001 746344.39902846 17464.45976040
0.13000001 737362.35736431 17387.00520618
0.13100001 728430.85916620 14422.93169135
0.13200001 719552.95912712 17226.09865355
0.13300001 710729.27039115 18571.35671083
0.13400001 701960.06398348 17057.63035899
0.13500001 693247.91919586 15556.48404022
0.13600001 684592.74437369 14068.38156021
0.13700001 675996.13325196 13993.12061814
0.13800001 667457.35452089 16699.78379760
0.13900001 658979.91110939 15222.43666449
0.14000001 650562.91502125 17887.22819208
0.14100001 642208.89895823 17782.76525084
0.14200001 633916.97861119 16317.02379905
0.14300001 625689.61623432 16217.87561775
0.14400001 617523.98673712 17460.49154860
0.14500001 609425.96988881 13346.42937014
0.14600001 601393.13362645 14586.79114423
0.14700001 593427.75110020 17126.32570471
0.14800001 585527.30306700 17012.49659324
0.14900001 577695.77094422 16897.60209736
0.15000001 569932.33898279 14199.86489575
0.15100001 562237.53568170 15382.81970209
0.15200001 554613.21810272 15274.04874729
0.15300001 547058.74322428 15164.46907777
0.15400001 539572.77724750 16308.58796192
0.15500001 532159.25047616 19924.04327810
0.15600001 524815.05147796 16067.21355929
0.15700001 517545.32716471 12265.82483271
0.15800001 510344.18309307 17040.39307776
0.15900001 503217.37734560 13284.93938898
0.16000001 496160.42877751 11982.27492057
0.16100001 489178.86863195 13075.75177576
0.16200001 482269.35019207 14149.78340259
0.16300001 475432.30959388 12865.19890495
0.16400001 468669.15501683 15079.43077456
0.16500001 461978.27702539 18405.21542563
0.16600001 455361.53324210 12547.48764089
0.16700001 448817.35479391 13572.23744978
0.16800001 442347.26331379 13456.20438536
0.16900001 435951.54667097 14451.79445453
0.17000001 429627.95698079 13223.94914030
0.17100001 423378.55372245 13107.80064221
0.17200001 417202.27277330 16239.59923458
0.17300001 411099.20508463 13948.59668724
0.17400001 405070.53682862 17012.96335026
0.17500001 399113.63914015 11590.26062801
0.17600001 393228.64465972 11484.24310968
0.17700001 387419.35281548 12412.91665048
0.17800001 381680.54453248 15372.18465711
0.17900001 376014.29955159 12182.86388091
0.18000001 370421.00825394 16091.08935861
0.18100001 364900.06725008 12950.30399843
0.18200001 359448.68667959 10853.55360699
0.18300001 354069.39100468 10749.54721870
0.18400001 348760.90380766 12581.55019922
0.18500001 343523.66540844 9584.31071768
0.18600001 338356.58530949 11389.08319958
0.18700001 333258.68317940 11277.47437159
0.18800001 328229.08978338 11166.35416200
0.18900001 323271.86215672 12898.54790948
0.19000001 318379.23788953 10033.72215617
0.19100001 313557.48821559 15351.77534841
0.19200001 308801.81977391 9833.79441536
0.19300001 304115.37752530 8849.75790416
0.19400001 299493.77104724 9636.21253879
0.19500001 294939.22193098 10405.45624144
0.19600001 290449.40384033 14590.72649142
0.19700001 286026.54118875 12742.48301214
0.19800001 281667.07047004 10089.31494105
0.19900001 277372.27476701 9153.28549990
0.20000001 273139.49889746 12352.73442144
0.20100001 268971.26248888 11409.76149403
0.20200001 264864.05566799 10484.64413916
0.20300001 260819.46157596 9577.29108174
0.20400001 256836.14789424 9477.25430525
0.20500001 252912.69479491 9378.00316626
0.20600001 249048.97472359 13146.05075217
0.20700001 245244.81889351 9181.96645340
0.20800001 241498.89338903 8328.08973219
0.20900001 237813.36254328 12734.90616619
0.21000001 234182.00744447 8894.23306319
0.21100001 230609.09693623 11000.05444387
0.21200001 227091.16262775 12334.45708123
0.21300001 223628.49791230 8614.17014682
0.21400001 220220.75695582 7102.11974759
0.21500001 216868.22757628 8431.83708680
0.21600001 213567.44345575 7646.78267446
0.21700001 210319.93866362 8252.95478336
0.21800001 207124.45742844 8164.84649787
0.21900001 203979.53926023 6731.32511386
0.22000001 200884.75821320 8657.12906453
0.22100001 197841.43877381 10540.99235628
0.22200001 194846.51421148 6517.61620856
0.22300001 191899.96821192 7092.62316049
0.22400001 189000.58947033 6378.77019625
0.22500001 186150.52093689 7572.60354980
0.22600001 183344.84992569 6242.89243518
0.22700001 180586.03525493 7411.25123733
0.22800001 177871.54255801 8553.84288613
0.22900001 175201.06311663 11484.43023040
0.23000001 172574.82251922 7773.63324801
0.23100001 169992.75184768 8873.62206611
0.23200001 167451.11804285 8193.38359333
0.23300001 164952.30315972 7526.77394915
0.23400001 162493.65178830 8591.85224466
0.23500001 160075.07697836 7366.65539096
0.23600001 157696.66312077 5606.11663910
0.23700001 155357.29924093 8319.38376784
0.23800001 153055.88750059 6584.46459171
0.23900001 150792.23214353 7599.92885951
0.24000001 148565.18329263 5907.69479307
0.24100001 146375.52624117 5844.77503927
0.24200001 144221.75949171 6833.94839677
0.24300001 142102.34442787 8841.60828853
0.24400001 140017.63165559 5660.21302743
0.24500001 137966.25334798 5600.05048830
0.24600001 135948.45348138 5036.89043976
0.24700001 133963.86211135 5481.80149692
0.24800001 132011.12547394 9368.16996244
0.24900001 130088.79469323 7317.49504767
0.25000001 128198.40219147 5792.00408502
0.25100001 126337.67559400 6208.23367239
0.25200001 124508.51415908 5670.11800306
0.25300001 122706.86439898 6077.67128122
0.25400001 120935.00251304 6013.49328447
0.25500001 119189.76984650 5034.57611651
0.25600001 117473.39362584 5887.17940010
0.25700001 115783.09060493 4928.88640025
0.25800001 114119.55112915 4876.89924825
0.25900001 112482.76447918 5702.87642892
0.26000001 110870.74200695 5208.70770594
0.26100001 109283.31341157 5153.80130435
0.26200001 107721.86974719 4249.62796261
0.26300001 106182.91989726 4204.84382689
0.26400001 104668.44926975 5824.79947748
0.26500001 103177.10813025 4940.12017104
0.26600001 101708.15873901 4073.41195025
0.26700001 100261.68714977 5642.72801980
0.26800001 98837.39036385  6380.94222384
0.26900001 97433.50926459  4735.26877434
0.27000001 96051.41280055  3904.49011511
0.27100001 94689.57375026  3863.33479183
0.27200001 93348.59547450  5733.93774837
0.27300001 92027.11394716  5295.24038711
0.27400001 90723.81945391  4490.82927550
0.27500001 89441.63596628  4813.74907552
0.27600001 88175.71076619  4030.07105130
0.27700001 86930.26756238  5437.48849336
0.27800001 85701.59979523  4662.59575753
0.27900001 84491.18188696  4613.21874936
0.28000001 83297.64356048  6319.79251604
0.28100001 82121.32224219  3473.73209525
0.28200001 80962.07203648  3436.84012061
0.28300001 79819.08891658  4760.41068830
0.28400001 78691.65379348  4373.28886656
0.28500001 77580.61207077  3993.85009844
0.28600001 76485.00203120  3951.21539195
0.28700001 75405.15652310  3583.25320758
0.28800001 74338.89368948  3867.10943277
0.28900001 73289.17425549  3825.69507722
0.29000001 72253.19537498  3469.23734014
0.29100001 71232.04607503  4055.95289550
0.29200001 70224.55842033  3395.00643753
0.29300001 69231.27244115  3969.02903693
0.29400001 68250.80880552  3926.12796239
0.29500001 67285.22305182  3883.70325839
0.29600001 66331.53236442  2955.06990672
0.29700001 65391.32486974  4092.18930406
0.29800001 64464.30668105  3180.34672066
0.29900001 63550.28993976  3431.71581920
0.30000001 62647.66088041  2828.54202265
0.30100001 61758.69567345  2797.66904645
0.30200001 60880.71193681  4150.54273278
0.30300001 60015.71671853  4105.07521789
0.30400001 59162.29995270  4330.68056156
0.30500001 58321.18431581  2676.94248683
0.30600001 57490.26962520  3706.39785821
0.30700001 56671.90739907  3141.89069495
0.30800001 55864.56379163  3883.98398150
0.30900001 55068.61897374  3328.89817457
0.31000001 54283.82637607  3038.80874440
0.31100001 53509.60670652  2754.67468367
0.31200001 52747.07295565  2724.12271177
0.31300001 51994.54686667  2448.94327337
0.31400001 51254.06702284  2663.93025964
0.31500001 50522.72899659  4310.59944208
0.31600002 49803.34783905  3315.40902262
0.31700002 49093.42358994  2810.10769934
0.31800002 48393.74100499  2547.20467840
0.31900002 47705.03598935  2747.81020309
0.32000002 47026.65173578  3170.06674361
0.32100002 46357.81728732  2462.99094910
0.32200002 45700.12741504  2435.58840591
0.32300002 45050.79638338  2408.41568870
0.32400002 44412.60726446  2814.64911866
0.32500002 43783.96092312  2783.34652768
0.32600002 43165.32544779  2540.71117617
0.32700002 42556.57309527  2721.91854406
0.32800002 41958.29934879  2691.83482219
0.32900002 41367.87430950  2866.79382540
0.33000002 40788.40122763  2632.68748191
0.33100002 40217.55669629  2403.40130198
0.33200002 39657.62948007  2575.16829224
0.33300002 39106.39611106  2742.92275312
0.33400002 38565.27361987  2713.06712764
0.33500002 38033.26957195  2300.25225264
0.33600002 37510.11657826  2654.59107596
0.33700002 36996.33539778  2063.28572285
0.33800002 36492.88551938  2226.79597985
0.33900002 35997.70858975  1835.88322502
0.34000002 35511.89668125  2179.72032152
0.34100002 35035.29832456  1797.31088917
0.34200002 34568.70426129  2489.98388586
0.34300002 34110.44812593  2112.11904799
0.34400002 33662.12207978  2613.02235019
0.34500002 33222.18688604  1724.23158105
0.34600002 32792.03226947  2218.87296860
0.34700002 32369.77655043  2196.61314075
0.34800002 31957.26757310  1840.25934035
0.34900002 31553.19735913  1822.19723379
0.35000002 31158.46104149  2296.69027214
0.35100002 30773.16918696  1787.30575103
0.35200002 30395.17400899  1931.30944800
0.35300002 30027.21060981  2072.77844657
0.35400002 29667.31842491  2369.67717143
0.35500002 29316.69342624  1722.06265342
0.35600002 28974.07981866  2172.18686689
0.35700002 28640.10040143  2614.55488948
0.35800002 28315.04156768  1524.76506064
0.35900002 27998.93434637  1814.33103158
0.36000002 27690.96630185  2549.09202366
0.36100002 27390.95266877  1933.52744047
0.36200002 27100.74652695  1475.63571829
0.36300002 26817.43902432  1903.50191211
0.36400002 26543.11186855  1743.88253237
0.36500002 26276.06852703  2019.57872265
0.36600002 26018.30357609  2291.69228754
0.36700002 25767.94334775  1706.86864821
0.36800002 25526.62732780  1836.76855638
0.36900002 25292.94551896  1684.51025136
0.37000002 25066.71531364  1952.94788260
0.37100002 24848.22046227  2079.79615121
0.37200002 24638.30662560  1654.21598520
0.37300002 24435.89819212  1370.85395352
0.37400002 24241.01152378  2181.69114049
0.37500002 24053.91300495  1899.29706084
0.37600002 23874.48438697  2025.15323406
0.37700002 23702.41193016  1747.10486614
0.37800002 23537.66387128  1605.73950537
0.37900002 23381.14982346  1465.99816338
0.38000002 23231.10442343  1593.18921683
0.38100002 23087.49260511  1455.20472784
0.38200002 22952.32455407  2109.77777296
0.38300002 22823.31784836  1446.08548738
0.38400002 22701.59490256  1704.32231805
0.38500002 22586.25360859  1830.84180425
0.38600002 22478.61518279  1435.37204050
0.38700002 22376.70044452  1302.32402757
0.38800002 22281.46180252  1950.18503666
0.38900002 22192.77518457  1557.93289176
0.39000002 22110.95306082  1556.16895015
0.39100002 22034.74613659  1295.64313421
0.39200002 21965.33149702  1424.34198840
0.39300002 21901.34225838  1682.68020543
0.39400002 21844.70299864  1423.72858539
0.39500002 21792.64745350  1423.93165207
0.39600002 21746.63472651  1813.01702305
0.39700002 21705.73358901  1684.58206366
0.39800002 21671.57896191  1556.45287479
0.39900002 21641.91329321  1428.36634503
0.40000002 21617.94199211  1690.41505416
0.40100002 21599.01842533  1432.66296003
0.40200002 21585.64767430  1826.79344923
0.40300002 21577.00103561  1699.83622212
0.40400002 21573.27062673  1310.57625267
0.40500002 21573.83481020  1445.23126241
0.40600002 21580.24876239  1712.71652418
0.40700002 21590.40087239  1717.73237480
0.40800002 21605.05146594  1590.56396429
0.40900002 21623.70142385  1994.78655087
0.41000002 21647.22265347  1601.46160778
0.41100002 21674.50301063  1607.38121943
0.41200002 21704.93868418  1479.08311672
0.41300002 21740.71386311  1485.10823436
0.41400002 21779.27515442  1491.33593686
0.41500002 21821.51347096  1906.32750715
0.41600002 21866.37686491  1367.74193771
0.41700002 21915.94577980  1648.95583861
0.41800002 21969.12868109  1656.91176364
0.41900002 22023.61694155  1526.23672637
0.42000002 22081.71753730  2091.69079283
0.42100002 22143.27872574  1541.83657073
0.42200002 22207.39525809  1831.77708466
0.42300002 22273.67934312  1558.26668068
0.42400002 22342.41912996  1566.76221573
0.42500002 22414.14718250  1718.71688740
0.42600002 22486.75736975  1584.30456556
0.42700002 22562.89826828  1448.53813746
0.42800002 22640.17075886  1893.96357458
0.42900002 22720.20409538  2198.17985039
0.43000002 22801.87009962  1768.96916615
0.43100002 22883.70377753  1927.72329757
0.43200002 22968.37199029  1640.97541461
0.43300002 23053.74244549  1800.95844519
0.43400002 23140.96961869  1811.93800701
0.43500002 23228.69094308  2126.81904354
0.43600002 23318.30387063  2139.92084762
0.43700002 23408.10710553  1537.91270971
0.43800002 23498.25867033  2011.56852880
0.43900002 23590.20147558  2024.03938252
0.44000002 23682.03779658  1723.22356193
0.44100002 23774.81512690  1733.89734937
0.44200002 23867.71182185  1903.21143087
0.44300002 23961.02000259  1914.96480936
0.44400002 24054.34839947  1766.19061493
0.44500002 24147.11758512  1776.98646730
0.44600002 24239.98034159  2762.99429018
0.44700002 24333.51981046  1635.21260876
0.44800002 24425.84708383  1974.09705487
0.44900002 24518.35621370  2482.48368429
0.45000002 24610.69418487  1997.89624861
0.45100002 24701.49255196  2009.71352927
0.45200002 24792.20696635  1853.09359752
0.45300002 24881.79460709  1694.45029305
0.45400002 24970.75667174  1874.67964598
0.45500002 25059.19854962  2399.66896684
0.45600002 25145.99403917  2068.50956770
0.45700002 25232.18236258  1906.79611151
0.45800002 25316.67785468  1743.05335290
0.45900002 25399.96138453  1927.85716045
0.46000002 25482.41556704  1762.10911998
0.46100002 25562.55405793  2302.93060423
0.46200002 25641.87169448  1780.82807358
0.46300002 25719.42862158  2685.10847535
0.46400002 25794.81571882  1979.10732983
0.46500002 25869.68963323  3074.09536482
0.46600002 25941.57809148  2544.09068401
0.46700002 26011.75863760  3104.24342294
0.46800002 26080.68678666  2752.16460360
0.46900002 26146.90671828  2027.69271211
0.47000002 26211.28522877  2592.55834486
0.47100002 26273.77576596  2418.23843612
0.47200002 26334.20186552  1868.41171092
0.47300002 26392.30496693  2439.44086372
0.47400002 26447.56478931  2072.82798861
0.47500002 26501.05147403  2081.39268142
0.47600002 26552.87023266  1899.85795520
0.47700002 26601.01091268  1907.29257284
