# SAXS profile: number of points = 501, q_min = 0, q_max = 0.5, delta_q = 0.001
#    q    intensity    error
0.00000000 1664650.74656090 399.51617917
0.00100000 1664568.96783323 599.24484265
0.00200000 1664323.56976210 823.84019312
0.00300000 1663914.77741802 1896.86291383
0.00400000 1663342.46060776 1871.26033929
0.00500000 1662607.13689035 1496.34648243
0.00600000 1661708.67896312 2093.75302073
0.00700000 1660647.67952263 2590.61048772
0.00800000 1659423.98556214 2688.26697011
0.00900000 1658038.76443590 3233.17572886
0.01000000 1656491.45279574 3553.17431967
0.01100000 1654783.33103257 4170.05417576
0.01200000 1652914.27627383 3867.81957606
0.01300000 1650885.47172480 5546.97542964
0.01400000 1648696.96224848 3709.56832951
0.01500000 1646350.16243050 4346.36462236
0.01600000 1643844.44004412 4610.98386045
0.01700000 1641182.10408879 5317.43025578
0.01800000 1638363.03422801 4669.33485766
0.01900000 1635387.97474398 8340.47904754
0.02000000 1632258.15490289 6169.93610463
0.02100000 1628975.38416750 9138.55231951
0.02200000 1625538.41792074 9533.78325425
0.02300000 1621950.48577959 7590.72861897
0.02400000 1618210.90913044 6068.29118594
0.02500000 1614322.51359404 7555.02970866
0.02600000 1610285.01825487 9782.48193333
0.02700000 1606100.83179511 7420.18618275
0.02800000 1601769.65166762 6967.69830429
0.02900000 1597294.01079448 7906.60571646
0.03000000 1592675.30373753 13330.69290503
0.03100000 1587913.90365777 11432.98063240
0.03200000 1583011.12884920 14104.62980768
0.03300000 1577970.98470213 17704.83526456
0.03400000 1572791.53864288 8257.15595886
0.03500000 1567475.95775369 9310.80761901
0.03600000 1562025.51905398 13003.86304708
0.03700000 1556442.06460004 11533.23623207
0.03800000 1550727.03516303 9978.92893309
0.03900000 1544882.62688507 11123.15542869
0.04000000 1538908.69151423 14196.43333707
0.04100000 1532809.10812425 12553.70717761
0.04200000 1526584.72549479 10831.11912987
0.04300000 1520236.58245521 11036.91810094
0.04400000 1513768.20311448 10217.93584556
0.04500000 1507180.95334485 10399.54906129
0.04600000 1500474.58385325 12694.01556950
0.04700000 1493653.73159913 10754.30736767
0.04800000 1486718.63150590 14205.59718500
0.04900000 1479672.97328435 13317.05737943
0.05000000 1472516.40543514 16897.12653920
0.05100000 1465253.73711074 13714.77561825
0.05200000 1457882.91172903 13908.20362603
0.05300000 1450410.31488876 12923.15650811
0.05400000 1442835.64141678 13093.73405647
0.05500000 1435161.61785644 14466.42978284
0.05600000 1427389.11160892 14645.01296850
0.05700000 1419523.40060641 12349.85416175
0.05800000 1411563.48171917 19987.73983442
0.05900000 1403511.83915911 13894.76785664
0.06000000 1395372.42770953 16597.95580304
0.06100000 1387146.53906941 16770.60244106
0.06200000 1378836.01660659 18242.00135240
0.06300000 1370444.64650480 17103.14998804
0.06400000 1361970.79113932 15935.05900156
0.06500000 1353420.67482733 13398.86530756
0.06600000 1344795.17806718 16218.23060632
0.06700000 1336095.91934037 19079.45062108
0.06800000 1327326.21311024 19232.95772824
0.06900000 1318488.53962340 16612.95637706
0.07000000 1309583.67578641 18131.18684032
0.07100000 1300614.75041497 19665.29594735
0.07200000 1291584.10907804 19799.98531973
0.07300000 1282494.44032484 15659.25785009
0.07400000 1273348.08341887 17190.19993176
0.07500000 1264146.75098005 15852.40100033
0.07600000 1254891.47257506 17392.79662527
0.07700000 1245587.59496546 17488.05065330
0.07800000 1236235.29661718 19044.20563749
0.07900000 1226836.58940013 19138.65169232
0.08000000 1217395.96127913 20707.90627279
0.08100000 1207914.06720542 16343.07809608
0.08200000 1198392.69190353 19395.98662862
0.08300000 1188835.21564751 17975.18930420
0.08400000 1179243.52683370 24056.56907659
0.08500000 1169619.98682467 15088.09853835
0.08600000 1159966.27301333 15137.56057356
0.08700000 1150286.38819625 19738.91534834
0.08800000 1140579.84616783 15226.74166145
0.08900000 1130851.90776725 16793.15161911
0.09000000 1121102.36998869 22954.57210382
0.09100000 1111334.31698324 23004.62144234
0.09200000 1101549.21263113 16903.27346205
0.09300000 1091752.64344914 16933.08429562
0.09400000 1081940.86478835 18501.18965739
0.09500000 1072119.76048713 20070.08285967
0.09600000 1062290.72463265 20093.23000096
0.09700000 1052457.95578329 24753.81228377
0.09800000 1042621.29196121 20127.80498767
0.09900000 1032783.64123673 24786.80855522
0.10000000 1022945.56467279 17047.38863696
0.10100000 1013109.92690512 26350.99043814
0.10200000 1003279.21728285 18600.79756334
0.10300000 993454.64196960 20147.26108689
0.10400000 983639.69084298 17041.55844558
0.10500000 973836.57450393 29419.60429994
0.10600001 964042.81514893 15472.88791119
0.10700001 954265.87688146 21642.75110613
0.10800001 944504.13096408 18531.17192162
0.10900001 934761.61381337 18508.28082461
0.11000001 925038.03899305 24643.01451871
0.11100001 915336.64950765 21528.71900985
0.11200001 905658.64058923 16886.00614873
0.11300001 896005.82395138 22982.55046639
0.11400001 886380.50238104 24464.10301760
0.11500001 876784.36017770 18307.25830256
0.11600001 867218.23197295 18263.61682541
0.11700001 857684.98287985 22771.53736788
0.11800001 848183.92420575 15140.08376015
0.11900001 838717.86310724 15096.92224702
0.12000001 829287.88144787 16556.73333301
0.12100001 819898.57429518 22506.21692463
0.12200001 810547.86694972 22431.91327463
0.12300001 801239.17742229 20864.26916308
0.12400001 791972.17773550 17819.37483865
0.12500001 782748.41607071 17752.73491300
0.12600001 773571.99089824 16210.20183315
0.12700001 764441.51027416 20548.18876453
0.12800001 755358.91219483 19001.05433177
0.12900001 746325.86842830 16008.69063231
0.13000001 737343.85499383 15937.68817691
0.13100001 728412.66244146 23076.11423390
0.13200001 719534.65129893 17225.66036412
0.13300001 710711.17670404 15713.82485772
0.13400001 701941.91077343 17057.18923597
0.13500001 693229.82989978 22627.02271475
0.13600001 684574.73599136 15474.81263673
0.13700001 675978.19702849 15392.02427212
0.13800001 667439.45436040 19482.55859149
0.13900001 658962.27230990 17989.67088242
0.14000001 650545.36851911 19262.64927029
0.14100001 642191.42390962 21885.88475904
0.14200001 633899.75342705 14956.86538756
0.14300001 625672.45927121 13514.52575771
0.14400001 617506.98463462 16116.93305920
0.14500001 609408.99491985 16015.26914197
0.14600001 601376.35636104 15912.41913997
0.14700001 593411.24486178 14491.10328316
0.14800001 585510.88058418 19629.25319767
0.14900001 577679.54922167 20796.46475317
0.15000001 569916.21339170 15490.32341086
0.15100001 562221.68251372 19227.98244924
0.15200001 554597.70344995 15273.62147373
0.15300001 547043.29028343 15164.04072223
0.15400001 539557.58078127 15053.65721419
0.15500001 532144.27805460 17433.04737179
0.15600001 524800.30736225 18538.57173250
0.15700001 517530.67907672 13492.02544031
0.15800001 510329.74107749 12171.36489917
0.15900001 503203.23282138 14492.25378930
0.16000001 496146.59927430 15576.52321947
0.16100001 489165.14435681 16641.39899656
0.16200001 482255.97664042 12970.27510402
0.16300001 475419.17139611 17542.96825268
0.16400001 468656.25321463 15079.01565905
0.16500001 461965.78215770 11502.94851880
0.16600001 455349.30094971 11406.50052733
0.16700001 448805.49700446 13571.87887021
0.16800001 442335.52156709 12334.52660129
0.16900001 435940.05209721 11116.47185338
0.17000001 429616.67953226 12121.63518538
0.17100001 423367.62622919 13107.46232701
0.17200001 417191.69533472 14073.96250673
0.17300001 411088.97590696 15021.19188901
0.17400001 405060.63935205 11696.12651365
0.17500001 399104.04259847 11589.98194443
0.17600001 393219.38596873 14615.96526676
0.17700001 387410.37530915 11378.24326023
0.17800001 381671.97604472 11272.68234491
0.17900001 376005.89222719 11167.37552662
0.18000001 370412.96443205 12068.05495123
0.18100001 364892.54560292 11953.88035861
0.18200001 359441.33424019 10853.33160007
0.18300001 354062.39087397 13680.97142965
0.18400001 348754.36707182 9677.93414344
0.18500001 343517.34440392 12459.37467014
0.18600001 338350.67564662 9490.73690026
0.18700001 333253.24976091 10337.51629598
0.18800001 328223.83649046 13957.71930621
0.18900001 323266.98397089 11977.04232201
0.19000001 318374.66478203 9121.43457698
0.19100001 313553.39546400 14448.54114568
0.19200001 308798.13036984 11621.61818561
0.19300001 304111.92450597 9734.62316342
0.19400001 299490.76122992 8760.10517992
0.19500001 294936.68468519 9538.25283345
0.19600001 290447.05454796 11157.52412772
0.19700001 286024.64442264 10193.91880896
0.19800001 281665.52134344 12611.57431416
0.19900001 277371.08513561 9153.24624206
0.20000001 273138.63173756 9058.64314970
0.20100001 268970.83906440 12224.72521325
0.20200001 264864.01447857 10484.64250867
0.20300001 260819.70571477 9577.30004651
0.20400001 256836.73110861 11056.82179683
0.20500001 252913.66621071 9378.03918636
0.20600001 249050.27107151 8506.31241052
0.20700001 245246.59894351 8416.86367360
0.20800001 241501.03359559 9842.37508944
0.20900001 237815.80112063 8240.31789836
0.21000001 234184.90735909 7411.95266830
0.21100001 230612.29772660 8066.81855582
0.21200001 227094.62376755 7255.67357238
0.21300001 223632.39829621 7896.46035715
0.21400001 220225.02204101 7812.48302625
0.21500001 216872.86767772 9134.68561845
0.21600001 213572.34170232 9732.49207151
0.21700001 210325.34699402 9628.69484063
0.21800001 207130.17720068 7484.64930703
0.21900001 203985.61592129 6731.52564368
0.22000001 200891.15114846 6659.54197545
0.22100001 197848.12981405 13176.68606866
0.22200001 194853.57882668 7821.42302393
0.22300001 191907.30814855 9027.32020217
0.22400001 189008.25318994 7016.93173148
0.22500001 186158.43082281 7572.92532397
0.22600001 183353.14901883 8740.44502705
0.22700001 180594.63446121 9882.13886504
0.22800001 177880.53702610 6110.19673580
0.22900001 175210.32101426 8462.65890520
0.23000001 172584.27049544 6578.04978102
0.23100001 170002.48104834 7099.30394432
0.23200001 167461.23324588 5852.77037874
0.23300001 164962.68439881 5790.19049624
0.23400001 162504.41323132 7446.76508852
0.23500001 160086.09378092 6233.75278666
0.23600001 157707.83779709 6167.16528874
0.23700001 155368.79722587 9429.33274963
0.23800001 153067.55226600 5487.47200829
0.23900001 150804.26131725 5428.95366421
0.24000001 148577.42122939 6982.39624095
0.24100001 146388.02009060 5845.27391871
0.24200001 144234.48078796 5257.34707340
0.24300001 142115.29717025 7802.13018371
0.24400001 140030.82639957 5146.13311361
0.24500001 137979.66100867 5600.59470527
0.24600001 135962.14933060 6044.87744519
0.24700001 133977.75597163 5482.37003371
0.24800001 132025.16021211 7396.70995080
0.24900001 130102.93065901 5366.74614357
0.25000001 128212.85900881 5792.65724406
0.25100001 126352.28136487 7641.78633847
0.25200001 124523.23063542 6615.91955666
0.25300001 122721.81324258 7013.55195863
0.25400001 120950.11411175 6476.87891711
0.25500001 119204.96924677 5950.71234634
0.25600001 117488.67836652 4529.18876532
0.25700001 115798.57585503 7170.24815619
0.25800001 114135.12273272 5764.39464635
0.25900001 112498.49591111 5264.92985775
0.26000001 110886.59462194 4775.33142334
0.26100001 109299.24291477 6013.64462971
0.26200001 107737.88338178 5950.36358073
0.26300001 106199.08045602 4626.03216356
0.26400001 104684.67117151 5825.70222636
0.26500001 103193.49090635 5352.64662659
0.26600001 101724.51681516 4074.06709123
0.26700001 100278.13337398 4837.41738287
0.26800001 98853.86284258  4387.62890989
0.26900001 97450.01584721  4341.39841143
0.27000001 96068.07812291  4686.20107260
0.27100001 94706.19256693  3864.01283959
0.27200001 93365.26517137  5352.63090558
0.27300001 92043.77072963  3782.99915601
0.27400001 90740.53911308  5240.26638177
0.27500001 89458.26620188  5925.71583365
0.27600001 88192.35590847  5130.14958599
0.27700001 86946.91323947  5438.52968052
0.27800001 85718.26420787  3946.04047956
0.27900001 84507.80422160  3904.26073982
0.28000001 83314.16912119  4565.20011306
0.28100001 82137.90090870  4516.76338474
0.28200001 80978.58011428  4812.55724397
0.28300001 79835.54957857  4421.29294492
0.28400001 78708.00367432  3701.24404797
0.28500001 77596.85820723  3994.68644958
0.28600001 76501.18731720  4940.06440483
0.28700001 75421.32364583  3584.02146929
0.28800001 74354.93866992  3545.61541830
0.28900001 73305.17346135  5420.91783406
0.29000001 72269.04311030  3785.45265730
0.29100001 71247.75127230  4056.84714947
0.29200001 70240.15318745  3087.05487872
0.29300001 69246.74995856  3359.15999950
0.29400001 68266.15911856  3624.93322079
0.29500001 67300.38390963  4482.20578056
0.29600001 66346.57231691  3842.46191763
0.29700001 65406.15749201  4970.21414310
0.29800001 64479.04709752  3470.26247907
0.29900001 63564.83944430  4004.58507456
0.30000001 62662.08354794  3395.03184735
0.30100001 61772.85020220  3637.80332062
0.30200001 60894.73898675  3874.73242516
0.30300001 60029.51146056  2737.34585219
0.30400001 59175.89609456  4602.40553664
0.30500001 58334.51808611  4284.08721106
0.30600001 57503.43576464  3707.24667926
0.30700001 56684.90196996  3404.49537350
0.30800001 55877.30658180  2589.91328268
0.30900001 55081.19807901  3073.53099832
0.31000001 54296.11551216  3039.49669027
0.31100001 53521.61267141  3256.25506910
0.31200001 52758.85628411  2972.43410378
0.31300001 52006.06938534  3429.28037763
0.31400001 51265.37811299  2664.51815358
0.31500001 50533.77015190  3113.89106419
0.31600002 49814.12205609  2368.66161592
0.31700002 49103.91237872  2342.25673137
0.31800002 48404.04584610  2779.36044408
0.31900002 47715.06676051  2977.42030683
0.32000002 47036.32687748  2491.27917103
0.32100002 46367.20799950  2463.48987766
0.32200002 45709.28505240  3100.46095191
0.32300002 45059.60148348  3284.84510369
0.32400002 44421.16703397  3031.74479363
0.32500002 43792.25840866  2783.87399886
0.32600002 43173.31105924  2541.18120928
0.32700002 42564.19442111  2512.99015762
0.32800002 41965.67376694  2485.20731816
0.32900002 41374.91181501  2867.28152456
0.33000002 40795.13127040  2835.66970889
0.33100002 40223.93544726  2203.46728814
0.33200002 39663.71841175  2377.44339418
0.33300002 39112.19623327  2351.42534890
0.33400002 38570.73225680  1938.17938769
0.33500002 38038.43951780  3067.41990798
0.33600002 37514.92881332  2275.65568958
0.33700002 37000.89950471  2438.72940185
0.33800002 36497.05214347  1855.87518938
0.33900002 36001.50817922  2203.29240491
0.34000002 35515.44900659  2179.93836326
0.34100002 35038.52354705  2156.97161171
0.34200002 34571.59191232  1956.57933694
0.34300002 34112.98759970  1936.25326786
0.34400002 33664.32993202  2961.61956603
0.34500002 33224.07942148  1896.76278400
0.34600002 32793.56925029  2389.66750444
0.34700002 32370.99167354  2027.71901447
0.34800002 31958.13475514  2007.61012040
0.34900002 31553.80202473  2319.20455866
0.35000002 31158.70123170  2296.70797657
0.35100002 30773.12425684  1949.78524526
0.35200002 30394.76261441  2253.16385932
0.35300002 30026.51503823  2710.49364088
0.35400002 29666.27528798  1895.67508069
0.35500002 29315.33064580  1878.52647676
0.35600002 28972.35479391  1861.76360724
0.35700002 28638.05033432  1691.64971337
0.35800002 28312.66445245  2134.49187417
0.35900002 27996.29135040  1662.97978498
0.36000002 27688.04366757  1649.23839918
0.36100002 27387.64101091  1933.29367053
0.36200002 27097.19769141  1770.53098102
0.36300002 26813.54991200  1756.82387345
0.36400002 26538.93945260  2179.51050578
0.36500002 26271.56040465  1586.53960799
0.36600002 26013.55370479  1861.66005907
0.36700002 25762.85012727  1422.10939439
0.36800002 25521.23443802  2260.16062889
0.36900002 25287.28571446  1964.82219309
0.37000002 25060.72701856  2091.94428697
0.37100002 24842.01514632  1386.18451083
0.37200002 24631.84566965  1515.96701355
0.37300002 24429.15542057  1644.57082082
0.37400002 24233.98763068  1499.47805568
0.37500002 24046.63965315  1491.85359475
0.37600002 23866.95422308  1754.57922283
0.37700002 23694.57650720  1746.52731708
0.37800002 23529.57187062  1738.95309148
0.37900002 23372.84801440  1332.25239993
0.38000002 23222.54452025  1990.75272331
0.38100002 23078.71333867  1719.13343804
0.38200002 22943.27363701  1581.70935947
0.38300002 22814.04141016  1839.72438647
0.38400002 22692.16294606  1834.66146110
0.38500002 22576.53867038  1307.18165094
0.38600002 22468.75213642  1826.03557263
0.38700002 22366.59444553  1431.90944424
0.38800002 22271.18441744  1299.52367232
0.38900002 22182.27104790  1427.42920956
0.39000002 22100.32033440  1685.03900373
0.39100002 22023.84262672  1683.50261014
0.39200002 21954.27197448  1682.46571247
0.39300002 21890.11497142  1552.44702732
0.39400002 21833.30487950  1811.07272556
0.39500002 21781.11045432  1811.31723120
0.39600002 21734.88548332  1294.31249185
0.39700002 21693.89122201  1554.15044078
0.39800002 21659.61297436  1555.59347752
0.39900002 21629.78566989  2465.79568319
0.40000002 21605.68351804  1429.54011770
0.40100002 21586.66582329  1822.34641514
0.40200002 21573.15168391  1695.32620540
0.40300002 21564.35093698  1437.47970157
0.40400002 21560.57983778  1571.76634465
0.40500002 21561.04958941  1706.98837687
0.40600002 21567.36626200  1448.35654995
0.40700002 21577.43909673  1980.80900293
0.40800002 21592.04027603  1722.07325381
0.40900002 21610.54281528  1461.95329072
0.41000002 21634.00638319  2000.60483508
0.41100002 21661.23308262  1606.39712152
0.41200002 21691.62980251  1746.93548892
0.41300002 21727.33508725  1754.04784471
0.41400002 21765.89387351  1761.40504517
0.41500002 21808.09461252  1632.99020196
0.41600002 21852.90343571  1503.58909214
0.41700002 21902.50051257  1922.60158609
0.41800002 21955.63008006  1655.89369910
0.41900002 22010.11139585  1525.30079201
0.42000002 22068.21877984  1672.32969838
0.42100002 22129.77759923  1821.05948493
0.42200002 22193.92553126  1971.48649836
0.42300002 22260.21085252  2406.77411142
0.42400002 22328.95496346  2277.55351420
0.42500002 22400.75814260  1860.83106708
0.42600002 22473.40905609  1871.24849373
0.42700002 22549.60013906  2171.52659629
0.42800002 22626.92394780  1601.64688754
0.42900002 22706.99897668  1903.98195442
0.43000002 22788.71549765  1767.94863209
0.43100002 22870.61601061  1630.21758649
0.43200002 22955.37217601  1640.04664283
0.43300002 23040.79164596  1499.95560723
0.43400002 23128.13852557  1660.02222134
0.43500002 23215.90952584  1973.81672142
0.43600002 23305.67177317  1680.45554284
0.43700002 23395.50093767  1690.79293289
0.43800002 23485.80421715  1701.19430909
0.43900002 23577.88304970  1556.14035502
0.44000002 23669.83299668  2035.48738501
0.44100002 23762.70639167  1890.56101012
0.44200002 23855.75837123  2060.77978456
0.44300002 23949.22416417  2392.52760738
0.44400002 24042.67426677  1765.33344170
0.44500002 24135.61225675  2260.54155110
0.44600002 24228.56855286  2599.24095753
0.44700002 24322.33398481  2615.13747398
0.44800002 24414.78041688  2302.06975461
0.44900002 24507.43802981  1819.67735995
0.45000002 24599.95073271  2163.44276972
0.45100002 24690.96212615  1674.04731149
0.45200002 24781.85250142  2525.89043592
0.45300002 24871.59553216  2201.88245682
0.45400002 24960.78019514  2214.64532777
0.45500002 25049.36611415  1884.71439575
0.45600002 25136.38093908  2067.71879404
0.45700002 25222.75107446  1732.80308094
0.45800002 25307.44302112  2090.90104150
0.45900002 25390.94955120  1927.17316227
0.46000002 25473.55993375  2113.79610349
0.46100002 25553.89327717  1947.97337684
0.46200002 25633.47165883  2314.31809840
0.46300002 25711.25380261  1968.45368442
0.46400002 25786.89643218  1798.63611139
0.46500002 25861.93629138  2350.07426218
0.46600002 25934.08039017  2906.69186789
0.46700002 26004.47482212  2373.16848475
0.46800002 26073.64342959  2201.13708265
0.46900002 26140.12695163  2580.03065241
0.47000002 26204.71582581  2777.04489126
0.47100002 26267.41779171  2045.70659458
0.47200002 26328.12910918  1867.98084883
0.47300002 26386.43934350  2814.11388937
0.47400002 26441.92915211  1883.98754138
0.47500002 26495.68348296  3216.04621359
0.47600002 26547.74766772  2089.44057922
0.47700002 26596.11297678  2479.02380807
