# SAXS profile: number of points = 501, q_min = 0, q_max = 0.5, delta_q = 0.001
#    q    intensity    error
0.00000000 1682732.95097188 378.61491397
0.00100000 1682650.65927840 757.19281466
0.00200000 1682403.72844516 757.08170177
0.00300000 1681992.37678427 1009.19546202
0.00400000 1681416.48591513 1387.16865359
0.00500000 1680676.55237463 1512.60895701
0.00600000 1679772.49124198 1940.13730637
0.00700000 1678704.85356794 2417.33508960
0.00800000 1677473.48518854 2491.04823068
0.00900000 1676079.59077628 3268.35534173
0.01000000 1674522.60002834 3039.25865029
0.01100000 1672803.75650680 3914.36096065
0.01200000 1670922.99757561 3584.12998694
0.01300000 1668881.46901734 5256.97685926
0.01400000 1666679.19430447 4500.03402411
0.01500000 1664317.66152164 4393.79882207
0.01600000 1661796.18331819 5508.85459396
0.01700000 1659117.12484933 4479.61643804
0.01800000 1656280.35243437 5664.47906021
0.01900000 1653286.54101457 5455.84583153
0.02000000 1650136.95014863 6237.51795372
0.02100000 1646833.48743505 7608.37105690
0.02200000 1643374.86177942 7370.53658994
0.02300000 1639764.18303032 5903.15132761
0.02400000 1636001.00009924 7975.50523915
0.02500000 1632087.93382282 8274.68620239
0.02600000 1628024.88741578 11868.30197210
0.02700000 1623814.09575460 7502.02146599
0.02800000 1619455.37551046 9158.02056849
0.02900000 1614951.27471275 8720.73728385
0.03000000 1610303.24487634 8236.70147614
0.03100000 1605511.40244560 8477.10059497
0.03200000 1600577.38888122 8715.14428386
0.03300000 1595505.03931924 8137.07607565
0.03400000 1590292.24636245 10853.74508222
0.03500000 1584942.66165491 10270.42892179
0.03600000 1579457.16851964 12272.38276655
0.03700000 1573837.81540974 11662.13875153
0.03800000 1568085.94811882 11007.96386524
0.03900000 1562203.80300519 10310.54557732
0.04000000 1556191.21332555 11484.69168653
0.04100000 1550052.15872297 12694.92776856
0.04200000 1543787.49167387 9957.42978325
0.04300000 1537398.12812290 11161.51092827
0.04400000 1530887.58906364 13433.53921791
0.04500000 1524257.26699028 11569.11319401
0.04600000 1517507.14183101 11768.26843197
0.04700000 1510641.52624019 14139.60534321
0.04800000 1503660.87672606 13262.28954979
0.04900000 1496569.02424845 16836.40230649
0.05000000 1489365.33766898 11393.64536373
0.05100000 1482054.64856914 12716.02947709
0.05200000 1474634.99897962 17585.02318232
0.05300000 1467112.85119945 11883.61464870
0.05400000 1459487.81445523 13244.85253384
0.05500000 1451762.47178069 13414.28586502
0.05600000 1443938.15367961 18518.50768509
0.05700000 1436019.93298583 12493.37400015
0.05800000 1428006.40318406 16429.21443575
0.05900000 1419900.66255740 16612.83852784
0.06000000 1411706.25979721 12917.11288062
0.06100000 1403424.66233935 16967.40496059
0.06200000 1395057.92235412 14501.62778073
0.06300000 1386609.34825920 17304.88547537
0.06400000 1378077.70633206 16123.50991813
0.06500000 1369469.23115358 17625.06982941
0.06600000 1360784.51527501 17778.65052390
0.06700000 1352025.54584063 16548.79345556
0.06800000 1343195.32827362 15292.27952821
0.06900000 1334296.38772805 14010.11272708
0.07000000 1325329.77556672 18349.19160199
0.07100000 1316298.43852764 18480.83094253
0.07200000 1307204.81446466 20039.45074453
0.07300000 1298051.35665203 14408.37073395
0.07400000 1288840.87581986 17399.35263897
0.07500000 1279574.58163945 18963.29618875
0.07600000 1270253.88548248 16138.57637164
0.07700000 1260884.01292356 14752.34364292
0.07800000 1251465.10847090 19278.82090010
0.07900000 1241999.21561180 14903.99128639
0.08000000 1232491.05263459 26954.58058559
0.08100000 1222940.84928805 15042.17315199
0.08200000 1213350.80304597 18127.46184814
0.08300000 1203724.06699089 21233.69353826
0.08400000 1194062.61802665 16746.72900389
0.08500000 1184368.77420729 16806.19369497
0.08600000 1174644.57569557 19927.84616232
0.08700000 1164893.47411084 19989.57295441
0.08800000 1155115.41883119 15420.79156561
0.08900000 1145315.39711054 20100.28616339
0.09000000 1135493.40987836 17049.43435023
0.09100000 1125652.22702159 17087.40160897
0.09200000 1115793.94802974 18678.39156765
0.09300000 1105923.55010237 20271.57962598
0.09400000 1096037.54130957 18742.24283723
0.09500000 1086142.03674805 17204.49067075
0.09600000 1076238.11390330 17225.19182274
0.09700000 1066330.05936537 15675.05260960
0.09800000 1056417.80896547 23531.70780111
0.09900000 1046504.43123148 17267.32392727
0.10000000 1036590.04139119 21986.07581185
0.10100000 1026677.75983412 17278.98751067
0.10200000 1016770.18475210 28276.38016797
0.10300000 1006868.53881942 21990.00992224
0.10400000 996976.20233035 21983.32629559
0.10500000 987095.32252550 15694.81636659
0.10600001 977223.49662951 20389.76921659
0.10700001 967368.48974554 17238.50729847
0.10800001 957528.16313030 15655.58620396
0.10900001 947706.89672555 17200.88098514
0.11000001 937904.66301071 17177.72471159
0.11100001 928124.34025548 15592.48965028
0.11200001 918367.06428902 23349.48370877
0.11300001 908634.67595479 17091.41905939
0.11400001 898929.64639233 17057.19084342
0.11500001 889253.82873284 15473.01734854
0.11600001 879607.63621371 21611.96063951
0.11700001 869994.44441206 20018.57310869
0.11800001 860413.10627244 18430.04960438
0.11900001 850866.65528711 16847.16056821
0.12000001 841356.19350656 16797.67719461
0.12100001 831886.45625432 22835.28429991
0.12200001 822455.07210629 18209.15615429
0.12300001 813065.80192553 18147.62955399
0.12400001 803717.91022930 21097.59613758
0.12500001 794413.41460261 16515.85566782
0.12600001 785156.25891105 25427.28664306
0.12700001 775944.90999569 23837.02875842
0.12800001 766781.17206072 16320.93801651
0.12900001 757667.33811893 22161.77068451
0.13000001 748604.37759217 16181.08438435
0.13100001 739591.86082953 17572.70344164
0.13200001 730633.27977734 18948.97500429
0.13300001 721728.84075985 23210.80061306
0.13400001 712878.70546504 15879.37391288
0.13500001 704085.76415916 14363.35026605
0.13600001 695350.01502729 18576.27652734
0.13700001 686672.79870034 19899.77864468
0.13800001 678053.18970258 19792.37354074
0.13900001 669495.81789869 18277.23669056
0.14000001 660998.24989918 13980.11364468
0.14100001 652563.95283069 19459.45799118
0.14200001 644191.82272714 22108.66439876
0.14300001 635884.76631414 15108.62276026
0.14400001 627638.96855597 15016.26303102
0.14500001 619461.43949926 14922.82678148
0.14600001 611348.91542877 14828.26864324
0.14700001 603304.12831528 17411.35796459
0.14800001 595324.62477619 19958.25898723
0.14900001 587413.95949809 15860.17765474
0.15000001 579571.55405851 14440.02595069
0.15100001 571798.26689645 16948.10143051
0.15200001 564095.43009026 18124.38702404
0.15300001 556462.87214912 16710.58083919
0.15400001 548898.77865883 12761.89720606
0.15500001 541407.50696529 16469.61713913
0.15600001 533985.53899704 13832.89604056
0.15700001 526638.45179006 14977.59827580
0.15800001 519360.27420335 17341.44037414
0.15900001 512156.49626187 13520.93213951
0.16000001 505023.11826670 15855.20154639
0.16100001 497965.11281871 14520.66337523
0.16200001 490979.51554619 13204.89469397
0.16300001 484066.70645957 21434.47477391
0.16400001 477228.06522964 11811.39517204
0.16500001 470462.07966835 17571.75950520
0.16600001 463770.74757306 18587.93244032
0.16700001 457151.82920926 12672.24930400
0.16800001 450607.28968034 12565.18486602
0.16900001 444137.70156889 13590.61430973
0.17000001 437740.54363741 16842.06821173
0.17100001 431418.06968054 14469.76274037
0.17200001 425168.58657690 17653.00054830
0.17300001 418993.13128881 15310.00974030
0.17400001 412892.10736891 10838.41833029
0.17500001 406863.34103041 11815.31198153
0.17600001 400906.83529024 10644.07697967
0.17700001 395026.45226552 10547.20677364
0.17800001 389216.82542199 13585.61393303
0.17900001 383480.02780930 11389.35736390
0.18000001 377816.82284284 17438.13628200
0.18100001 372226.28956104 11177.95600353
0.18200001 366705.56673097 11072.67511049
0.18300001 361257.46828729 13958.98923403
0.18400001 355880.46669974 14813.52512618
0.18500001 350575.05638624 9781.04453525
0.18600001 345340.40317068 10655.47864323
0.18700001 340175.15057252 13430.11557911
0.18800001 335078.53576877 10449.42463164
0.18900001 330054.92493641 10347.22238564
0.19000001 325096.34464066 10245.41178543
0.19100001 320208.99907457 10144.22157000
0.19200001 315388.13185858 14608.77895797
0.19300001 310637.04941396 10847.44627811
0.19400001 305951.06921681 10738.88303696
0.19500001 301332.76051183 8859.18357769
0.19600001 296779.37603465 10523.79717150
0.19700001 292293.54417358 9549.23053942
0.19800001 287871.59452395 12889.45125395
0.19900001 283514.53368264 9355.98005369
0.20000001 279220.16952959 10102.18621102
0.20100001 274990.66766622 10831.88291131
0.20200001 270822.81559489 9071.21063709
0.20300001 266717.90700698 8977.72517418
0.20400001 262674.55234510 8884.96715303
0.20500001 258691.74654211 9592.29041518
0.20600001 254769.08007355 12656.92849632
0.20700001 250906.40596691 8611.10825982
0.20800001 247102.54089641 8521.33152562
0.20900001 243359.28303823 8432.39955588
0.21000001 239670.90801777 10619.81843629
0.21100001 236041.35927989 8256.72713793
0.21200001 232467.10006784 12626.45113709
0.21300001 228948.79427740 10288.95930124
0.21400001 225485.78453083 9453.49196338
0.21500001 222078.49437265 10073.48098099
0.21600001 218723.40467430 9967.22602224
0.21700001 215422.03143947 9157.59098946
0.21800001 212173.16483871 11848.81095064
0.21900001 208975.20576558 7585.80032796
0.22000001 205827.97132500 7505.51732925
0.22100001 202732.59067157 7426.09514743
0.22200001 199686.22814263 6679.50464721
0.22300001 196688.51740396 7269.60794700
0.22400001 193738.50161826 9154.14463433
0.22500001 190838.36241604 8410.24702937
0.22600001 187983.00098217 8961.15008058
0.22700001 185174.95124633 8232.87872174
0.22800001 182411.67479164 6265.84132540
0.22900001 179692.89562542 8679.16726915
0.23000001 177018.92869415 8587.18863706
0.23100001 174389.34968934 7282.49958744
0.23200001 171800.85065611 7205.32801728
0.23300001 169255.66359552 7129.04888781
0.23400001 166750.89899028 7053.56336089
0.23500001 164286.77866865 6397.32746393
0.23600001 161863.35875926 6329.66694366
0.23700001 159479.13181424 9109.44844009
0.23800001 157133.56890137 6759.88645387
0.23900001 154826.19685457 8360.61502560
0.24000001 152555.74882596 10478.29210374
0.24100001 150323.33391718 5456.73727930
0.24200001 148127.08871352 5399.23263900
0.24300001 145965.72291492 5876.58028253
0.24400001 143839.31421311 5814.70455212
0.24500001 141746.82818842 6276.54984909
0.24600001 139688.31130296 5175.45217860
0.24700001 137663.51364674 7681.62442487
0.24800001 135670.95536124 7094.23459144
0.24900001 133708.98917175 5014.08733114
0.25000001 131779.73477804 5457.65797402
0.25100001 129880.42824837 6382.32454607
0.25200001 128013.12972072 6315.52805356
0.25300001 126173.61953622 4807.21513176
0.25400001 124364.46179579 6184.02315537
0.25500001 122582.15392377 7060.73240007
0.25600001 120829.30867660 6055.36109082
0.25700001 119102.89077724 6913.92313674
0.25800001 117403.54215137 5929.46617690
0.25900001 115731.55016883 4964.88373716
0.26000001 114084.44933889 4913.04704324
0.26100001 112462.66094509 5303.73934112
0.26200001 110866.89803662 5248.43920139
0.26300001 109294.19720183 5626.46553818
0.26400001 107746.28903357 5567.78974927
0.26500001 106221.95758573 5085.90756986
0.26600001 104720.24342343 5452.25973184
0.26700001 103241.60253739 4980.37514208
0.26800001 101785.36905355 7392.67170419
0.26900001 100349.84643640 4064.16897300
0.27000001 98936.57492704  5630.48074554
0.27100001 97543.89041262  4377.77000889
0.27200001 96172.37088374  5119.73640628
0.27300001 94820.79520871  4286.84835426
0.27400001 93487.65942141  4627.63936036
0.27500001 92175.86646756  4197.68915759
0.27600001 90880.96561903  4908.93559023
0.27700001 89606.77772847  3736.60280812
0.27800001 88349.66941653  5176.40737610
0.27900001 87111.04079320  5487.99582971
0.28000001 85889.62902864  4344.29764188
0.28100001 84685.86965232  6089.76117492
0.28200001 83499.42991455  5671.28154822
0.28300001 82329.60750503  4559.41387943
0.28400001 81175.60260976  3817.28289340
0.28500001 80038.28472835  3433.64257737
0.28600001 78916.72460751  4416.57470170
0.28700001 77811.29325376  3361.44802767
0.28800001 76719.58043013  3658.37336597
0.28900001 75644.88703026  3619.60801573
0.29000001 74583.98373567  3581.15014858
0.29100001 73538.36375600  5153.56877596
0.29200001 72506.58120533  5098.66303171
0.29300001 71489.44963043  3467.95336573
0.29400001 70485.30840407  4054.66755788
0.29500001 69496.13443793  3394.19136662
0.29600001 68519.41615917  3052.54013439
0.29700001 67556.20301021  3925.69114276
0.29800001 66606.57707971  3286.03563578
0.29900001 65670.17571800  4137.22126609
0.30000001 64745.37533796  3215.57921838
0.30100001 63834.50624038  3180.87359654
0.30200001 62934.88018996  3146.42948405
0.30300001 62048.49698069  3395.29391552
0.30400001 61173.81392253  3078.57233140
0.30500001 60311.71971347  3321.96967909
0.30600001 59460.13107988  3011.95308245
0.30700001 58621.21056930  2979.13006217
0.30800001 57793.53677626  4285.96889024
0.30900001 56977.58773336  2649.45795504
0.31000001 56172.96281847  3406.60949141
0.31100001 55378.97419869  3110.08333825
0.31200001 54597.02140725  2819.66330408
0.31300001 53825.14783618  3295.71395805
0.31400001 53065.62653443  2758.08606971
0.31500001 52315.36134279  3471.64754308
0.31600002 51577.28154414  2942.99982425
0.31700002 50848.89034726  2668.04140285
0.31800002 50130.91890031  2638.64104125
0.31900002 49424.06297758  2846.82616230
0.32000002 48727.69915720  2346.23882551
0.32100002 48041.07432357  2552.42239967
0.32200002 47365.82557270  2524.36179343
0.32300002 46699.04729951  2723.48856747
0.32400002 46043.68839670  3366.94487344
0.32500002 45397.77642455  3107.93192119
0.32600002 44762.21560249  2634.70413512
0.32700002 44136.67004192  2605.82912267
0.32800002 43521.76143801  2792.13873727
0.32900002 42914.86905487  2336.71473069
0.33000002 42318.95199833  2521.36327946
0.33100002 41731.90484093  2493.89875139
0.33200002 41155.88788210  3289.17871530
0.33300002 40588.70705277  2846.89204750
0.33400002 40031.78750947  2011.59741761
0.33500002 39484.11259357  2984.99905343
0.33600002 38945.43802047  2362.43038220
0.33700002 38416.26578530  2337.24572106
0.33800002 37897.46427698  2890.62922462
0.33900002 37387.10014621  2288.09063731
0.34000002 36886.25953457  3018.77162327
0.34100002 36394.81281792  1867.05398598
0.34200002 35913.33035467  2402.06321453
0.34300002 35440.27667036  2560.20570792
0.34400002 34977.31248897  1810.07600703
0.34500002 34522.98318924  2150.09149485
0.34600002 34078.46095981  2128.54077236
0.34700002 33641.84759746  2458.54633886
0.34800002 33215.18756212  2260.45969660
0.34900002 32797.02239599  2238.39688454
0.35000002 32388.33172428  2046.29489526
0.35100002 31989.06913193  2026.82751619
0.35200002 31597.32977731  2175.00229824
0.35300002 31215.65040793  1823.30622668
0.35400002 30842.06261281  2463.50986788
0.35500002 30477.84265668  1953.02024994
0.35600002 30121.75453169  2258.22804420
0.35700002 29774.43797918  1758.77613473
0.35800002 29436.04045602  1743.64393900
0.35900002 29106.73895545  1571.76397804
0.36000002 28785.68679563  1714.61951520
0.36100002 28472.57197342  2009.87895080
0.36200002 28169.41872143  2147.35489085
0.36300002 27873.16739432  2587.18752009
0.36400002 27585.99133642  1510.33309721
0.36500002 27306.18653254  1798.93165397
0.36600002 27035.71763460  1637.14795891
0.36700002 26772.70024035  2216.77968491
0.36800002 26518.83139664  2054.94434227
0.36900002 26272.64092348  1603.94480436
0.37000002 26033.88317683  2173.17850113
0.37100002 25803.03013724  2015.73280981
0.37200002 25580.85957092  1574.37407687
0.37300002 25366.16256212  1565.34596586
0.37400002 25159.04871466  1556.71621296
0.37500002 24959.76695717  1970.82329230
0.37600002 24768.30470838  1540.71246737
0.37700002 24584.21453569  1672.71003625
0.37800002 24407.38572585  1526.31593867
0.37900002 24239.01703746  2072.43605488
0.38000002 24077.02814981  1513.60244634
0.38100002 23921.62156866  1507.77987890
0.38200002 23774.68702845  1775.61258484
0.38300002 23633.98975774  1633.58144944
0.38400002 23500.62801097  1628.59359831
0.38500002 23373.59765923  1488.66450544
0.38600002 23254.42738486  1619.90348837
0.38700002 23141.02009137  1616.16891975
0.38800002 23034.28363364  1747.26566781
0.38900002 22934.18804734  1744.14508363
0.39000002 22840.97967214  1473.58587336
0.39100002 22753.37777617  1739.26827961
0.39200002 22672.78961005  1871.18541517
0.39300002 22597.55971894  1602.61901119
0.39400002 22529.74933848  1468.37648270
0.39500002 22466.51888805  1334.51128518
0.39600002 22409.35155319  1467.92464304
0.39700002 22357.43941389  1735.16095512
0.39800002 22312.34824116  1869.55174770
0.39900002 22271.67122357  1870.82047142
0.40000002 22236.82310110  1471.29947019
0.40100002 22206.96824235  1606.89629815
0.40200002 22182.73990119  1340.94669056
0.40300002 22163.36438292  1611.71993429
0.40400002 22148.86979175  1480.09829396
0.40500002 22138.81748105  2022.38107271
0.40600002 22134.57137466  1486.44721109
0.40700002 22134.08270546  1354.60592576
0.40800002 22138.15995255  1358.17617744
0.40900002 22146.34734222  2043.00063912
0.41000002 22159.43783920  1639.35528902
0.41100002 22176.34130348  2192.79673199
0.41200002 22196.37987677  1925.09211793
0.41300002 22221.84229828  1793.96941374
0.41400002 22250.17563863  1662.08819896
0.41500002 22282.13322757  1946.56725100
0.41600002 22316.75739445  1395.91324117
0.41700002 22356.16273365  1541.90461680
0.41800002 22399.35429288  1689.35938082
0.41900002 22443.74628637  1413.95608304
0.42000002 22491.86733480  1562.39763845
0.42100002 22543.58298554  1855.11153178
0.42200002 22597.71681125  1577.20771958
0.42300002 22654.19736007  1728.96842445
0.42400002 22713.13453621  1882.35111388
0.42500002 22775.14271148  1746.39802587
0.42600002 22838.14179315  1462.78305117
0.42700002 22904.55229212  1617.51955952
0.42800002 22972.26328998  2513.05086169
0.42900002 23042.73636989  1634.88222292
0.43000002 23114.98744122  1643.82240978
0.43100002 23187.34950342  1502.54031902
0.43200002 23262.67275316  1964.18386699
0.43300002 23338.70883421  1975.15502224
0.43400002 23416.68362525  1680.73254685
0.43500002 23495.20985311  1536.58679721
0.43600002 23575.74505640  2009.00721019
0.43700002 23656.38516734  1554.22457915
0.43800002 23737.58137572  1875.74376920
0.43900002 23820.53502783  2358.23307951
0.44000002 23903.46069350  2371.82099971
0.44100002 23987.37528587  1908.43566818
0.44200002 24071.48208462  1759.50506636
0.44300002 24156.05582657  2252.31075201
0.44400002 24240.70602053  2265.29408497
0.44500002 24324.91300478  1627.33675714
0.44600002 24409.16786797  2291.28869635
0.44700002 24494.29136365  1810.61810341
0.44800002 24578.10733423  1655.33560741
0.44900002 24662.34178033  2164.12059379
0.45000002 24746.38066843  2343.72982418
0.45100002 24829.00660967  2020.08807350
0.45200002 24911.60784455  2200.56698324
0.45300002 24993.07184126  1872.23110036
0.45400002 25074.03539625  2053.56359628
0.45500002 25154.53518670  1720.57028831
0.45600002 25233.48741042  1902.73120836
0.45700002 25311.86473794  2260.60274688
0.45800002 25388.64526132  1748.00830909
0.45900002 25464.19870223  2635.54469059
0.46000002 25539.07874253  2119.23285449
0.46100002 25611.65064058  2307.35371557
0.46200002 25683.55631318  1783.72307049
0.46300002 25753.79707080  2509.45010551
0.46400002 25821.86134468  2341.39738840
0.46500002 25889.51761295  2533.54831368
0.46600002 25954.29606029  2545.33793527
0.46700002 26017.35149847  2009.05997793
0.46800002 26079.36597967  2568.55687708
0.46900002 26138.60477600  1842.77172405
0.47000002 26196.13820943  2591.06015310
0.47100002 26251.89722083  2230.36129359
0.47200002 26305.67243226  2612.94256654
0.47300002 26357.15793464  2248.79282157
0.47400002 26405.89789031  2257.70437663
0.47500002 26452.91660458  2455.35983562
0.47600002 26498.41301644  3033.53846591
0.47700002 26540.29046310  2093.23280804
