# SAXS profile: number of points = 501, q_min = 0, q_max = 0.5, delta_q = 0.001
#    q    intensity    error
0.00000000 1700912.83420644 306.16431016
0.00100000 1700830.07123346 612.29884019
0.00200000 1700581.72512667 994.84034070
0.00300000 1700168.01598077 1326.13109971
0.00400000 1699588.80285762 1784.56831081
0.00500000 1698844.63680223 1681.85625700
0.00600000 1697935.37574217 2674.24832567
0.00700000 1696861.60049894 2239.85740575
0.00800000 1695623.14833035 2518.00048158
0.00900000 1694221.26838694 2795.46521234
0.01000000 1692655.28522125 3072.16947533
0.01100000 1690926.56972052 3652.40154962
0.01200000 1689034.96794601 4940.42749785
0.01300000 1686981.66160086 3896.92781017
0.01400000 1684766.75090386 4169.79789334
0.01500000 1682391.54446721 5249.06185247
0.01600000 1679855.46945515 5140.35796632
0.01700000 1677160.94859220 4528.33476433
0.01800000 1674307.71923597 6203.31037890
0.01900000 1671296.63917164 7019.44620126
0.02000000 1668128.78107427 6305.52707770
0.02100000 1664806.14285822 6043.24657257
0.02200000 1661327.42484138 6304.73786371
0.02300000 1657695.70315925 7161.24576362
0.02400000 1653910.61208752 7442.59809376
0.02500000 1649974.79661978 9008.86280098
0.02600000 1645888.01646354 7999.01612587
0.02700000 1641652.57456678 8963.42346767
0.02800000 1637268.34329128 8546.54114392
0.02900000 1632737.85577038 9551.51689481
0.03000000 1628062.43828005 11355.73602897
0.03100000 1623242.48729370 9349.87715703
0.03200000 1618279.47890979 9612.58054746
0.03300000 1613177.14521753 11518.08534784
0.03400000 1607933.55370989 11818.31216507
0.03500000 1602552.15801280 11249.91666875
0.03600000 1597034.23646192 8863.54042198
0.03700000 1591381.45595613 9977.96219030
0.03800000 1585595.35383979 12058.45322401
0.03900000 1579678.08228561 11373.68271917
0.04000000 1573629.56486222 10645.60449960
0.04100000 1567453.64464471 12837.44594487
0.04200000 1561151.38432771 13090.25496488
0.04300000 1554723.60320108 11287.29388317
0.04400000 1548173.73864716 10450.17322119
0.04500000 1541503.35900557 12763.64840563
0.04600000 1534712.28568733 14065.63875219
0.04700000 1527804.97742317 12100.21598395
0.04800000 1520781.80018769 15648.84545204
0.04900000 1513646.56010188 12487.58470211
0.05000000 1506398.91777313 16133.53316063
0.05100000 1499043.33557827 14031.04627464
0.05200000 1491578.02627073 15415.45961989
0.05300000 1484009.37946432 12020.47653403
0.05400000 1476337.16385682 21923.60790566
0.05500000 1468563.92633403 16036.71882367
0.05600000 1460690.94723213 16235.58063610
0.05700000 1452723.30077403 15166.43196803
0.05800000 1444659.41499050 15342.28370357
0.05900000 1436502.92341635 15514.23229750
0.06000000 1428256.98452058 14375.40722080
0.06100000 1419923.02796464 14525.81325489
0.06200000 1411503.19795421 17340.31759741
0.06300000 1403000.79647155 17509.45075862
0.06400000 1394414.62793385 14955.09758399
0.06500000 1385751.11826446 15090.83038382
0.06600000 1377010.51231016 19374.53881471
0.06700000 1368195.20817533 15351.15095415
0.06800000 1359307.80106223 14068.83639954
0.06900000 1350351.13531292 15596.55634308
0.07000000 1341325.96394207 22856.19549589
0.07100000 1332235.58577563 21582.21750043
0.07200000 1323082.06081357 17385.29909354
0.07300000 1313868.53158272 14583.94138391
0.07400000 1304596.98581976 16144.38845611
0.07500000 1295269.18058779 20672.49709115
0.07600000 1285886.18363259 20792.78056412
0.07700000 1276453.66274915 14934.50855442
0.07800000 1266971.44687542 15013.61234956
0.07900000 1257441.68906068 19616.09126941
0.08000000 1247868.92121517 15161.60810401
0.08100000 1238253.95538612 21322.73411217
0.08200000 1228598.39723637 21414.47106871
0.08300000 1218905.44968072 18429.85126412
0.08400000 1209177.36439192 20042.11575555
0.08500000 1199416.27621648 21661.45896537
0.08600000 1189624.33983842 18629.51803655
0.08700000 1179805.38277403 21802.80449747
0.08800000 1169958.58900345 17180.84268639
0.08900000 1160089.25528316 23491.80852289
0.09000000 1150197.58241827 28260.35592756
0.09100000 1140286.53673121 15735.95494618
0.09200000 1130357.87753191 18922.19175898
0.09300000 1120416.26234914 15797.87004150
0.09400000 1110458.83102504 23736.05862870
0.09500000 1100491.54330010 20601.20265889
0.09600000 1090515.40842726 20627.09992004
0.09700000 1080534.84011104 19060.63547565
0.09800000 1070549.66828170 19077.19598575
0.09900000 1060562.49150551 15908.43812064
0.10000000 1050574.43261374 17507.82374285
0.10100000 1040587.82830589 17513.09397406
0.10200000 1030605.69891751 25476.57407556
0.10300000 1020628.99230140 25474.90084620
0.10400000 1010661.44014459 20693.29396048
0.10500000 1000705.16357815 22275.69798931
0.10600001 990757.28662956 19081.98623836
0.10700001 980826.27540785 20656.20233212
0.10800001 970909.35508085 20636.67931344
0.10900001 961011.20393345 15856.68561121
0.11000001 951131.81421814 17419.97999736
0.11100001 941274.27912816 26882.79467736
0.11200001 931439.12228610 17366.68325260
0.11300001 921629.00390136 18911.82805044
0.11400001 911845.73796771 25166.94355288
0.11500001 902091.70165600 15696.39634793
0.11600001 892366.98596532 18793.24960943
0.11700001 882674.86810793 15623.34590129
0.11800001 873014.53369044 18699.97219239
0.11900001 863388.77601049 17095.09857021
0.12000001 853798.95023038 18595.74201197
0.12100001 844249.87160026 20084.70539152
0.12200001 834738.31792402 21561.29176776
0.12300001 825269.43874259 19955.01596896
0.12400001 815841.33517024 15297.02575520
0.12500001 806456.87865761 16766.23929733
0.12600001 797119.25038660 21259.17140962
0.12700001 787827.44402803 19664.17392964
0.12800001 778583.25507424 16572.14536529
0.12900001 769388.84432402 22504.62475717
0.13000001 760245.02916453 19420.46018539
0.13100001 751151.68720772 17847.36492934
0.13200001 742112.32733872 17766.16995399
0.13300001 733126.95173271 16209.43766697
0.13400001 724195.61915914 17597.95437523
0.13500001 715321.79097722 21888.84783592
0.13600001 706505.01967392 14518.67883887
0.13700001 697746.49056283 18776.35894641
0.13800001 689045.81253546 20113.24821637
0.13900001 680407.29948509 15717.40935931
0.14000001 671828.69002169 15630.09521048
0.14100001 663313.39510465 15541.43358028
0.14200001 654860.16414476 18260.77653845
0.14300001 646471.92749247 13963.79429248
0.14400001 638145.24915188 13879.65982376
0.14500001 629886.76963593 13794.52090574
0.14600001 621693.22325141 15079.16984131
0.14700001 613567.75062554 13621.20470649
0.14800001 605507.68611110 14886.40716536
0.14900001 597516.19148863 20166.17241420
0.15000001 589593.00164225 16025.13854075
0.15100001 581739.45383800 17242.75822536
0.15200001 573956.34542378 13172.29874904
0.15300001 566243.50304925 17004.29319898
0.15400001 558599.11855470 19481.14517893
0.15500001 551027.90299800 14183.45889253
0.15600001 543526.19249540 14080.04668110
0.15700001 536099.39133820 12705.55617438
0.15800001 528741.62546173 15132.58603495
0.15900001 521458.47416686 15018.00476486
0.16000001 514245.93157895 13660.94381722
0.16100001 507108.80204451 14787.29336564
0.16200001 500044.23928953 13448.69045055
0.16300001 493052.86441708 13342.01114097
0.16400001 486135.94733796 19250.98442341
0.16500001 479291.76863095 17901.54840352
0.16600001 472522.42496818 13020.35603473
0.16700001 465825.71337795 15260.45109078
0.16800001 459203.63298312 11640.81264576
0.16900001 452656.92782221 13851.30264539
0.17000001 446182.84610668 13733.50865166
0.17100001 439783.48545160 15884.98024462
0.17200001 433457.49626910 11248.22255936
0.17300001 427205.98646510 11150.07677330
0.17400001 421028.90861121 12157.21031029
0.17500001 414924.50212349 12049.40811073
0.17600001 408892.57683912 10856.09842780
0.17700001 402937.10313937 12910.10539434
0.17800001 397052.84061626 12793.04312890
0.17900001 391241.29452558 12676.21854137
0.18000001 385504.28945224 11513.08614831
0.18100001 379839.96342347 11406.59464041
0.18200001 374245.55549822 10273.04098370
0.18300001 368724.42430634 12212.15350992
0.18400001 363274.39927041 11088.95156158
0.18500001 357896.72561225 12980.91485120
0.18600001 352590.03477203 12857.19622538
0.18700001 347352.80269676 11754.41939859
0.18800001 342184.83304509 11641.12857019
0.18900001 337090.25781673 14410.60920253
0.19000001 332060.97332422 10464.90206877
0.19100001 327103.41813080 14130.86833094
0.19200001 322212.46621999 11193.66160540
0.19300001 317391.84647544 13854.15475330
0.19400001 312636.93391449 14631.40919859
0.19500001 307949.88813364 12675.21799455
0.19600001 303328.03141635 17926.68750386
0.19700001 298774.40476563 12423.04033724
0.19800001 294284.94374536 8784.40598594
0.19900001 289860.90353743 13043.74127563
0.20000001 285499.79759028 8607.81930416
0.20100001 281204.22230078 10224.58600609
0.20200001 276970.26042148 13493.99172551
0.20300001 272800.07584726 10851.98753012
0.20400001 268691.63627438 9088.49502656
0.20500001 264644.33412418 9813.01237315
0.20600001 260657.72029121 8093.42259760
0.20700001 256731.30392353 8811.01876714
0.20800001 252864.20991406 9512.75202664
0.20900001 249058.26990472 8629.86946014
0.21000001 245307.55285260 11645.97662221
0.21100001 241616.29859352 7683.39865849
0.21200001 237980.70558210 8363.83229308
0.21300001 234401.43487358 8276.71505667
0.21400001 230878.08268992 10424.14592627
0.21500001 227410.65659702 13262.59011976
0.21600001 223995.99545771 9478.39099592
0.21700001 220635.79419383 7936.26989238
0.21800001 217328.42082179 8567.08675385
0.21900001 214072.09940399 7770.81757578
0.22000001 210867.37384186 7689.27915071
0.22100001 207714.75059320 8991.97197835
0.22200001 204611.87885296 6844.26767126
0.22300001 201558.01161773 9481.28931482
0.22400001 198552.20507452 6701.13723814
0.22500001 195596.90550733 7293.80895127
0.22600001 192686.77248265 11809.77284392
0.22700001 189824.52718157 7141.19905027
0.22800001 187007.37152207 7708.44421867
0.22900001 184235.52057533 8262.96348857
0.23000001 181508.65993855 6289.27536430
0.23100001 178826.89569425 6845.49389092
0.23200001 176186.67832880 8005.04210846
0.23300001 173590.20195016 7920.92128960
0.23400001 171034.46187617 6631.86157290
0.23500001 168520.12373277 8351.85772721
0.23600001 166046.90067402 6493.26435797
0.23700001 163613.31885697 5840.99575946
0.23800001 161218.84618152 7513.60468167
0.23900001 158863.13355795 6290.98038646
0.24000001 156544.87637103 6790.91705819
0.24100001 154265.06805931 8399.73335315
0.24200001 152021.86123844 6649.43652510
0.24300001 149814.31862166 6031.52475302
0.24400001 147641.92465968 5968.42508670
0.24500001 145503.99058150 6442.91700773
0.24600001 143400.46684968 5844.28630292
0.24700001 141331.39459757 7360.53937884
0.24800001 139294.84578570 7283.72783070
0.24900001 137289.38758833 7722.52841718
0.25000001 135317.02029630 7132.56047725
0.25100001 133375.24932077 6554.06006169
0.25200001 131465.97886749 6485.87437427
0.25300001 129584.88529481 5430.90279964
0.25400001 127734.64096165 4885.85024794
0.25500001 125911.67503013 5802.01025989
0.25600001 124118.72589624 6698.68795355
0.25700001 122352.80298778 8049.59128942
0.25800001 120614.11408609 6091.61612014
0.25900001 118903.43220412 7419.57452059
0.26000001 117218.09776422 5506.90649352
0.26100001 115558.60029063 4995.59852694
0.26200001 113925.33065617 5842.66085916
0.26300001 112315.89801853 6226.79368078
0.26400001 110731.50955937 5722.05102724
0.26500001 109171.19542942 5227.11708450
0.26600001 107634.08947671 6897.19278004
0.26700001 106120.15615459 4692.63352721
0.26800001 104629.40229097 4221.79658222
0.26900001 103159.72031392 6266.95330563
0.27000001 101712.65356704 4548.08151948
0.27100001 100286.74076272 4500.86913842
0.27200001 98882.38936899  7288.62126531
0.27300001 97498.43291648  5209.34151725
0.27400001 96133.16761194  4362.04268682
0.27500001 94789.91616273  3924.30271486
0.27600001 93463.90605557  3883.42548040
0.27700001 92158.95063121  4995.93695016
0.27800001 90871.49771128  5324.16130288
0.27900001 89603.00811525  5268.65712653
0.28000001 88351.99220839  4468.84397740
0.28100001 87119.09336193  5159.19295307
0.28200001 85903.99755692  5469.93730333
0.28300001 84705.85451038  5412.70435940
0.28400001 83523.90555454  3927.71184460
0.28500001 82359.21868726  3886.53171381
0.28600001 81210.48102930  4544.94478593
0.28700001 80078.31870657  4151.26023824
0.28800001 78960.18587634  4107.50906371
0.28900001 77859.63076788  3725.58350859
0.29000001 76773.11585580  3686.26133230
0.29100001 75702.18180757  4642.05800817
0.29200001 74645.54508611  3608.73904801
0.29300001 73603.82937811  5842.67225260
0.29400001 72575.57150669  3532.61611031
0.29500001 71562.65905714  4448.33509756
0.29600001 70562.36124941  3772.26401096
0.29700001 69576.02066562  3421.05309807
0.29800001 68603.66673460  3692.24951844
0.29900001 67644.78240957  3652.81842304
0.30000001 66697.82316962  3613.68823040
0.30100001 65765.25972643  4468.74960996
0.30200001 64844.02313389  2947.16099096
0.30300001 63936.49059125  3790.15534168
0.30400001 63041.02960095  3172.53996486
0.30500001 62158.42044450  3138.37879682
0.30600001 61286.53481207  3951.14308639
0.30700001 60427.68924699  3350.11125046
0.30800001 59580.46733456  3037.71027087
0.30900001 58745.19068551  3551.14694507
0.31000001 57921.58600845  2702.04211522
0.31100001 57108.79949713  3207.23033161
0.31200001 56308.30122985  2908.04235470
0.31300001 55518.23949524  2876.40012444
0.31400001 54740.74738920  3103.80052392
0.31500001 53972.67048815  3581.62658317
0.31600002 53217.28587092  2783.53026927
0.31700002 52471.78508092  2502.90426687
0.31800002 51736.88270850  2970.73194578
0.31900002 51013.39395836  2938.37163113
0.32000002 50300.81367408  2421.98429309
0.32100002 49597.90313124  3353.81036854
0.32200002 48906.70621895  2843.43603421
0.32300002 48224.36839765  2343.70441510
0.32400002 47553.58678516  2550.06121210
0.32500002 46892.41788357  3439.55901463
0.32600002 46241.63948097  2268.15252394
0.32700002 45601.41743526  2916.66679727
0.32800002 44971.81658113  2441.29517871
0.32900002 44350.60583646  2634.42611144
0.33000002 43740.50909864  2171.71637959
0.33100002 43139.43848702  3867.01944910
0.33200002 42549.66017607  2337.89118908
0.33300002 41968.94018971  2312.90840338
0.33400002 41398.37269879  2496.32199195
0.33500002 40837.60180744  3704.78741141
0.33600002 40285.92677174  2647.38980318
0.33700002 39743.76669404  2216.50997349
0.33800002 39212.28394413  2592.12815288
0.33900002 38689.39758321  2762.42311826
0.34000002 38176.12953743  2343.25094198
0.34100002 37672.57093242  2512.38387447
0.34200002 37178.96449893  3060.57250250
0.34300002 36693.97271963  3218.79543941
0.34400002 36219.22569013  2998.95202917
0.34500002 35753.24933364  2041.15310113
0.34600002 35297.32573160  2204.67106961
0.34700002 34849.24962313  1819.13091648
0.34800002 34411.42970414  1801.43843033
0.34900002 33982.10550200  1962.46668569
0.35000002 33562.48045137  3004.00995508
0.35100002 33152.38739322  1925.49075099
0.35200002 32749.84454340  2080.92522085
0.35300002 32357.57837763  2061.82499188
0.35400002 31973.37998370  2213.35733420
0.35500002 31598.74535549  2531.05962286
0.35600002 31232.46187429  2174.24793636
0.35700002 30874.84709624  1823.77730436
0.35800002 30526.45884175  1972.61986379
0.35900002 30187.07738161  2282.14315814
0.36000002 29856.12520550  1616.70925645
0.36100002 29533.16734078  2405.47659385
0.36200002 29220.40132831  1750.15602046
0.36300002 28914.43447175  1736.60101663
0.36400002 28617.62854903  2506.90437964
0.36500002 28328.43602913  2177.32369633
0.36600002 28048.48602649  1698.47615179
0.36700002 27776.13559763  1533.24275762
0.36800002 27512.93788078  1675.12530222
0.36900002 27257.55561855  2117.91217188
0.37000002 27009.59942552  1653.39270715
0.37100002 26769.64777130  1493.74641640
0.37200002 26538.44283803  2078.75632597
0.37300002 26314.71024851  1771.50637785
0.37400002 26098.73801485  2055.27571603
0.37500002 25890.55333225  1752.27273253
0.37600002 25690.16099790  1743.33440790
0.37700002 25497.37879338  2457.69245832
0.37800002 25311.77570342  1870.66687198
0.37900002 25134.72899944  1575.94758292
0.38000002 24964.06017061  1569.36571697
0.38100002 24800.07189675  1705.25302440
0.38200002 24644.46187298  1415.82440167
0.38300002 24495.39326231  1693.12166250
0.38400002 24353.43969054  1687.69345051
0.38500002 24217.96851378  1402.22044338
0.38600002 24090.31025031  1678.13109154
0.38700002 23968.45786890  1534.46074546
0.38800002 23853.24176890  1670.20406779
0.38900002 23744.74084270  1805.78762664
0.39000002 23643.27150867  1664.01352761
0.39100002 23547.23228088  1938.40825320
0.39200002 23458.44481132  1797.73800329
0.39300002 23374.87132653  2348.47343344
0.39400002 23298.83052468  1518.50135139
0.39500002 23227.16691933  1655.63253645
0.39600002 23161.83388725  1517.21600067
0.39700002 23101.66769198  2620.42229045
0.39800002 23048.35920871  1793.27767320
0.39900002 22999.47320468  2069.95268649
0.40000002 22956.35792340  1795.07249287
0.40100002 22918.29843162  1796.56549917
0.40200002 22885.90404183  1521.79826136
0.40300002 22858.31992853  1523.73567863
0.40400002 22835.72563731  1664.72447784
0.40500002 22817.50171546  1528.54451234
0.40600002 22804.94427993  1670.69029711
0.40700002 22796.43445360  1674.17022560
0.40800002 22792.30292236  1817.80020570
0.40900002 22792.36810132  1682.07684558
0.41000002 22797.31117692  1967.63602091
0.41100002 22806.09704915  1550.35855086
0.41200002 22817.92184359  1413.57032519
0.41300002 22835.29760822  1701.68645840
0.41400002 22855.42392484  1565.02522741
0.41500002 22879.24063680  1713.19762006
0.41600002 22905.67401881  1576.02497554
0.41700002 22936.97781325  1869.59315015
0.41800002 22972.02440897  2165.68770377
0.41900002 23008.26469819  1739.42489360
0.42000002 23048.27688400  2037.69825587
0.42100002 23091.93350307  2192.57919001
0.42200002 23137.83004621  2055.33354040
0.42300002 23186.19531113  2064.49892833
0.42400002 23237.00271802  1481.35899347
0.42500002 23290.88616809  1488.28769667
0.42600002 23345.75281391  1495.29553859
0.42700002 23404.02962813  1953.30040532
0.42800002 23463.58135040  1660.86968459
0.42900002 23525.97815626  1820.91079558
0.43000002 23590.08533790  1677.60899830
0.43100002 23654.36029211  1532.80261956
0.43200002 23721.51895036  1540.71272884
0.43300002 23789.50586084  2168.17566690
0.43400002 23859.32316151  1712.50300107
0.43500002 23929.85910888  1565.01285988
0.43600002 24002.17414569  1888.01110777
0.43700002 24074.76009380  2847.08126361
0.43800002 24147.89917679  1908.16708338
0.43900002 24222.75042257  2078.31208475
0.44000002 24297.61688226  2250.20240610
0.44100002 24373.46780752  1615.96099222
0.44200002 24449.50289660  1787.13649892
0.44300002 24525.96454215  2286.80104228
0.44400002 24602.64587047  1806.44935865
0.44500002 24678.86517617  1816.11777438
0.44600002 24755.03686954  1659.82530076
0.44700002 24832.33306421  2669.97257760
0.44800002 24908.06662907  2013.07004036
0.44900002 24984.36266273  1686.44455966
0.45000002 25060.46830253  1864.87483711
0.45100002 25135.26442585  2215.42231149
0.45200002 25209.92676593  2226.91898641
0.45300002 25283.39303546  2754.87863571
0.45400002 25356.59589985  2249.76407784
0.45500002 25429.28542363  1739.36320541
0.45600002 25500.36166835  2447.26982530
0.45700002 25570.96914579  2283.74336265
0.45800002 25639.98698317  1941.84450620
0.45900002 25707.78360004  2305.98829821
0.46000002 25774.86952413  2495.26523689
0.46100002 25839.75588437  2865.11226825
0.46200002 25903.95349784  1978.93262126
0.46300002 25966.63551925  2349.46129313
0.46400002 26027.13970701  2541.55031285
0.46500002 26087.19590344  2735.24262011
0.46600002 26144.46942256  2563.98823779
0.46700002 26199.96697281  2758.85665300
0.46800002 26254.52622856  2955.20961235
0.46900002 26306.30477218  2596.43240408
0.47000002 26356.50397028  2048.29580313
0.47100002 26404.89779857  2243.36022329
0.47200002 26451.32375194  2252.06581098
0.47300002 26495.63386755  2637.37552018
0.47400002 26537.12328493  3025.23219787
0.47500002 26576.96454530  2087.35489432
0.47600002 26615.22839565  3237.34345935
0.47700002 26650.05210198  2484.05147416
