# SAXS profile: number of points = 501, q_min = 0, q_max = 0.5, delta_q = 0.001
#    q    intensity    error
0.00000000 1664650.74656090 349.57665678
0.00100000 1664568.96237915 699.11898080
0.00200000 1664323.54465022 973.62930445
0.00300000 1663914.72447296 1397.68841835
0.00400000 1663342.37334628 1996.01092386
0.00500000 1662606.98675190 1645.98098203
0.00600000 1661708.47635263 1919.27336832
0.00700000 1660647.41442553 2192.05467814
0.00800000 1659423.61736130 2688.26637362
0.00900000 1658038.29569776 2984.46905984
0.01000000 1656490.89097182 3006.53109693
0.01100000 1654782.63691882 3574.33065137
0.01200000 1652913.47029600 4190.13583091
0.01300000 1650884.51166408 4160.22915288
0.01400000 1648695.84251695 5193.39213416
0.01500000 1646348.87453383 5531.73246476
0.01600000 1643842.96779775 5449.33968185
0.01700000 1641180.49037578 6203.66253191
0.01800000 1638361.22686163 5136.26267733
0.01900000 1635385.93045781 6378.00541658
0.02000000 1632255.90302932 6684.08822526
0.02100000 1628972.91045785 5913.17193306
0.02200000 1625535.69545645 7851.33776576
0.02300000 1621947.49201993 5839.01123705
0.02400000 1618207.69054534 6675.10702787
0.02500000 1614319.00354082 7555.01328161
0.02600000 1610281.29069663 8478.13138329
0.02700000 1606096.80202839 10118.41031621
0.02800000 1601765.30265501 9754.75114052
0.02900000 1597289.33972105 7906.58259464
0.03000000 1592670.44555070 8146.50970345
0.03100000 1587908.63271372 8384.15796651
0.03200000 1583005.55316482 10970.22898870
0.03300000 1577965.08740882 10461.90901182
0.03400000 1572785.25953872 9908.54759228
0.03500000 1567469.42333098 11003.63585991
0.03600000 1562018.59000173 9536.12393266
0.03700000 1556434.71103932 10646.01391586
0.03800000 1550719.34515687 9071.70858900
0.03900000 1544874.47132628 11123.09670866
0.04000000 1538900.18377110 11357.08388251
0.04100000 1532800.25955077 10622.30629121
0.04200000 1526575.53156079 14769.61895306
0.04300000 1520227.01826621 13043.54842218
0.04400000 1513758.16300735 13283.22849729
0.04500000 1507170.50047437 15599.21540473
0.04600000 1500463.76934535 19040.88611814
0.04700000 1493642.35317047 12905.07053158
0.04800000 1486706.85674368 10927.29590549
0.04900000 1479660.86606031 12207.20271321
0.05000000 1472503.92088472 13517.58662318
0.05100000 1465240.71531790 14857.54154545
0.05200000 1457869.43011646 13908.07501144
0.05300000 1450396.40198226 14097.85368448
0.05400000 1442821.34690624 14283.93200049
0.05500000 1435146.69617060 15671.80265326
0.05600000 1427373.83083596 12204.04682314
0.05700000 1419507.80326968 14819.66215790
0.05800000 1411547.35238166 13741.41411706
0.05900000 1403495.29514124 15157.74989548
0.06000000 1395355.40421687 17874.50356309
0.06100000 1387128.96037085 18060.41990802
0.06200000 1378818.08412444 20847.73040646
0.06300000 1370426.27270071 14471.70211635
0.06400000 1361951.91259926 18590.64447640
0.06500000 1353401.42039943 20098.01203307
0.06600000 1344775.41981900 14866.49296168
0.06700000 1336075.75921715 14990.77071997
0.06800000 1327305.53980800 20606.41947009
0.06900000 1318467.37739548 13843.90811081
0.07000000 1309562.06500967 19525.57130365
0.07100000 1300592.73297878 15451.04239148
0.07200000 1291561.70162578 16971.12155441
0.07300000 1282471.47527625 14235.43404258
0.07400000 1273324.74341262 14324.90403472
0.07500000 1264123.01576576 18734.30397177
0.07600000 1254867.35787067 20291.20612803
0.07700000 1245562.97993528 17487.70505826
0.07800000 1236210.26499036 17578.91079255
0.07900000 1226811.05186874 16193.90664422
0.08000000 1217370.25322130 14791.04927050
0.08100000 1207887.77862561 16342.72241158
0.08200000 1198365.97059864 20887.51984769
0.08300000 1188808.24736261 14978.98461976
0.08400000 1179216.00680135 16538.50527168
0.08500000 1169592.11651201 19614.06071469
0.08600000 1159938.13029013 16650.91264210
0.08700000 1150257.84637163 21256.76599912
0.08800000 1140550.97995904 16748.99192729
0.08900000 1130822.70220690 21372.55007557
0.09000000 1121072.87623346 22953.96821915
0.09100000 1111304.36287751 23004.00139232
0.09200000 1101518.89844567 23049.28403299
0.09300000 1091721.99829783 21550.59325911
0.09400000 1081909.77706832 18500.65805735
0.09500000 1072088.60175893 16981.88425006
0.09600000 1062259.23787054 21638.22169259
0.09700000 1052425.96365505 18564.79487166
0.09800000 1042589.07553888 21675.42789958
0.09900000 1032751.36341427 15491.27117965
0.10000000 1022912.97192733 17046.84547883
0.10100000 1013076.91321447 21700.10850165
0.10200000 1003246.08163827 17050.16795942
0.10300000 993421.37329442 20146.58639812
0.10400000 983606.16233199 15491.79778554
0.10500000 973802.74297364 17031.81077594
0.10600001 964008.85175031 17019.57707848
0.10700001 954231.75318600 18550.26615487
0.10800001 944469.78528905 18530.49805945
0.10900001 934727.11675501 15422.99815235
0.11000001 925003.45755363 16941.43912252
0.11100001 915301.95194750 18452.48821988
0.11200001 905623.79697567 21490.45371394
0.11300001 895970.85695608 19917.43308786
0.11400001 886345.32742262 18347.34914152
0.11500001 876749.13549535 15255.43567597
0.11600001 867182.89002533 16740.96648030
0.11700001 857649.62622624 18216.47891895
0.11800001 848148.52506778 18167.34226260
0.11900001 838682.51377982 18115.54315092
0.12000001 829252.30886493 21071.30216082
0.12100001 819863.18492226 21004.89578721
0.12200001 810512.27868296 14953.95224620
0.12300001 801203.65012079 17882.86631324
0.12400001 791936.67398164 23758.10133887
0.12500001 782712.95243667 22189.91324718
0.12600001 773536.68420669 19156.63688711
0.12700001 764406.31336984 17611.92229003
0.12800001 755323.59411744 17538.61468199
0.12900001 746290.69801663 14552.66929722
0.13000001 737308.82115020 15936.93092035
0.13100001 728377.65205043 14421.87819041
0.13200001 719499.73910916 17224.82456626
0.13300001 710676.44330856 18569.97633910
0.13400001 701907.24314226 24163.15798436
0.13500001 693195.42939261 19797.66239688
0.13600001 684540.43310537 16880.76787632
0.13700001 675944.11964043 18189.65711723
0.13800001 667405.52563224 13915.40586562
0.13900001 658928.69802481 17988.75430439
0.14000001 650511.84387234 17885.82399078
0.14100001 642158.13125447 16413.56260898
0.14200001 633866.59621602 17675.37086915
0.14300001 625639.78791471 20270.73008456
0.14400001 617474.37618691 17459.08881023
0.14500001 609376.89478817 14679.89008793
0.14600001 601344.49145510 21215.43465936
0.14700001 593379.57546113 17124.93535570
0.14800001 585479.64517545 17011.11189313
0.14900001 577648.60446579 15596.51305643
0.15000001 569885.64040711 16780.28347353
0.15100001 562191.42848840 19226.94776153
0.15200001 554567.66247713 16545.52699074
0.15300001 547013.72724453 13899.61946519
0.15400001 539528.38292894 15052.84259408
0.15500001 532115.49569464 14941.80382425
0.15600001 524771.77042485 13594.21335443
0.15700001 517502.70744252 14717.77769430
0.15800001 510302.30944556 13387.78172019
0.15900001 503176.02709174 13283.84774223
0.16000001 496119.84073708 13179.42419128
0.16100001 489138.98903889 20206.33259102
0.16200001 482230.15512829 12969.58063442
0.16300001 475393.86304215 14033.62749950
0.16400001 468631.34878033 17397.93964482
0.16500001 461941.23739648 14953.03856048
0.16600001 455325.42048549 12546.49255384
0.16700001 448782.12819411 14702.10321379
0.16800001 442312.61043328 12333.88772429
0.16900001 435917.65266594 17785.44106856
0.17000001 429594.85143161 14324.84099740
0.17100001 423346.41034511 13106.80548320
0.17200001 417170.85271812 11908.14255318
0.17300001 411068.65741362 12874.67095819
0.17400001 405040.88774106 12758.78856639
0.17500001 399084.81741691 10535.83967739
0.17600001 393200.64812433 15659.21655112
0.17700001 387392.31764876 13446.38798067
0.17800001 381654.32790166 10247.41918817
0.17900001 375988.89325153 13197.21077648
0.18000001 370396.51788789 15084.39890350
0.18100001 364876.58065800 10957.24423474
0.18200001 359426.10245473 13812.74576982
0.18300001 354047.71497334 10748.88913436
0.18400001 348740.29805641 10645.29810106
0.18500001 343503.86398316 9583.75825789
0.18600001 338337.76981254 15184.59982656
0.18700001 333240.85200970 10337.13171772
0.18800001 328212.09067671 12096.25717339
0.18900001 323255.82756847 13819.18728147
0.19000001 318364.12625216 12769.58570732
0.19100001 313543.40862956 9933.05565472
0.19200001 308788.79764088 9833.37972551
0.19300001 304103.28056181 10619.28705901
0.19400001 299482.59299617 13139.79938861
0.19500001 294929.05925236 10405.09770212
0.19600001 290440.23198626 8582.50926077
0.19700001 286018.31316597 11892.64202346
0.19800001 281659.84615316 10929.81084650
0.19900001 277365.89281744 9153.07489555
0.20000001 273134.11120702 10705.49199471
0.20100001 268966.82724818 8964.66477587
0.20200001 264860.68255214 8871.50898138
0.20300001 260816.93890331 8779.09857843
0.20400001 256834.57529519 8687.42991998
0.20500001 252912.16042588 11722.47918982
0.20600001 249049.26085005 11599.46987237
0.20700001 245246.20580155 12242.69117231
0.20800001 241501.20925767 10599.48857536
0.20900001 237816.54696012 8240.34374170
0.21000001 234186.18616442 8153.19245673
0.21100001 230614.22732968 8066.88605334
0.21200001 227096.99912173 9432.47430444
0.21300001 223635.28885027 9332.30104491
0.21400001 220228.52041209 7812.60713097
0.21500001 216876.93350229 8432.17557322
0.21600001 213576.95930963 9037.50946047
0.21700001 210330.34293439 8253.36304696
0.21800001 207135.77696288 8165.29271394
0.21900001 203991.65902703 9424.41509265
0.22000001 200897.68606657 9323.66205120
0.22100001 197855.25589590 8565.15443272
0.22200001 194861.17847593 7169.91740105
0.22300001 191915.34030166 7093.19131295
0.22400001 189016.80848869 8293.11286459
0.22500001 186167.55025507 6942.18827729
0.22600001 183362.65139260 6867.84843268
0.22700001 180604.56809556 7412.01182515
0.22800001 177890.88410409 7332.66258953
0.22900001 175221.05106958 10881.22778600
0.23000001 172595.56305088 8372.61115955
0.23100001 170014.20321585 5916.49455172
0.23200001 167473.23760241 6438.50892412
0.23300001 164975.16623438 6948.75433043
0.23400001 162517.26758909 7447.35413950
0.23500001 160099.32364659 6801.01959017
0.23600001 157721.50743558 8971.19976725
0.23700001 155382.67809319 5547.16187030
0.23800001 153081.94721113 5487.98806709
0.23900001 150818.93770266 7058.32661834
0.24000001 148592.33525240 6983.09712549
0.24100001 146403.34062481 7440.21812248
0.24200001 144250.02857444 6835.28792732
0.24300001 142131.19161993 6242.40223123
0.24400001 140046.93784793 5661.39773031
0.24500001 137996.08428887 5092.05575114
0.24600001 135978.83838269 6549.42106052
0.24700001 133994.65848028 5981.52183752
0.24800001 132042.27235542 6411.31283752
0.24900001 130120.31527583 4879.51205368
0.25000001 128230.41667759 5793.45049957
0.25100001 126370.03566658 6209.82384644
0.25200001 124541.24441949 6616.87662905
0.25300001 122739.92576007 5144.03053197
0.25400001 120968.38466823 5552.44911896
0.25500001 119223.41010293 5035.99708101
0.25600001 117507.32290666 5435.88901485
0.25700001 115817.33382870 5826.77034061
0.25800001 114154.00241886 5321.85984457
0.25900001 112517.45152322 5265.81698044
0.26000001 110905.57698049 6947.12567076
0.26100001 109318.43154533 6873.94330082
0.26200001 107757.14598538 5526.32549335
0.26300001 106218.28214272 5047.49300626
0.26400001 104704.09374540 4578.18671565
0.26500001 103212.81293357 5765.46800328
0.26600001 101743.89201432 4889.81168159
0.26700001 100297.42850995 6451.13090703
0.26800001 98873.21130302  3989.53426487
0.26900001 97469.36867954  5131.76250382
0.27000001 96087.32432734  5468.32988624
0.27100001 94725.43077188  4251.27753422
0.27200001 93384.47306623  5736.14152955
0.27300001 92062.90461397  4540.54267044
0.27400001 90759.62910040  3743.83487757
0.27500001 89477.22073734  5186.09995937
0.27600001 88211.26511902  4764.73171090
0.27700001 86965.73286004  3626.47123189
0.27800001 85736.93102895  5740.94517340
0.27900001 84526.32748566  4615.13769914
0.28000001 83332.55731779  4917.45444006
0.28100001 82156.11190778  3822.72406799
0.28200001 80996.58804172  4125.96639013
0.28300001 79853.45573050  3401.75737513
0.28400001 78725.73534185  4375.18294870
0.28500001 77614.37291888  4661.51945814
0.28600001 76518.50970373  3623.53419853
0.28700001 75438.41399784  4236.62153065
0.28800001 74371.78444168  5158.42721304
0.28900001 73321.80361308  3508.44846895
0.29000001 72285.43895220  3786.31147154
0.29100001 71263.94159887  3121.36078978
0.29200001 70256.05597093  5249.18147034
0.29300001 69262.33324564  3359.91594479
0.29400001 68281.48277957  4230.03805843
0.29500001 67315.48168767  3885.44978694
0.29600001 66361.37412758  2956.39935733
0.29700001 65420.64091711  3801.59362365
0.29800001 64493.17326336  3471.02274935
0.29900001 63578.60425092  3433.24479208
0.30000001 62675.64310070  4244.70812994
0.30100001 61786.04667468  2798.90804686
0.30200001 60907.60859667  3875.55131848
0.30300001 60042.06592806  3011.71016953
0.30400001 59188.01935095  2978.63721485
0.30500001 58346.35004520  3213.71711263
0.30600001 57514.93564067  3972.84436746
0.30700001 56696.00157335  3405.16201571
0.30800001 55888.06832325  3108.49450731
0.30900001 55091.54985795  3842.63578452
0.31000001 54306.11790428  2533.38052018
0.31100001 53531.18470906  2755.78551930
0.31200001 52768.04809061  3963.93596024
0.31300001 52014.87400247  3184.87088596
0.31400001 51273.75921825  3391.75933288
0.31500001 50541.81221618  2635.25021372
0.31600002 49821.73398303  3079.73063198
0.31700002 49111.11272274  2811.12022535
0.31800002 48410.83411915  3011.39607897
0.31900002 47721.38564476  2290.62661941
0.32000002 47042.23879299  2265.08390513
0.32100002 46372.75811625  3135.72605230
0.32200002 45714.40553651  2657.83566374
0.32300002 45064.25055345  2628.14721672
0.32400002 44425.39480327  2815.45952897
0.32500002 43796.03507328  3426.60194639
0.32600002 43176.68938491  2329.59838607
0.32700002 42567.21576621  2303.73782636
0.32800002 41968.19693626  2692.46980194
0.32900002 41377.05266084  2662.61346481
0.33000002 40796.80204590  2633.22971275
0.33100002 40225.23052294  2804.50320486
0.33200002 39664.57669194  2377.49483950
0.33300002 39112.63026143  2155.49715578
0.33400002 38570.73508792  2713.45134193
0.33500002 38037.98529110  1917.11454946
0.33600002 37514.14002207  2654.87581509
0.33700002 36999.62387156  3001.40963060
0.33800002 36495.32612600  3525.99610065
0.33900002 35999.40601927  2386.76073211
0.34000002 35512.92226030  1998.13466560
0.34100002 35035.60912369  1977.05951648
0.34200002 34568.29677518  1956.39284864
0.34300002 34109.30200678  2640.06010036
0.34400002 33660.18615191  2264.48913062
0.34500002 33219.60297218  1724.09747591
0.34600002 32788.69928892  2218.64744246
0.34700002 32365.66781506  2365.28311595
0.34800002 31952.53661618  2509.07305662
0.34900002 31547.73288458  2650.00968781
0.35000002 31152.28977007  2296.23538771
0.35100002 30766.26744093  1786.90489760
0.35200002 30387.59221635  1930.82770088
0.35300002 30018.98134149  1912.80958168
0.35400002 29658.42498714  2053.10456698
0.35500002 29307.12903462  1565.00076457
0.35600002 28963.78155310  2171.41480588
0.35700002 28629.21986538  1998.60593347
0.35800002 28303.41073668  1828.96648843
0.35900002 27986.72088343  1813.53959915
0.36000002 27678.22353425  1798.53105044
0.36100002 27377.53639336  1932.58038555
0.36200002 27086.73077307  1474.87256045
0.36300002 26802.84404124  2048.80949556
0.36400002 26527.92642191  1597.64444444
0.36500002 26260.28078859  1585.85843194
0.36600002 26001.98982479  2433.39633302
0.36700002 25751.03387517  1563.60285097
0.36800002 25509.15735838  1694.31831200
0.36900002 25274.98639625  1543.03799258
0.37000002 25048.19352307  1951.50484982
0.37100002 24829.21971279  1939.65873584
0.37200002 24618.86232553  1652.91049483
0.37300002 24415.89446388  2328.54396532
0.37400002 24220.55786744  1634.88773350
0.37500002 24033.00224555  1626.55366903
0.37600002 23853.11534572  1888.45123138
0.37700002 23680.59268511  1342.68966885
0.37800002 23515.42728498  1336.85210448
0.37900002 23358.53211163  1597.72367212
0.38000002 23208.03444828  1458.97315471
0.38100002 23064.09234550  1453.72980940
0.38200002 22928.55210138  1712.41899481
0.38300002 22799.13857174  1444.55348834
0.38400002 22677.14661546  1702.48686281
0.38500002 22561.42114656  1959.45951941
0.38600002 22453.48675900  1824.79495535
0.38700002 22351.29995734  1821.18400680
0.38800002 22255.78833134  1688.21290385
0.38900002 22166.82759674  1556.11137101
0.39000002 22084.79087485  1683.85496003
0.39100002 22008.26636824  1682.31196089
0.39200002 21938.65912421  1681.26922164
0.39300002 21874.49973280  1680.61789409
0.39400002 21817.64680812  1421.96519809
0.39500002 21765.40194548  1551.43792418
0.39600002 21719.20795841  1422.71678472
0.39700002 21678.19259261  1423.60697500
0.39800002 21643.93165683  1684.00618235
0.39900002 21614.11439480  1296.84692513
0.40000002 21590.08243389  1428.50787192
0.40100002 21570.99535476  1560.87729782
0.40200002 21557.54604397  1563.78446412
0.40300002 21548.87164592  1305.86168361
0.40400002 21545.07544343  1308.86339520
0.40500002 21545.69440786  1705.77270709
0.40600002 21552.04635079  2105.20398729
0.40700002 21562.18990849  1715.48791040
0.40800002 21576.89462925  1456.11680305
0.40900002 21595.56127166  1593.75249736
0.41000002 21619.12366502  1332.81903710
0.41100002 21646.48943616  1605.30373265
0.41200002 21676.99481110  1611.46787061
0.41300002 21712.84979134  2292.22566108
0.41400002 21751.52977197  1624.83935096
0.41500002 21793.84853933  1495.92983462
0.41600002 21838.87184797  1502.62364870
0.41700002 21888.59096256  1509.65619022
0.41800002 21941.92418878  1930.67000085
0.41900002 21996.56007736  2217.25336086
0.42000002 22054.81457603  1532.03776712
0.42100002 22116.64352750  1819.97868212
0.42200002 22180.97883776  1407.38317395
0.42300002 22247.47509617  1697.92737980
0.42400002 22316.47857708  1564.94313437
0.42500002 22388.39177243  2002.86562287
0.42600002 22461.35130487  1438.64961925
0.42700002 22537.69452366  1446.92005698
0.42800002 22615.32461912  1600.82582902
0.42900002 22695.64601533  1756.64308483
0.43000002 22777.58670320  1914.34236519
0.43100002 22859.72262201  1481.31009610
0.43200002 22944.74073766  2086.36537414
0.43300002 23030.43481977  1949.06579116
0.43400002 23118.02397763  1508.45113602
0.43500002 23206.10162409  1517.67911814
0.43600002 23296.11857203  2137.88490267
0.43700002 23386.20886418  1536.47399519
0.43800002 23476.83205485  1545.94946407
0.43900002 23569.16392198  2488.90382811
0.44000002 23661.42695011  1878.24416031
0.44100002 23754.60183546  1889.91621159
0.44200002 23847.93171141  2218.57319225
0.44300002 23941.67266468  1913.41857004
0.44400002 24035.44861258  2406.54940638
0.44500002 24128.68614669  2421.31376957
0.44600002 24221.95654803  2436.12339527
0.44700002 24316.05335177  2124.25052148
0.44800002 24408.75414392  2137.10857035
0.44900002 24501.70969343  2315.41167576
0.45000002 24594.58567256  2662.11807936
0.45100002 24685.89540183  2343.18530259
0.45200002 24777.10631461  2357.04623542
0.45300002 24867.17612059  3556.25502555
0.45400002 24956.67954153  1873.62280538
0.45500002 25045.57518365  2055.74090850
0.45600002 25132.88983976  1895.14564818
0.45700002 25219.59525156  2079.10353107
0.45800002 25304.58401302  2439.10896861
0.45900002 25388.40541256  2277.34007344
0.46000002 25471.32783740  2113.61088412
0.46100002 25551.99419930  1947.82861013
0.46200002 25631.86505335  2848.21297972
0.46300002 25709.97512960  2684.12153074
0.46400002 25785.85450481  1798.56343695
0.46500002 25861.28064601  2530.78504397
0.46600002 25933.75123746  3088.32091249
0.46700002 26004.43717770  2555.71620695
0.46800002 26073.91063779  2934.87952049
0.46900002 26140.69297411  2211.50273043
0.47000002 26205.57159901  2036.56609334
0.47100002 26268.61153934  2603.74489919
0.47200002 26329.57964132  2241.70051691
0.47300002 26388.16658680  2626.67822655
0.47400002 26443.97870896  2072.54692955
0.47500002 26497.99069208  2270.34795011
0.47600002 26550.36176593  2279.61416927
0.47700002 26599.01370858  2288.57924796
