# SAXS profile: number of points = 501, q_min = 0, q_max = 0.5, delta_q = 0.001
#    q    intensity    error
0.00000000 1682732.95097188 353.37391970
0.00100000 1682650.71185094 605.75427065
0.00200000 1682403.93187591 832.78997265
0.00300000 1681992.84065294 1110.11531438
0.00400000 1681417.29282522 1891.59452631
0.00500000 1680677.82472703 2268.91515319
0.00600000 1679774.31172997 1763.76309912
0.00700000 1678707.34609493 2618.78356875
0.00800000 1677476.73054226 2943.97178640
0.00900000 1676083.70425339 2514.12566385
0.01000000 1674527.65818683 2762.97075531
0.01100000 1672809.88893502 3312.16372430
0.01200000 1670930.28642870 3584.14562153
0.01300000 1668889.99004539 3855.13604703
0.01400000 1666689.10837555 4875.06585811
0.01500000 1664328.99502516 3994.38976593
0.01600000 1661809.06436971 4237.61330358
0.01700000 1659131.67561303 4927.62129762
0.01800000 1656296.58434757 6136.57912114
0.01900000 1653304.63273370 5455.90553421
0.02000000 1650157.02340093 5197.99485885
0.02100000 1646855.54947772 7608.47298354
0.02200000 1643398.99968052 8504.59020973
0.02300000 1639790.56574339 7083.89556646
0.02400000 1636029.62188010 7362.13363416
0.02500000 1632119.01099475 8274.84376366
0.02600000 1628058.43065578 7912.36433489
0.02700000 1623850.19486932 8866.22247007
0.02800000 1619494.13752736 11271.67971411
0.02900000 1614992.75128122 8720.96125733
0.03000000 1610347.51306207 8985.73953592
0.03100000 1605558.57031768 11560.02223820
0.03200000 1600627.54446589 13469.28140705
0.03300000 1595558.22270533 11392.28623531
0.03400000 1590348.64184177 8349.33075491
0.03500000 1585002.22477806 11982.61737266
0.03600000 1579520.10829990 8766.33700619
0.03700000 1573904.01393186 12559.75461203
0.03800000 1568155.62028240 10091.08188353
0.03900000 1562276.97017841 11248.39470620
0.04000000 1556268.00652022 14356.57302542
0.04100000 1550132.55784443 9765.83556723
0.04200000 1543871.61641269 11949.56686541
0.04300000 1537486.06079162 11162.14931947
0.04400000 1530979.28891291 11367.52174811
0.04500000 1524352.94702341 13673.44657014
0.04600000 1517606.78925141 12838.95403391
0.04700000 1510745.16510132 11965.10226407
0.04800000 1503768.72567715 12157.97071279
0.04900000 1496680.88265952 11225.10714245
0.05000000 1489481.42535026 18231.25349525
0.05100000 1482174.95436914 12717.06170090
0.05200000 1474759.64750483 15241.64166724
0.05300000 1467241.77730824 15450.05663530
0.05400000 1459621.15687373 16858.62514807
0.05500000 1451900.25779082 13415.55900781
0.05600000 1444080.48897161 18520.33313530
0.05700000 1436166.72668907 18741.97665814
0.05800000 1428157.68524120 13903.11571499
0.05900000 1420056.62854146 15336.61230456
0.06000000 1411866.92834811 14210.44129772
0.06100000 1403589.97019675 15664.06479940
0.06200000 1395227.82248810 14503.39389270
0.06300000 1386784.04534524 15975.75294933
0.06400000 1378257.11991699 21500.81207623
0.06500000 1369653.44427607 16271.48367914
0.06600000 1360973.44260307 19148.89723337
0.06700000 1352219.34426442 17930.42934407
0.06800000 1343393.83908693 13904.12688539
0.06900000 1334499.92592371 14012.24987824
0.07000000 1325538.05765434 16940.37717011
0.07100000 1316511.63921179 18483.82428027
0.07200000 1307422.78511865 15747.90818449
0.07300000 1298274.40099305 20175.18513675
0.07400000 1289068.64246579 17402.42748884
0.07500000 1279807.42375848 23343.68850353
0.07600000 1270491.61277739 16141.59669706
0.07700000 1261126.51871979 19181.73524913
0.07800000 1251712.54278888 16316.07376042
0.07900000 1242251.55560175 16397.72130306
0.08000000 1232748.22368234 14977.89162037
0.08100000 1223202.97511521 16549.93702980
0.08200000 1213617.83629865 18131.45132512
0.08300000 1203995.90809370 16687.38406935
0.08400000 1194339.24994562 19796.17399705
0.08500000 1184650.20346749 18338.38601058
0.08600000 1174930.71245953 18399.41582100
0.08700000 1165184.58652789 19994.56844372
0.08800000 1155411.16552330 18509.68774097
0.08900000 1145615.74554833 15465.81329133
0.09000000 1135798.49701788 24805.84034014
0.09100000 1125962.20135694 15538.27910873
0.09200000 1116108.34540624 21797.59700998
0.09300000 1106242.49563388 17157.82191356
0.09400000 1096360.99117434 17185.45934433
0.09500000 1086470.09844384 15645.17015296
0.09600000 1076570.60509841 15664.10304052
0.09700000 1066666.97067101 18816.00624723
0.09800000 1056759.24441720 17262.16306918
0.09900000 1046850.01425416 21983.85133307
0.10000000 1036940.03270748 20422.53490459
0.10100000 1027031.80973805 20427.66365644
0.10200000 1017128.47266839 18857.56277026
0.10300000 1007230.91123904 20426.64384081
0.10400000 997342.66209264 18849.77720034
0.10500000 987465.78068582 18840.84798194
0.10600001 977597.99466855 20397.58311854
0.10700001 967746.83519024 15677.49946783
0.10800001 957910.44933675 20360.38755885
0.10900001 948092.87954389 17207.88657362
0.11000001 938294.22742821 17184.85958423
0.11100001 928517.41570302 20278.82131355
0.11200001 918763.58112358 18687.65211981
0.11300001 909034.87071384 17098.94672316
0.11400001 899333.05431792 23270.24387614
0.11500001 889660.64604091 21672.13435805
0.11600001 880017.82928875 24710.90181010
0.11700001 870407.69281931 21568.70364384
0.11800001 860829.39305612 21512.12754566
0.11900001 851286.02437559 18387.77899261
0.12000001 841778.35806741 21389.58908605
0.12100001 832311.57936415 22846.95392982
0.12200001 822882.64874107 18218.62270143
0.12300001 813496.20264140 16644.13309022
0.12400001 804150.79809304 21108.95944454
0.12500001 794848.73708959 24036.22694219
0.12600001 785593.89093390 14965.56432752
0.12700001 776384.84864933 22359.88469484
0.12800001 767223.31983296 22268.65790766
0.12900001 758111.53451584 17739.81074378
0.13000001 749050.48672451 19134.49558528
0.13100001 740040.16367706 19048.63471095
0.13200001 731083.10706152 16043.61954077
0.13300001 722180.47665504 23225.32522414
0.13400001 713331.73564287 21667.45249168
0.13500001 704540.44548892 15809.88834218
0.13600001 695805.95293337 18588.45690907
0.13700001 687129.87253842 14223.58903223
0.13800001 678511.54802146 15561.66308769
0.13900001 669955.16916187 14069.05921587
0.14000001 661458.55296466 16787.81886597
0.14100001 653025.05524896 18082.26463266
0.14200001 644653.75925721 17976.17092474
0.14300001 636347.18941859 17868.62992169
0.14400001 628102.03301916 20491.82979385
0.14500001 619924.85048427 14933.99035263
0.14600001 611812.51666275 18886.65328034
0.14700001 603768.10418053 16084.38305417
0.14800001 595788.61345397 17310.63898060
0.14900001 587877.83589885 15872.70231816
0.15000001 580035.06547566 14451.57433819
0.15100001 572261.70212046 14352.32416640
0.15200001 564558.52392262 16843.60435603
0.15300001 556925.30601723 14151.47269369
0.15400001 549360.54433445 15327.15991024
0.15500001 541868.60258198 15215.67107857
0.15600001 534445.79869903 16362.05889938
0.15700001 527097.77253872 14990.66135851
0.15800001 519818.43451023 13637.43727305
0.15900001 512613.51811706 18454.08752326
0.16000001 505478.84846677 13428.04624336
0.16100001 498419.38587138 14533.90997807
0.16200001 491432.15410422 13217.06840856
0.16300001 484517.73995796 16686.79175190
0.16400001 477677.40395957 11822.51630614
0.16500001 470909.35901858 11725.64359315
0.16600001 464216.17571486 13954.33890082
0.16700001 457595.22966998 12684.54036535
0.16800001 451048.42193794 17151.11705400
0.16900001 444576.52602363 11336.70194890
0.17000001 438176.86290070 15734.93188976
0.17100001 431851.76122759 14484.30875554
0.17200001 425599.63261163 14357.60428416
0.17300001 419421.44860331 14230.97042316
0.17400001 413317.63202974 15189.42369443
0.17500001 407285.83975660 15053.28534833
0.17600001 401326.16795705 10655.21026250
0.17700001 395442.56616432 10558.31701526
0.17800001 389629.66291736 13600.02402649
0.17900001 383889.30146565 11401.51279206
0.18000001 378222.67091398 11295.62060039
0.18100001 372628.60029221 13224.58964905
0.18200001 367104.00156955 11084.70585101
0.18300001 361652.21514827 10979.76177058
0.18400001 356271.28457575 10875.18147543
0.18500001 350961.81025682 11750.20196250
0.18600001 345723.16457483 12606.79579181
0.18700001 340553.61637244 11524.33492251
0.18800001 335452.63874271 9510.08275767
0.18900001 330424.57029263 12242.23090776
0.19000001 325461.47871277 10256.91898626
0.19100001 320569.62020109 9232.40549802
0.19200001 315744.09006840 11883.02939121
0.19300001 310988.12810835 12669.65693781
0.19400001 306297.32844471 9855.11700840
0.19500001 301674.10163399 10643.06280859
0.19600001 297115.68780954 11413.69968657
0.19700001 292624.72167349 11298.24103774
0.19800001 288197.50964276 10323.23528327
0.19900001 283835.26162605 10218.06990144
0.20000001 279535.49154197 15170.39184295
0.20100001 275300.66262940 11678.25466068
0.20200001 271127.21101985 9906.98875890
0.20300001 267016.66470160 10621.92342387
0.20400001 262967.66163243 8894.88157514
0.20500001 258979.14610240 9602.94719138
0.20600001 255050.73913652 10295.12357188
0.20700001 251182.21049396 8620.57387164
0.20800001 247372.40612050 10857.17541785
0.20900001 243623.12542830 9208.95457651
0.21000001 239928.68540636 9112.49190250
0.21100001 236293.09420694 8265.53282610
0.21200001 232712.70100608 8178.68826350
0.21300001 229188.03297183 9564.01706806
0.21400001 225718.85139597 8735.31996200
0.21500001 222305.19650314 11524.30193156
0.21600001 218943.66763440 7126.61671844
0.21700001 215636.00464741 8461.55722242
0.21800001 212380.68709909 6976.70590107
0.21900001 209176.16756401 8283.37662719
0.22000001 206022.34479075 6829.64105274
0.22100001 202920.43688810 9460.15121503
0.22200001 199867.45039076 6685.56653169
0.22300001 196863.09136954 7937.52021935
0.22400001 193906.32999130 7198.77284133
0.22500001 190999.42737867 7122.36898375
0.22600001 188137.28288942 9609.11217797
0.22700001 185322.51333285 10774.65143470
0.22800001 182552.36769282 8151.87636483
0.22900001 179826.78602854 6204.02441138
0.23000001 177145.88291533 6138.10513330
0.23100001 174509.46625440 7287.51565543
0.23200001 171914.15049270 7810.91979704
0.23300001 169362.00026774 7727.98843771
0.23400001 166850.33855165 7645.91712575
0.23500001 164379.35977294 9892.35033901
0.23600001 161948.91847123 7484.46962114
0.23700001 159557.76098483 6835.45480389
0.23800001 157205.22061165 8453.71113824
0.23900001 154891.01697741 6691.29224992
0.24000001 152613.56652752 7172.07489820
0.24100001 150374.20853609 6004.44243086
0.24200001 148170.99321275 6480.99954969
0.24300001 146002.79517493 7481.18357864
0.24400001 143869.44139405 5815.92244347
0.24500001 141770.07335545 5231.31595428
0.24600001 139704.68074960 7764.08799994
0.24700001 137673.02537482 6145.72414346
0.24800001 135673.59131966 6587.63153817
0.24900001 133704.70219165 5515.31922632
0.25000001 131768.66422991 5953.30853155
0.25100001 129862.63664731 4908.80789750
0.25200001 127988.53774571 7771.46437959
0.25300001 126142.29225290 5286.62371843
0.25400001 124326.38687145 4755.48452282
0.25500001 122537.44096396 4705.43795564
0.25600001 120777.97583905 5587.18942666
0.25700001 119045.07383558 5528.45349049
0.25800001 117339.08599294 5014.48607716
0.25900001 115660.59313489 5863.99234939
0.26000001 114006.96974272 4909.71038428
0.26100001 112378.79247524 5299.78410390
0.26200001 110776.60966087 4807.15120369
0.26300001 109197.65370745 5189.07274971
0.26400001 107643.39514529 7274.00277114
0.26500001 106112.87824909 7197.63687222
0.26600001 104605.03003805 5446.26114665
0.26700001 103120.16533666 4559.97392697
0.26800001 101657.86042170 5742.65280697
0.26900001 100216.41738599 4870.51811544
0.27000001 98797.23567030  4016.10782005
0.27100001 97398.63395165  4768.63734394
0.27200001 96021.42207103  4718.49290387
0.27300001 94664.02254431  4668.82981283
0.27400001 93325.27488002  5774.50165648
0.27500001 92007.82191200  4570.94880891
0.27600001 90707.38153507  4145.78106926
0.27700001 89427.73444288  5966.61872441
0.27800001 88165.27627298  4427.66038398
0.27900001 86921.30358472  5476.04238501
0.28000001 85694.66343936  4695.63930540
0.28100001 84485.77122484  3931.12312115
0.28200001 83294.22006695  4243.00777103
0.28300001 82119.44959128  4897.60420543
0.28400001 80960.49425118  3807.16742236
0.28500001 79818.39353116  3424.20924456
0.28600001 78692.12658765  3726.46583094
0.28700001 77582.03278441  4357.00716740
0.28800001 76485.77429761  4973.48770911
0.28900001 75406.70410697  3608.21096231
0.29000001 74341.39833426  4543.00306725
0.29100001 73291.46559282  3531.18297941
0.29200001 72255.53906314  4445.88352900
0.29300001 71234.26712190  3141.43132878
0.29400001 70226.10957170  4039.75714434
0.29500001 69233.21123371  4303.53661400
0.29600001 68252.62203190  3648.78534655
0.29700001 67285.58897991  3308.43256676
0.29800001 66332.40920067  4462.51304022
0.29900001 65392.51273964  3825.46217636
0.30000001 64464.35312595  2910.56568142
0.30100001 63550.10102090  2878.81971253
0.30200001 62647.34700145  3132.05426161
0.30300001 61757.73480761  3660.99869271
0.30400001 60880.06721037  3342.31584808
0.30500001 60015.18364454  3305.63647164
0.30600001 59160.71132261  4358.96141661
0.30700001 58319.18584635  3502.65046776
0.30800001 57489.01941578  3464.00102890
0.30900001 56670.59050414  2898.70084152
0.31000001 55863.57891062  3648.45051139
0.31100001 55067.33592132  2577.15144313
0.31200001 54283.14542824  3822.89069778
0.31300001 53509.33870913  3024.34796703
0.31400001 52747.87289475  3987.73937965
0.31500001 51995.75858822  3203.97879591
0.31600002 51256.01467157  2680.94597433
0.31700002 50526.01049508  3374.12714062
0.31800002 49806.56283639  3574.86621685
0.31900002 49098.27768439  2592.38918448
0.32000002 48400.68722633  3728.78912047
0.32100002 47712.85866094  3226.34365542
0.32200002 47036.57936517  2506.81461597
0.32300002 46368.84291265  4056.34657007
0.32400002 45712.66903393  2451.34199302
0.32500002 45066.05884840  2644.47645844
0.32600002 44429.79512383  2397.20970942
0.32700002 43803.79206519  2586.17600599
0.32800002 43188.46950548  3623.29682074
0.32900002 42581.27710710  2740.10531160
0.33000002 41985.20442690  2084.56549851
0.33100002 41397.98998782  2680.10599873
0.33200002 40822.02279232  2242.96614854
0.33300002 40255.00735168  2218.45356021
0.33400002 39698.21235067  2593.28584461
0.33500002 39151.04737670  2367.85545748
0.33600002 38612.76269902  2537.43782093
0.33700002 38084.11032069  3282.46962399
0.33800002 37565.91706559  2101.24967057
0.33900002 37056.29491003  3590.75514683
0.34000002 36556.34156012  2056.84265529
0.34100002 36065.88837742  2035.19817752
0.34200002 35585.42276740  2013.95709690
0.34300002 35113.53544251  1811.85851464
0.34400002 34651.83109352  1972.55557842
0.34500002 34198.78779502  2662.37575593
0.34600002 33755.74071073  1932.68502593
0.34700002 33320.68795597  2956.87798925
0.34800002 32895.66645730  1894.29704266
0.34900002 32479.20772861  2728.25357842
0.35000002 32072.27992171  2364.04786500
0.35100002 31675.00987826  2174.17278102
0.35200002 31285.20431118  1656.55164674
0.35300002 30905.65005967  1969.30811508
0.35400002 30534.23900759  1951.13796500
0.35500002 30172.31451555  2094.56217288
0.35600002 29818.59863678  2554.85765221
0.35700002 29473.68729067  2057.55820722
0.35800002 29137.81931532  1882.88597334
0.35900002 28811.11902017  1866.96060094
0.36000002 28492.74657480  2005.74699014
0.36100002 28182.40173892  1836.36538429
0.36200002 27882.14253208  2125.45582590
0.36300002 27588.72868944  1656.97912357
0.36400002 27304.53995655  2391.87781349
0.36500002 27027.79005245  1780.59089300
0.36600002 26760.47571101  1620.48068344
0.36700002 26500.67873444  1901.68879606
0.36800002 26250.07935611  2034.11874566
0.36900002 26007.23185455  1732.08172356
0.37000002 25771.87170646  2007.88661976
0.37100002 25544.51224811  2138.07577645
0.37200002 25325.84165181  1842.07517980
0.37300002 25114.79356545  2113.40997865
0.37400002 24911.31606476  1541.38775452
0.37500002 24715.81634193  1672.76652926
0.37600002 24528.00308300  1664.47036806
0.37700002 24347.79747423  1794.67623684
0.37800002 24174.89535317  2061.51429890
0.37900002 24010.41894793  1779.17212833
0.38000002 23852.46122914  1772.11869097
0.38100002 23701.08393369  2037.10826060
0.38200002 23558.20954114  1624.10304271
0.38300002 23421.66929571  1753.81467995
0.38400002 23292.46887084  1748.68218332
0.38500002 23169.64026634  2146.43557596
0.38600002 23054.70456601  1739.82336250
0.38700002 22945.56273009  1468.97499557
0.38800002 22843.15330406  2132.63689350
0.38900002 22747.45068312  1463.79852081
0.39000002 22658.59234837  1461.81915461
0.39100002 22575.37124787  1460.17508149
0.39200002 22499.33098833  1458.96918706
0.39300002 22428.54137305  1590.63222954
0.39400002 22365.25193735  1855.19773610
0.39500002 22306.53706564  1457.50920092
0.39600002 22253.89135408  1722.78508080
0.39700002 22206.61181533  1856.02870346
0.39800002 22166.05756102  1989.95791182
0.39900002 22130.01616579  1460.58113614
0.40000002 22099.74922263  1595.15997447
0.40100002 22074.49438910  1597.31048967
0.40200002 22054.94096493  1733.18761785
0.40300002 22040.21965108  1469.20111155
0.40400002 22030.45252139  1472.18505949
0.40500002 22025.03612723  1609.58971644
0.40600002 22025.42088305  1748.04761121
0.40700002 22029.59009654  1348.21097779
0.40800002 22038.42510485  1487.26318867
0.40900002 22051.24617470  1491.76687440
0.41000002 22068.95598452  1496.60632100
0.41100002 22090.59086540  1365.19858017
0.41200002 22115.22382318  1507.04199884
0.41300002 22145.41481189  1650.27638998
0.41400002 22178.30742244  1380.59970246
0.41500002 22214.94611604  1524.83397366
0.41600002 22254.21906403  2227.20234946
0.41700002 22298.22576237  1957.33835017
0.41800002 22345.96489053  1966.22154389
0.41900002 22394.96972643  1410.88315962
0.42000002 22447.62613207  2409.86501760
0.42100002 22503.92607505  1709.39830566
0.42200002 22562.53261801  1574.75203869
0.42300002 22623.48573684  2158.28064157
0.42400002 22686.90492364  2458.69343761
0.42500002 22753.36618381  1599.33418485
0.42600002 22820.73548909  1607.83499507
0.42700002 22891.55914574  1763.56580016
0.42800002 22963.60543645  2068.79131180
0.42900002 23038.36751869  1783.16973045
0.43000002 23114.86033644  1793.25094988
0.43100002 23191.52091829  2254.21594008
0.43200002 23271.00897200  2267.17815653
0.43300002 23351.22332786  1520.16471068
0.43400002 23433.36393604  1834.83248314
0.43500002 23515.98630983  1691.74013530
0.43600002 23600.56303754  1856.42037651
0.43700002 23685.16978466  2178.56202003
0.43800002 23770.29020257  2347.91052602
0.43900002 23857.19918868  1732.03274318
0.44000002 23943.97197741  1742.28320350
0.44100002 24031.69613150  2389.95229354
0.44200002 24119.60714747  1923.29756509
0.44300002 24207.87468100  2418.36679524
0.44400002 24296.22868508  2108.30534406
0.44500002 24383.99873130  1794.41855168
0.44600002 24471.80795922  1640.83480143
0.44700002 24560.52608192  1980.56091711
0.44800002 24647.78187530  1826.03100677
0.44900002 24735.31930365  2170.52437176
0.45000002 24822.72917200  2183.03502049
0.45100002 24908.64765070  2533.20958613
0.45200002 24994.43049576  2038.04595921
0.45300002 25079.01297765  2561.82129708
0.45400002 25163.11707368  2404.33595034
0.45500002 25246.69725382  2935.68609581
0.45600002 25328.56992183  2083.52826052
0.45700002 25409.84333756  2269.35321603
0.45800002 25489.44308892  1754.94823985
0.45900002 25567.82097089  2293.43364978
0.46000002 25645.38908289  2482.73023478
0.46100002 25720.61570157  1782.43875260
0.46200002 25795.08161423  2149.76220362
0.46300002 25867.84288284  2340.52253497
0.46400002 25938.36236505  1990.12094678
0.46500002 26008.39727222  2545.18187769
0.46600002 26075.49252273  2557.22367291
0.46700002 26140.82616108  2569.12051688
0.46800002 26204.96069808  2580.92670148
0.46900002 26266.35306462  2036.95577671
0.47000002 26325.90051700  1859.92495968
0.47100002 26383.60144763  2054.75497813
0.47200002 26439.26968258  2438.62615476
0.47300002 26492.59655566  2260.34844526
0.47400002 26543.05403658  2269.43122769
0.47500002 26591.76305318  2278.38236639
0.47600002 26638.84242756  1906.00926603
0.47700002 26682.21949037  2104.42675095
