# SAXS profile: number of points = 501, q_min = 0, q_max = 0.5, delta_q = 0.001
#    q    intensity    error
0.00000000 1664650.74656090 324.60689558
0.00100000 1664568.95971150 549.30776975
0.00200000 1664323.53503037 898.73473737
0.00300000 1663914.70098676 1397.68839862
0.00400000 1663342.31847165 1746.50950076
0.00500000 1662606.91674303 1496.34628430
0.00600000 1661708.36078496 2268.23200482
0.00700000 1660647.25711185 2789.88750790
0.00800000 1659423.42168349 2240.22171385
0.00900000 1658038.05740768 3481.88006940
0.01000000 1656490.58137466 4373.13532366
0.01100000 1654782.28027109 4170.05152784
0.01200000 1652913.02910644 3867.81665769
0.01300000 1650883.98375545 3813.54217067
0.01400000 1648695.25049776 6677.21606052
0.01500000 1646348.19864962 4741.48302324
0.01600000 1643842.21867619 6287.69676752
0.01700000 1641179.61563914 4431.18516100
0.01800000 1638360.21506129 5603.19218764
0.01900000 1635384.84234140 5396.77022324
0.02000000 1632254.72437664 6169.92313724
0.02100000 1628971.58861519 5913.16713477
0.02200000 1625534.23232091 6168.90269193
0.02300000 1621945.94395126 6422.90623041
0.02400000 1618205.96945153 6068.27266214
0.02500000 1614317.19039405 9443.75599511
0.02600000 1610279.28093753 7173.79452469
0.02700000 1606094.65191157 10792.95655518
0.02800000 1601763.03074633 8361.20340394
0.02900000 1597286.91292883 9344.12886966
0.03000000 1592667.77121004 11849.44876247
0.03100000 1587905.82761480 13719.50698187
0.03200000 1583002.52626579 9403.03543911
0.03300000 1577961.95739074 8047.60635369
0.03400000 1572781.96718567 9908.52685045
0.03500000 1567465.89700402 9310.74785816
0.03600000 1562014.91417254 10403.01980915
0.03700000 1556430.78506264 9758.82147366
0.03800000 1550715.24777025 9978.85308122
0.03900000 1544870.18449759 12976.91015074
0.04000000 1538895.72326071 10410.63005028
0.04100000 1532795.56208821 10622.27373779
0.04200000 1526570.55622047 15754.20887108
0.04300000 1520221.82984701 11036.81099700
0.04400000 1513752.77799822 13283.18124383
0.04500000 1507164.90996187 12479.32603433
0.04600000 1500457.91040051 11636.05163608
0.04700000 1493636.36241728 11829.60054051
0.04800000 1486700.69873200 12019.97570852
0.04900000 1479654.35176792 11097.40815482
0.05000000 1472497.11800550 15770.44486821
0.05100000 1465233.75478526 18286.11811156
0.05200000 1457862.28624296 16226.00800204
0.05300000 1450388.96315547 12922.96626416
0.05400000 1442813.61637556 14283.85546823
0.05500000 1435138.82483930 13260.68336012
0.05600000 1427365.69249899 17085.56813650
0.05700000 1419499.34090783 12349.64484236
0.05800000 1411538.66582844 14990.54133104
0.05900000 1403486.36458208 18947.06680680
0.06000000 1395346.26041945 17874.38643104
0.06100000 1387119.64538489 15480.25596591
0.06200000 1378808.40313841 14332.71402059
0.06300000 1370416.32351282 18418.39624917
0.06400000 1361941.76783651 18590.50600039
0.06500000 1353391.01289461 14738.42881985
0.06600000 1344764.69914845 13514.88585878
0.06700000 1336064.79954957 17716.22007113
0.06800000 1327294.35463016 21979.99554154
0.06900000 1318456.09304941 22150.06340027
0.07000000 1309550.46872186 13946.71314499
0.07100000 1300580.84175314 15450.90112371
0.07200000 1291549.51450032 19799.45498483
0.07300000 1282459.13712181 22776.47534249
0.07400000 1273312.08494594 20054.66627774
0.07500000 1264110.21654671 20175.20000175
0.07600000 1254854.25073951 15942.92400306
0.07700000 1245549.66234811 16030.22490605
0.07800000 1236196.71752799 19043.61132659
0.07900000 1226797.29116252 14721.56818445
0.08000000 1217356.16703886 22186.31718507
0.08100000 1207873.55586646 14856.84543421
0.08200000 1198351.54820012 17903.37297023
0.08300000 1188793.48779970 20970.31810897
0.08400000 1179201.11676799 18041.77793341
0.08500000 1169577.00583926 18105.05290034
0.08600000 1159922.66094192 25732.88544119
0.08700000 1150242.26686943 21256.47808990
0.08800000 1140535.18198704 21316.60355245
0.08900000 1130806.56289810 24425.42290585
0.09000000 1121056.64817702 16832.66636310
0.09100000 1111288.04541280 23003.66362078
0.09200000 1101502.24652268 18439.14847318
0.09300000 1091705.26549673 16932.34946354
0.09400000 1081892.90449487 21583.76445906
0.09500000 1072071.48812941 23156.74523202
0.09600000 1062241.81832105 18546.74301973
0.09700000 1052408.52914251 20111.52793741
0.09800000 1042571.44881663 15482.18674286
0.09900000 1032733.49260566 18589.20374101
0.10000000 1022894.96819124 20145.91734593
0.10100000 1013058.90295408 18599.76233302
0.10200000 1003227.83561024 24799.79326278
0.10300000 993402.86506301 20146.21105117
0.10400000 983587.59665878 17040.65591379
0.10500000 973784.05266804 17031.48388248
0.10600001 963990.04216792 17019.24499529
0.10700001 954212.79197627 20095.72234468
0.10800001 944450.84211940 21618.48079352
0.10900001 934707.92909054 23134.02233381
0.11000001 924984.10578387 21561.38052071
0.11100001 915282.51300886 19989.77102510
0.11200001 905604.30446433 18419.99241996
0.11300001 895951.35872199 16852.84585101
0.11400001 886325.69756155 19875.85470366
0.11500001 876729.43455524 21357.13003143
0.11600001 867163.18942778 21306.20056758
0.11700001 857629.86293078 18216.05914653
0.11800001 848128.66602445 18166.91688187
0.11900001 838662.54442638 16605.51916179
0.12000001 829232.39053029 15050.56859708
0.12100001 819843.20345533 24005.01012800
0.12200001 810492.30890717 16448.94218420
0.12300001 801183.71376352 17882.42133372
0.12400001 791916.67812758 19302.96993887
0.12500001 782692.84571386 19230.76412535
0.12600001 773516.58027431 20629.68816806
0.12700001 764386.20157397 19079.08049041
0.12800001 755303.61330669 18999.66328817
0.12900001 746270.66146772 20373.19001830
0.13000001 737288.77093130 18834.04254118
0.13100001 728357.85418765 14421.48619271
0.13200001 719479.85058066 15788.98606529
0.13300001 710656.73023730 14284.20095117
0.13400001 701887.49641006 17055.86696687
0.13500001 693175.70140215 16968.94197038
0.13600001 684520.76051608 18286.97297943
0.13700001 675924.50896341 13991.63799529
0.13800001 667385.93931596 15306.49724000
0.13900001 658909.28109447 17988.22422217
0.14000001 650492.50730483 15133.70889616
0.14100001 642138.90428616 16413.07116764
0.14200001 633847.58273602 14955.63442004
0.14300001 625620.81130622 20270.11524241
0.14400001 617455.61300782 13429.66021640
0.14500001 609358.17222955 21351.91136214
0.14600001 601325.86379640 13259.23592221
0.14700001 593361.18150173 15807.14262093
0.14800001 585461.36287666 15702.07449316
0.14900001 577630.44750865 15596.02281857
0.15000001 569867.49931134 20651.99914946
0.15100001 562173.62116618 19226.33875108
0.15200001 554550.15643455 15272.31202886
0.15300001 546996.28263368 16426.29914263
0.15400001 539511.15132169 15052.36183221
0.15500001 532098.48079035 13696.21554191
0.15600001 524755.00269670 17301.17325544
0.15700001 517486.01186600 12264.41906007
0.15800001 510285.75361001 15821.41053743
0.15900001 503159.78322015 13283.41890400
0.16000001 496103.86126316 14377.09057804
0.16100001 489123.14963357 15451.40102630
0.16200001 482214.59306857 12969.16209280
0.16300001 475378.56289973 14033.17583928
0.16400001 468616.28318625 17397.38033461
0.16500001 461926.53229610 12652.16831692
0.16600001 455310.89665632 15967.75389962
0.16700001 448767.95559822 12439.84831653
0.16800001 442298.63272994 19060.86047748
0.16900001 435903.93097937 12227.10584131
0.17000001 429581.30621786 16528.14153719
0.17100001 423333.14262324 14198.59427406
0.17200001 417157.92925046 14072.82340782
0.17300001 411056.01428203 11801.41872735
0.17400001 405028.58060259 10632.00074293
0.17500001 399072.81904558 17910.38896463
0.17600001 393188.97961329 10439.16790177
0.17700001 387380.91174978 16548.91333157
0.17800001 381643.28962230 13321.25965346
0.17900001 375978.02562975 11166.54788864
0.18000001 370385.97756309 12067.17571900
0.18100001 364866.53602473 14941.28535599
0.18200001 359416.19985373 16772.15775846
0.18300001 354038.21086360 13680.03711400
0.18400001 348731.14523835 10645.01871128
0.18500001 343494.98495536 10541.86158630
0.18600001 338329.28629878 12337.17800774
0.18700001 333232.78188882 12216.31436120
0.18800001 328204.23541885 10235.04956510
0.18900001 323248.33073082 11055.09343332
0.19000001 318356.94355483 12769.29760932
0.19100001 313536.63197529 12641.79759857
0.19200001 308782.34507182 9833.17424344
0.19300001 304097.09499512 12388.91623551
0.19400001 299476.83851345 11387.60732258
0.19500001 294923.84477353 8670.76144608
0.19600001 290435.17004103 11157.06758437
0.19700001 286013.65223225 11042.98763455
0.19800001 281655.47486454 12611.12448305
0.19900001 277361.91996006 9152.94379125
0.20000001 273130.42894308 13175.81251492
0.20100001 268963.57361093 8149.59666558
0.20200001 264857.78379236 8064.91989765
0.20300001 260814.35520020 8779.01161098
0.20400001 256832.26505903 8687.35177624
0.20500001 252910.28532229 10940.89946018
0.20600001 249047.67169019 7732.93057150
0.20700001 245245.09850205 9947.14166544
0.20800001 241500.38022038 7571.03727779
0.20900001 237816.04630031 7491.20581258
0.21000001 234186.08893997 13341.58211760
0.21100001 230614.37583539 8800.24499790
0.21200001 227097.58681455 11609.22918678
0.21300001 223636.22142153 10768.08457051
0.21400001 220229.80113755 7812.65256471
0.21500001 216878.46654470 11945.66650204
0.21600001 213578.90080924 7647.19290502
0.21700001 210332.67165970 8253.45442615
0.21800001 207138.42080571 8845.84667874
0.21900001 203994.68774168 8078.19001652
0.22000001 200901.04095254 7991.84378697
0.22100001 197858.95358036 7247.57381234
0.22200001 194865.12532601 7170.06262540
0.22300001 191919.62068965 6448.49956009
0.22400001 189021.34945229 7017.41793024
0.22500001 186172.34970641 6942.36724884
0.22600001 183367.82358192 9365.51203232
0.22700001 180610.06662514 7412.23748481
0.22800001 177896.67176456 6721.82606050
0.22900001 175227.15091201 7858.93809006
0.23000001 172601.84296386 8372.91579815
0.23100001 170020.81993259 9466.75970156
0.23200001 167480.22914840 7609.46457124
0.23300001 164982.33953227 7528.14450890
0.23400001 162524.74439752 8593.49626645
0.23500001 160107.08554130 6801.34931547
0.23600001 157729.42939471 6168.00962821
0.23700001 155390.97745741 6656.94978914
0.23800001 153090.41085535 7683.60808425
0.23900001 150827.66439708 5972.77579263
0.24000001 148601.35963211 5371.93940480
0.24100001 146412.55454624 5314.77598142
0.24200001 144259.49103416 7361.56217569
0.24300001 142140.85632622 7283.29782268
0.24400001 140056.83903568 6176.50689364
0.24500001 138006.20284466 7638.64368879
0.24600001 135989.13609527 5542.23750374
0.24700001 134005.21469791 5483.49364484
0.24800001 132052.98485240 6905.05090459
0.24900001 130131.17815562 5855.90329403
0.25000001 128241.47038269 6759.60822366
0.25100001 126381.31262688 5254.93522763
0.25200001 124552.64351929 7090.15956777
0.25300001 122751.50185132 6079.88217434
0.25400001 120980.07031895 4627.48790863
0.25500001 119235.24353033 5952.22363865
0.25600001 117519.27273280 7248.58908511
0.25700001 115829.49585341 7172.16272258
0.25800001 114166.25379641 6209.50283778
0.25900001 112529.80819649 6582.99409097
0.26000001 110918.07701701 4776.68721275
0.26100001 109330.98841167 4296.70804788
0.26200001 107769.76598744 4676.66921631
0.26300001 106231.03630276 5468.77400763
0.26400001 104716.85486497 4994.99421341
0.26500001 103225.73470049 4942.44841133
0.26600001 101756.86287236 4482.89880597
0.26700001 100310.53879027 4838.98062022
0.26800001 98886.26828744  4788.07333705
0.26900001 97482.50133702  4342.84564007
0.27000001 96100.59471112  4297.13829586
0.27100001 94738.64955660  5411.47191876
0.27200001 93397.70832772  3824.63633702
0.27300001 92076.23426753  5298.06677048
0.27400001 90772.91301650  4867.69769087
0.27500001 89490.51339865  3704.90743004
0.27600001 88224.48691079  4032.30036509
0.27700001 86978.98753554  4352.42874226
0.27800001 85750.17650853  5024.10307941
0.27900001 84539.55463386  3905.72760893
0.28000001 83345.70107393  5620.83434645
0.28100001 82169.25806812  4866.06369310
0.28200001 81009.71535929  4126.63509571
0.28300001 79866.48524275  4423.00616209
0.28400001 78738.67635188  4375.90214537
0.28500001 77627.27174316  3996.25213849
0.28600001 76531.30483838  3294.67282924
0.28700001 75451.13377755  3585.43804682
0.28800001 74384.41177857  3869.47728388
0.28900001 73334.38997871  4785.06917261
0.29000001 72297.84914147  4418.12177016
0.29100001 71276.26159024  4058.47052706
0.29200001 70268.24621544  4014.77643756
0.29300001 69274.45005687  4582.50508818
0.29400001 68293.45367453  3928.58110859
0.29500001 67327.29535016  3288.26526056
0.29600001 66373.02229527  2956.91828323
0.29700001 65432.15135117  3802.26249501
0.29800001 64504.53043557  3471.63399238
0.29900001 63589.84000110  4292.31440327
0.30000001 62686.65967323  4245.45422735
0.30100001 61796.87448339  3919.15796527
0.30200001 60918.27268263  2768.73562450
0.30300001 60052.56294053  2738.39699973
0.30400001 59198.31629220  3249.98771830
0.30500001 58356.41513612  3482.12745602
0.30600001 57524.81689540  2913.91973779
0.30700001 56705.63368709  2881.78044041
0.30800001 55897.50771486  2849.93456577
0.30900001 55100.81362498  3587.06313681
0.31000001 54315.15234862  4307.46336094
0.31100001 53539.89827930  3507.93430134
0.31200001 52776.61844244  2973.43482383
0.31300001 52023.17078766  2450.29146011
0.31400001 51281.80044222  2907.67822274
0.31500001 50549.65442898  3354.47522673
0.31600002 49829.27099422  2369.38194796
0.31700002 49118.38966063  2577.24202752
0.31800002 48417.84474283  2316.79398064
0.31900002 47728.15891414  2749.14208362
0.32000002 47048.76596090  3171.55746360
0.32100002 46378.97769384  2912.13614729
0.32200002 45720.35827278  2879.69690217
0.32300002 45069.95852768  2409.44009698
0.32400002 44430.79175556  3465.60192103
0.32500002 43801.10153287  2784.43615629
0.32600002 43181.50821796  2541.66369406
0.32700002 42571.74806323  2932.34214545
0.32800002 41972.44256321  2071.34013858
0.32900002 41380.95836685  2048.35753616
0.33000002 40800.46769194  2836.04064356
0.33100002 40228.53333643  2404.05726603
0.33200002 39667.59053323  2179.53586506
0.33300002 39115.33537923  2351.61407436
0.33400002 38573.17357970  2713.62288984
0.33500002 38040.09532584  2300.66507426
0.33600002 37515.91312072  2086.07244787
0.33700002 37001.08331448  2251.14601546
0.33800002 36496.50083082  2041.43187065
0.33900002 36000.23478833  1836.01206115
0.34000002 35513.46797208  2543.11956192
0.34100002 35035.85499544  1977.07339102
0.34200002 34568.16555705  2134.23864257
0.34300002 34108.86002632  2112.02071285
0.34400002 33659.47667121  1916.06580025
0.34500002 33218.57070435  1896.44829133
0.34600002 32787.32914015  2389.21278760
0.34700002 32363.98506187  2027.28012029
0.34800002 31950.51936128  2007.13172134
0.34900002 31545.44955161  1987.36341588
0.35000002 31149.64726807  1968.03480761
0.35100002 30763.37933637  1786.73715648
0.35200002 30384.36808884  1608.85236650
0.35300002 30015.41656258  1753.20056446
0.35400002 29654.56000132  1579.10539486
0.35500002 29302.93126618  1721.25426410
0.35600002 28959.33582829  1705.84975776
0.35700002 28624.45304664  1998.27316183
0.35800002 28298.32496156  1523.86487136
0.35900002 27981.33585436  1662.09142847
0.36000002 27672.54771034  2397.54964719
0.36100002 27371.51685030  1783.52812244
0.36200002 27080.46580345  2064.34400598
0.36300002 26796.31878990  1755.69489028
0.36400002 26521.07475328  1597.23180267
0.36500002 26253.13861700  1729.55685401
0.36600002 25994.57812461  2575.80286838
0.36700002 25743.33044067  1563.13509840
0.36800002 25501.19756869  1411.49135229
0.36900002 25266.78782610  1542.53746985
0.37000002 25039.68790488  1950.84217708
0.37100002 24820.45531724  2077.47220846
0.37200002 24609.80673707  1652.30250260
0.37300002 24406.62073921  1643.05378600
0.37400002 24211.06956981  1634.24727338
0.37500002 24023.26777166  1354.91236651
0.37600002 23843.10150635  2022.49118108
0.37700002 23670.28505498  1744.73679405
0.37800002 23504.92116065  2538.88417944
0.37900002 23347.78198827  2129.31781820
0.38000002 23197.09804235  1988.57132388
0.38100002 23052.97498926  1849.30974125
0.38200002 22917.17927919  1448.25121316
0.38300002 22787.54920828  1968.84434487
0.38400002 22665.37363342  1832.49554507
0.38500002 22549.46818418  1436.17569669
0.38600002 22441.32656138  1432.99097546
0.38700002 22338.92862435  1430.13827828
0.38800002 22243.24342585  1817.05064154
0.38900002 22154.09138217  1425.61584798
0.39000002 22071.92181525  1423.97010337
0.39100002 21995.17336857  1551.97950641
0.39200002 21925.45755725  1292.50578423
0.39300002 21861.11499929  2067.18713227
0.39400002 21804.14732082  2196.22284294
0.39500002 21751.73106356  1421.25817503
0.39600002 21705.38959386  1551.06721386
0.39700002 21664.25422909  1810.69845426
0.39800002 21629.85073101  1812.36527862
0.39900002 21599.96417509  1555.19749429
0.40000002 21575.76359808  1427.56046610
0.40100002 21556.64548335  1429.85236266
0.40200002 21543.10935444  1432.50912439
0.40300002 21534.26029752  1696.46910662
0.40400002 21530.44453775  1831.16439470
0.40500002 21530.95208300  1442.35854838
0.40600002 21537.19912550  1314.84606891
0.40700002 21547.34516242  1714.30686235
0.40800002 21561.99708649  1984.24287590
0.40900002 21580.55188931  1725.36520530
0.41000002 21604.08127917  1997.83751095
0.41100002 21631.39181467  1336.82007749
0.41200002 21661.90957975  2012.93304308
0.41300002 21697.70103910  1751.65548788
0.41400002 21736.37797217  1759.01647075
0.41500002 21778.64723404  1902.58271252
0.41600002 21823.69734789  1365.07233379
0.41700002 21873.43552856  1920.05026168
0.41800002 21926.74060198  1653.71485456
0.41900002 21981.40625929  1661.79439195
0.42000002 22039.69759904  1948.52975706
0.42100002 22101.53780152  1678.83289096
0.42200002 22165.84106948  1687.70721900
0.42300002 22232.44984874  1555.38226512
0.42400002 22301.45254949  1990.40473436
0.42500002 22373.42257097  1572.62794703
0.42600002 22446.41438543  2300.30865522
0.42700002 22522.88064649  1879.75970783
0.42800002 22600.54651740  1745.21428477
0.42900002 22680.92589368  2048.08770525
0.43000002 22762.98033447  1913.11477287
0.43100002 22845.18650239  2072.51541771
0.43200002 22930.33831186  1936.12320711
0.43300002 23016.09661293  2247.52194076
0.43400002 23103.76895107  1507.52099550
0.43500002 23192.01216304  1971.78496754
0.43600002 23282.16355290  1831.37507186
0.43700002 23372.33854896  1689.11898698
0.43800002 23463.08904660  2781.08007649
0.43900002 23555.55785162  1865.60027026
0.44000002 23647.91177414  2346.46415699
0.44100002 23741.24528390  1888.85356430
0.44200002 23834.74557191  2217.34648564
0.44300002 23928.63602862  2071.74140554
0.44400002 24022.58644910  1763.85849362
0.44500002 24115.95762914  1774.69340603
0.44600002 24209.37750238  1785.56272231
0.44700002 24303.67209061  2286.48957864
0.44800002 24396.60103200  2136.04450459
0.44900002 24489.75212887  1653.05834704
0.45000002 24582.74420461  2161.92954153
0.45100002 24674.23844698  2342.07882438
0.45200002 24765.67703987  1682.82783461
0.45300002 24855.92768278  2031.22650650
0.45400002 24945.64618775  2043.04851960
0.45500002 25034.75307125  2054.85262947
0.45600002 25122.31804510  2583.20247541
0.45700002 25209.16634422  2078.24377191
0.45800002 25294.40771219  1915.67205887
0.45900002 25378.46493016  1926.22557949
0.46000002 25461.62715523  1936.73876135
0.46100002 25542.50489579  2478.13394244
0.46200002 25622.60875301  2135.38831468
0.46300002 25700.96420849  2325.42335180
0.46400002 25777.09383485  2337.33809425
0.46500002 25852.72120608  1807.10529795
0.46600002 25925.41682002  3087.32840834
0.46700002 25996.38539768  2007.44097555
0.46800002 26066.09882186  2383.87518074
0.46900002 26133.12740800  2395.10124046
0.47000002 26198.26583895  2961.45211080
0.47100002 26261.55898953  3160.84138979
0.47200002 26322.78184984  2427.88189899
0.47300002 26381.62299863  2438.45352934
0.47400002 26437.73558028  2072.05762431
0.47500002 26492.01385125  2269.83585436
0.47600002 26544.55558761  2089.18934655
0.47700002 26593.52523651  2669.45818977
