# SAXS profile: number of points = 501, q_min = 0, q_max = 0.5, delta_q = 0.001
#    q    intensity    error
0.00000000 1664650.74656090 299.63713438
0.00100000 1664568.94171997 549.30776381
0.00200000 1664323.46213413 898.73469801
0.00300000 1663914.53219776 998.34875488
0.00400000 1663342.00820378 1621.75851962
0.00500000 1662606.44033722 1645.98044108
0.00600000 1661707.68803600 2617.18971521
0.00700000 1660646.33137561 2590.60838461
0.00800000 1659422.21085370 2688.26409508
0.00900000 1658036.54076942 2984.46590096
0.01000000 1656488.69655820 3006.52711407
0.01100000 1654780.02065212 3276.46458355
0.01200000 1652910.33458408 4190.12788188
0.01300000 1650880.84995442 3466.84993781
0.01400000 1648691.62726045 4822.42322352
0.01500000 1646343.99380997 4741.47091330
0.01600000 1643837.46959204 6287.67860227
0.01700000 1641174.24281871 7089.87304702
0.01800000 1638354.17442612 6070.10248939
0.01900000 1635378.16207724 5396.74817837
0.02000000 1632247.29067425 5655.73711803
0.02100000 1628963.37657524 5913.13732506
0.02200000 1625525.27175891 5608.06244236
0.02300000 1621936.10192284 7590.66130251
0.02400000 1618195.32107346 8495.52582301
0.02500000 1614305.62535635 7554.95067171
0.02600000 1610266.77505891 7173.73881100
0.02700000 1606081.20262674 10118.31203998
0.02800000 1601748.52255090 9754.64894968
0.02900000 1597271.43124922 11500.35483302
0.03000000 1592651.12780542 8146.41089318
0.03100000 1587888.25571216 9146.23677375
0.03200000 1582983.86698322 8619.34755271
0.03300000 1577941.91188984 9657.00494596
0.03400000 1572760.83889688 9908.39374223
0.03500000 1567443.42848490 9310.61439515
0.03600000 1561991.25104450 14737.38813467
0.03700000 1556405.86675103 13307.27077615
0.03800000 1550688.94292422 11792.98995671
0.03900000 1544842.65759202 9269.05637480
0.04000000 1538866.73294784 17981.65860775
0.04100000 1532765.14748594 10622.06296459
0.04200000 1526538.72384056 12800.02779323
0.04300000 1520188.42681866 12039.89289927
0.04400000 1513717.93897547 15326.39484391
0.04500000 1507128.50957180 15598.78079886
0.04600000 1500419.98422877 11635.75751860
0.04700000 1493596.92373139 12904.67802121
0.04800000 1486659.39769753 10926.94708149
0.04900000 1479611.48834015 12206.79534700
0.05000000 1472452.65877340 13517.11603698
0.05100000 1465187.59445919 14857.00289992
0.05200000 1457814.34667413 12748.58705577
0.05300000 1450339.22698531 14097.29794348
0.05400000 1442762.19023505 14283.34634941
0.05500000 1435085.58463181 15671.13531523
0.05600000 1427310.70649727 17084.90995403
0.05700000 1419442.35805473 12349.14909152
0.05800000 1411479.94555495 19986.55696228
0.05900000 1403425.73180863 17683.16504670
0.06000000 1395283.75255324 12766.84693231
0.06100000 1387055.09769104 18059.45821588
0.06200000 1378741.98552545 20846.57979559
0.06300000 1370347.73447941 19733.00829913
0.06400000 1361871.21757435 14606.06949156
0.06500000 1353318.44577852 16077.42388792
0.06600000 1344690.33983512 13514.13854765
0.06700000 1335988.23614832 16352.49677574
0.06800000 1327215.78404911 15110.35240870
0.06900000 1318375.22825494 15227.23459927
0.07000000 1309467.54776010 15340.41304038
0.07100000 1300495.86580312 18258.96281108
0.07200000 1291462.33029342 15555.66449712
0.07300000 1282370.08656142 14234.30862779
0.07400000 1273220.69551690 21485.60024375
0.07500000 1264016.46415268 20173.70371347
0.07600000 1254758.41237542 15941.70637659
0.07700000 1245451.69830616 16028.96410877
0.07800000 1236096.42224011 16112.51761952
0.07900000 1226694.85345545 22080.50839786
0.08000000 1217251.34617863 14789.60454987
0.08100000 1207766.62530064 19312.18924465
0.08200000 1198242.29783397 16409.92903888
0.08300000 1188682.08853474 16475.13452030
0.08400000 1179087.42690189 19543.37501824
0.08500000 1169460.95574463 16594.65174105
0.08600000 1159804.45726023 18162.53865345
0.08700000 1150121.75215735 18217.92940964
0.08800000 1140412.10823248 22836.75353986
0.08900000 1130681.40650580 16790.61967526
0.09000000 1120928.84825295 16830.74744715
0.09100000 1111158.14958208 19934.17814003
0.09200000 1101370.15141507 27655.40580147
0.09300000 1091570.85841253 21547.60975763
0.09400000 1081756.22991238 16956.52970079
0.09500000 1071932.30702770 20066.57373074
0.09600000 1062100.64699318 18544.27816823
0.09700000 1052265.03138460 17015.12635742
0.09800000 1042425.59586492 21672.02915700
0.09900000 1032585.08950749 17037.65477803
0.10000000 1022744.42849994 21692.41034862
0.10100000 1012905.99972653 18596.95502963
0.10200000 1003072.70887337 20146.71630535
0.10300000 993245.51208738 18593.55686093
0.10400000 983427.85676059 20135.68631446
0.10500000 973622.08017875 20124.76934415
0.10600001 963825.81087122 23204.10748856
0.10700001 954046.25084366 20092.21498826
0.10800001 944282.07053909 20070.71635387
0.10900001 934537.15270219 21587.80924346
0.11000001 924811.06417073 21557.34692051
0.11100001 915107.11179149 18448.56024215
0.11200001 905426.73160870 18416.38058791
0.11300001 895771.57095885 18381.23350148
0.11400001 886143.89228078 21400.37600621
0.11500001 876545.39036955 24403.02481698
0.11600001 866976.99604407 15215.44699709
0.11700001 857441.53080881 22765.07371509
0.11800001 847938.32259316 18162.83972538
0.11900001 838470.12089467 16601.70917568
0.12000001 829038.00806652 16551.74461072
0.12100001 819646.72571239 14999.53578714
0.12200001 810293.73440213 14949.92010403
0.12300001 800983.11057858 17877.94387042
0.12400001 791714.12921750 17813.56874672
0.12500001 782488.49333822 17746.83986515
0.12600001 773310.10783479 20624.18154784
0.12700001 764177.89247153 17606.65947228
0.12800001 755093.63594678 16072.16879860
0.12900001 746058.77699699 18912.59088826
0.13000001 737074.98148046 15931.87647565
0.13100001 728142.24716841 21625.82576029
0.13200001 719262.57070049 18654.07565048
0.13300001 710437.52648562 22847.67192889
0.13400001 701666.55344681 14208.74837718
0.13500001 692953.14744928 14136.24487446
0.13600001 684296.72153493 23905.90709400
0.13700001 675698.76965310 18183.05474876
0.13800001 667158.84873637 19474.36771294
0.13900001 658680.30269595 15215.51570981
0.14000001 650262.38227761 20629.57505066
0.14100001 641907.19466590 20508.93583684
0.14200001 633614.45139665 14950.13368583
0.14300001 625386.05364985 20262.50909399
0.14400001 617219.61460950 18794.33815139
0.14500001 609120.76634840 22677.56720090
0.14600001 601087.21732678 21206.35802768
0.14700001 593121.43761443 18434.21515072
0.14800001 585220.25550470 14387.64066037
0.14900001 577388.34101227 19486.85742857
0.15000001 569624.30996115 15482.38947525
0.15100001 561929.12922618 16655.58017616
0.15200001 554304.68526213 15265.55175245
0.15300001 546749.80446173 13892.91318697
0.15400001 539263.76143301 12537.88304499
0.15500001 531850.10768370 12445.29310713
0.15600001 524505.77937177 17292.95636203
0.15700001 517236.06196324 17161.89334593
0.15800001 510034.81834425 17030.06338831
0.15900001 502908.29902569 16897.71964485
0.16000001 495851.60243905 13172.29844056
0.16100001 488870.19274329 17819.31936664
0.16200001 481960.98798398 15319.13072623
0.16300001 475124.46210600 18700.89971132
0.16400001 468361.80828705 11591.95530236
0.16500001 461671.47686676 12645.18234838
0.16600001 455055.32782630 12539.05015026
0.16700001 448512.03386536 11302.50378705
0.16800001 442042.43856865 14567.50925086
0.16900001 435647.56667119 14441.71751706
0.17000001 429324.83913980 18720.71049468
0.17100001 423076.24964458 15281.51485878
0.17200001 416901.16340002 14064.16141145
0.17300001 410799.18016297 13938.41684116
0.17400001 404771.69134533 19125.46331929
0.17500001 398815.94658537 12634.48978452
0.17600001 392932.29212912 13562.05870336
0.17700001 387124.15638186 15504.32319537
0.17800001 381386.86013257 11264.26144605
0.17900001 375721.82381522 13187.83663882
0.18000001 370130.19613958 11053.93882984
0.18100001 364610.92074746 11944.65432791
0.18200001 359161.04109722 12816.66235699
0.18300001 353783.54437437 11717.31154320
0.18400001 348476.93236587 12571.30592898
0.18500001 343241.29110809 9576.43247433
0.18600001 338076.18318654 11379.64486367
0.18700001 332980.37852172 11268.05654153
0.18800001 327952.60871429 10227.20258595
0.18900001 322997.37276184 9205.42555865
0.19000001 318106.95195279 11847.89398528
0.19100001 313287.48691483 10827.21605936
0.19200001 308534.11877027 10718.47579254
0.19300001 303849.81759273 16799.85720854
0.19400001 299230.69851062 12253.49768304
0.19500001 294678.51611709 10396.25853989
0.19600001 290190.98173933 11147.68709032
0.19700001 285770.69443915 9336.12902853
0.19800001 281413.76136564 13440.32187800
0.19900001 277121.61204520 8313.64875426
0.20000001 272891.44816311 9873.21306116
0.20100001 268725.95230491 9770.87608760
0.20200001 264621.57494743 8863.50007178
0.20300001 260579.62007923 10365.85777669
0.20400001 256599.15330419 11046.59407187
0.20500001 252678.56443543 10150.09841313
0.20600001 248817.81654342 10043.53163951
0.20700001 245016.73034458 7644.52234810
0.20800001 241273.89156136 7563.93685800
0.20900001 237591.35007329 7484.12788109
0.21000001 233963.15439534 9626.41444266
0.21100001 230393.35981560 8791.81102618
0.21200001 226878.49169959 7973.64496773
0.21300001 223419.10958869 11474.80601095
0.21400001 220014.65114416 7095.47283485
0.21500001 216665.53722723 8423.95648566
0.21600001 213367.92075075 9028.66399343
0.21700001 210123.92378510 8932.36842242
0.21800001 206931.81630449 8157.25258440
0.21900001 203790.31314133 8070.09678196
0.22000001 200698.94395892 7983.80436818
0.22100001 197659.06802109 6582.04727632
0.22200001 194667.75662045 11069.78250365
0.22300001 191724.76708206 7730.34297428
0.22400001 188828.85414231 7010.27154152
0.22500001 185982.38828191 6304.80326089
0.22600001 183180.30462027 8732.20553418
0.22700001 180425.12801947 7404.64760408
0.22800001 177714.34371866 7935.83439404
0.22900001 175047.51397195 6643.05346939
0.23000001 172424.94755122 8364.33460127
0.23100001 169846.52945177 8274.92330623
0.23200001 167308.68013997 9940.64570065
0.23300001 164813.61382637 8098.94136646
0.23400001 162358.83881530 5723.14933892
0.23500001 159943.97950147 8493.02571322
0.23600001 157569.27348736 6161.74673116
0.23700001 155233.75896328 6650.21454853
0.23800001 152935.98307422 6031.03077779
0.23900001 150676.27703198 5424.34622972
0.24000001 148453.01826468 5903.23455052
0.24100001 146267.19019246 6371.39910616
0.24200001 144117.23109562 6303.68798630
0.24300001 142001.52345101 5716.98160457
0.24400001 139920.70159777 5656.29462965
0.24500001 137873.12489035 7631.27782367
0.24600001 135859.23755185 5033.58498941
0.24700001 133878.41152172 8466.47114515
0.24800001 131929.51527838 4927.56762875
0.24900001 130010.85653911 8288.19249646
0.25000001 128124.44194355 5306.27401412
0.25100001 126267.42032569 7636.65394258
0.25200001 124441.96292517 5194.82998808
0.25300001 122644.23354452 7476.39283059
0.25400001 120876.02224528 5548.20968355
0.25500001 119134.50832072 6862.14800393
0.25600001 117421.88849079 5884.59822013
0.25700001 115735.30528879 5374.74783191
0.25800001 114075.40193983 4431.82957505
0.25900001 112442.40393284 6139.35554522
0.26000001 110834.08317318 4773.07001769
0.26100001 109250.20607677 6010.94662276
0.26200001 107692.46632961 4673.31479750
0.26300001 106157.11598720 5464.96858961
0.26400001 104646.20796773 5823.56174896
0.26500001 103158.53874075 4939.23106863
0.26600001 101693.01187975 4072.80531851
0.26700001 100250.05996178 5239.06838152
0.26800001 98829.26171169  4785.31307853
0.26900001 97428.83326985  4340.45472757
0.27000001 96050.23344299  4294.88639165
0.27100001 94691.72346899  5022.44925047
0.27200001 93354.21579834  4969.71191321
0.27300001 92036.02655735  4539.21704462
0.27400001 90736.02906911  4491.43365148
0.27500001 89457.10668272  4444.22927032
0.27600001 88194.37801087  4030.92423775
0.27700001 86952.17171312  5438.85859806
0.27800001 85726.76142775  3946.43164910
0.27900001 84519.44136582  3549.81670537
0.28000001 83328.97181308  3512.31632815
0.28100001 82155.73888226  3822.70671112
0.28200001 80999.48647655  4469.95687277
0.28300001 79859.50016545  4422.61932849
0.28400001 78734.99199783  4375.69738738
0.28500001 77626.77661929  4995.28331189
0.28600001 76533.98758046  4283.22481767
0.28700001 75457.08544630  3259.74624557
0.28800001 74393.56234490  4837.44162045
0.28900001 73346.61260703  4466.80891920
0.29000001 72313.20762543  5050.35465961
0.29100001 71294.74725712  4059.52310098
0.29200001 70289.87570837  3398.16420197
0.29300001 69299.05004212  3056.08825152
0.29400001 68321.11461366  3930.17230419
0.29500001 67357.95167360  5383.24775258
0.29600001 66406.66504330  3254.25877450
0.29700001 65468.76054027  3219.09910815
0.29800001 64544.14775924  3184.28568044
0.29900001 63632.36524840  4008.83920042
0.30000001 62731.89195316  3398.81406692
0.30100001 61845.00724257  3642.05264893
0.30200001 60969.15501511  3602.36269461
0.30300001 60106.16720214  3014.92548959
0.30400001 59254.78372229  3253.08778036
0.30500001 58415.52005180  3485.65424651
0.30600001 57586.54081829  3182.23239627
0.30700001 56770.07621130  3409.61093867
0.30800001 55964.48552623  2853.34942964
0.30900001 55170.28697843  3848.12769893
0.31000001 54387.17761956  2790.87815168
0.31100001 53614.51576319  2760.07540217
0.31200001 52853.52077461  2481.47291785
0.31300001 52102.56340744  2454.03085268
0.31400001 51363.58707497  2669.62256462
0.31500001 50633.59588982  2880.03907057
0.31600002 49915.54790349  4034.92350582
0.31700002 49206.95230728  3051.32325705
0.31800002 48508.60615599  3249.59168025
0.31900002 47821.08017788  2295.41195722
0.32000002 47143.77264790  2496.97003653
0.32100002 46476.00023233  3142.70728452
0.32200002 45819.37136307  2885.93324195
0.32300002 45170.93471791  2853.89979061
0.32400002 44533.75773946  3473.63326816
0.32500002 43906.01030364  4079.30761047
0.32600002 43288.15073493  3184.92584114
0.32700002 42680.12813640  2519.83488449
0.32800002 42082.66312339  2492.13542818
0.32900002 41492.82396831  3080.84232554
0.33000002 40914.06790664  2031.38356776
0.33100002 40343.69440165  2009.11607634
0.33200002 39784.29085437  2782.11559119
0.33300002 39233.51391531  3144.95862438
0.33400002 38692.76874964  2527.60523827
0.33500002 38161.14285386  2884.98253637
0.33600002 37638.26805998  1902.61454053
0.33700002 37124.80234050  3011.56410848
0.33800002 36621.51288325  2607.08562562
0.33900002 36126.43456524  2579.42755011
0.34000002 35640.80406264  2005.32993555
0.34100002 35164.30762481  2345.10778656
0.34200002 34697.73662230  1785.19863376
0.34300002 34239.42944432  2120.10557160
0.34400002 33790.98617948  1923.55197937
0.34500002 33350.95941941  2942.55528893
0.34600002 32920.60236516  2227.57266454
0.34700002 32498.18131553  2714.24823202
0.34800002 32085.35246748  2183.56876559
0.34900002 31681.06506664  1663.25599477
0.35000002 31285.90418908  1976.64352028
0.35100002 30900.30354680  1794.68971500
0.35200002 30521.86264347  1939.35924422
0.35300002 30153.41528260  1761.26107008
0.35400002 29793.05089647  1745.12803892
0.35500002 29441.83436336  2515.51044715
0.35600002 29098.63855337  1869.87860200
0.35700002 28764.02030766  2008.01635279
0.35800002 28438.29528897  2143.96318338
0.35900002 28121.56098592  1518.56436517
0.36000002 27812.86791069  1656.67355557
0.36100002 27512.04945277  2091.46609846
0.36200002 27221.09187118  2223.28278389
0.36300002 26936.94306752  1764.90859338
0.36400002 26661.72954378  1605.70273783
0.36500002 26393.80780660  2028.62816411
0.36600002 26135.13976005  1726.48741433
0.36700002 25883.83641403  1857.42418905
0.36800002 25641.48207951  1986.95854046
0.36900002 25406.80145417  2115.11632125
0.37000002 25179.48760609  1961.73397232
0.37100002 24960.01776299  1671.32286858
0.37200002 24749.04966113  1800.12221237
0.37300002 24545.47840570  1927.80196530
0.37400002 24349.41236722  1369.65451054
0.37500002 24161.18014932  1907.76687496
0.37600002 23980.56599865  1762.93139290
0.37700002 23807.27317105  1484.85969802
0.37800002 23641.33546012  1747.21297995
0.37900002 23483.57426609  1606.27655589
0.38000002 23332.25413456  2266.84525783
0.38100002 23187.37032449  1594.36365904
0.38200002 23050.85700279  1456.69897730
0.38300002 22920.57014096  1848.31486373
0.38400002 22797.61570935  1316.56236959
0.38500002 22680.80988245  1707.18464073
0.38600002 22571.90239091  2227.50829297
0.38700002 22468.57838048  1569.20558843
0.38800002 22372.00885958  1827.56949032
0.38900002 22281.87702515  1955.23480159
0.39000002 22198.69225444  1822.73470737
0.39100002 22121.03555956  1300.71695253
0.39200002 22050.22737819  1559.83315863
0.39300002 21984.82034368  1429.23323826
0.39400002 21926.75667926  1429.07643428
0.39500002 21873.28186089  1429.20030450
0.39600002 21825.80461634  1429.69939913
0.39700002 21783.53865909  1430.52505152
0.39800002 21747.93500481  1692.09816322
0.39900002 21716.78254465  1563.60841730
0.40000002 21691.37553236  1565.68356011
0.40100002 21671.00460253  1437.43780339
0.40200002 21656.15174712  2094.58309622
0.40300002 21646.08831028  1705.27891788
0.40400002 21640.94178229  1314.68727556
0.40500002 21640.07237007  2108.60875165
0.40600002 21645.02221803  1453.57153592
0.40700002 21653.76187376  1987.81543420
0.40800002 21667.02066593  1993.90767126
0.40900002 21684.19890062  1733.65178425
0.41000002 21706.28488755  1739.65028474
0.41100002 21732.18619328  1477.35408742
0.41200002 21761.21290479  1617.72864399
0.41300002 21795.57987936  1759.55724703
0.41400002 21832.78190596  1359.09073804
0.41500002 21873.66803367  1364.91694998
0.41600002 21917.14592241  1508.00929665
0.41700002 21965.41988966  1652.67827081
0.41800002 22017.19691830  1937.29324864
0.41900002 22070.42228211  1390.43666966
0.42000002 22127.16916884  1397.33079922
0.42100002 22187.44786514  1966.25172298
0.42200002 22250.31795563  1694.13928942
0.42300002 22315.29304131  1703.10324561
0.42400002 22382.74467002  1854.97005243
0.42500002 22453.30021287  1578.24254675
0.42600002 22524.70248624  1442.70726261
0.42700002 22599.62300795  1450.89586586
0.42800002 22675.75805717  1605.10361014
0.42900002 22754.60271825  1907.97352834
0.43000002 22835.08109078  1623.91686872
0.43100002 22915.79257042  1930.42645761
0.43200002 22999.39058359  2091.33468487
0.43300002 23083.59650564  1803.29064447
0.43400002 23169.79871867  1511.82943804
0.43500002 23256.42468019  1977.26132001
0.43600002 23345.03878547  1836.32083789
0.43700002 23433.78919502  2001.48002999
0.43800002 23522.95161012  2323.47965540
0.43900002 23614.00300482  1558.52427218
0.44000002 23704.85378601  1724.88376748
0.44100002 23796.69286610  2208.80913651
0.44200002 23888.71738986  2539.84855325
0.44300002 23981.17775567  2715.14907417
0.44400002 24073.60471834  1928.29582932
0.44500002 24165.57915351  1778.34505418
0.44600002 24257.56960436  1789.11713096
0.44700002 24350.39762027  2127.25083692
0.44800002 24441.90508718  1810.77862420
0.44900002 24533.66508182  1821.62471866
0.45000002 24625.31560924  1832.49294791
0.45100002 24715.43203795  1843.27700875
0.45200002 24805.49552479  1854.08685087
0.45300002 24894.42312782  3051.55853163
0.45400002 24982.80706842  2216.59966220
0.45500002 25070.59400311  1714.82871108
0.45600002 25156.83791341  1896.95145276
0.45700002 25242.46625358  2254.40476795
0.45800002 25326.41622975  2092.46860807
0.45900002 25409.22532797  2103.88395687
0.46000002 25491.17282149  2115.25762098
0.46100002 25570.83849057  2480.88286794
0.46200002 25649.70447935  2137.64647262
0.46300002 25726.93792534  2327.77345381
0.46400002 25801.96363401  1799.68704877
0.46500002 25876.44588579  1989.64001846
0.46600002 25948.00570449  2544.72104005
0.46700002 26017.87320856  3287.61861445
0.46800002 26086.51003404  1835.18606788
0.46900002 26152.48982520  2765.62593010
0.47000002 26216.62202810  2037.42487748
0.47100002 26278.85525957  2790.81456084
0.47200002 26339.11573097  2242.51241962
0.47300002 26397.02070904  2627.55956592
0.47400002 26452.10674278  2450.12650318
0.47500002 26505.46133680  2270.98803498
0.47600002 26557.21053515  2470.21905501
0.47700002 26605.22508869  2289.11367513
