# SAXS profile: number of points = 501, q_min = 0, q_max = 0.5, delta_q = 0.001
#    q    intensity    error
0.00000000 1682732.95097188 252.40994265
0.00100000 1682650.69734676 807.67235391
0.00200000 1682403.87958345 984.20630072
0.00300000 1681992.71250679 1311.95436249
0.00400000 1681417.05169769 1765.48797137
0.00500000 1680677.46900641 2268.91467297
0.00600000 1679773.80674904 1940.13882578
0.00700000 1678706.63594404 2820.22726560
0.00800000 1677475.80652032 2943.97016474
0.00900000 1676082.55182546 2765.53632873
0.01000000 1674526.22440597 2762.96838957
0.01100000 1672808.16843685 3613.26580114
0.01200000 1670928.22630593 3909.97222098
0.01300000 1668887.62631784 5957.92908873
0.01400000 1666686.36488273 3750.04448723
0.01500000 1664325.82054287 4793.25857660
0.01600000 1661805.48658304 5932.64585231
0.01700000 1659127.60267801 4479.64472818
0.01800000 1656291.99412267 5664.51887479
0.01900000 1653299.58249141 6447.86866266
0.02000000 1650151.35588847 8316.76320989
0.02100000 1646849.30475640 8151.90442814
0.02200000 1643392.19757138 6803.64400705
0.02300000 1639783.09215733 8264.50716066
0.02400000 1636021.56716482 8589.11361926
0.02500000 1632110.27311099 9547.84553376
0.02600000 1628048.94922325 7252.95840053
0.02700000 1623839.99505718 6820.12829161
0.02800000 1619483.11948389 9158.17746067
0.02900000 1614981.01376201 7994.15638517
0.03000000 1610334.88101849 8985.66904911
0.03100000 1605545.22012973 9247.94089347
0.03200000 1600613.38463183 9507.64394262
0.03300000 1595543.00883744 8950.99669222
0.03400000 1590332.63046349 11688.94537324
0.03500000 1584985.20368078 11126.59664364
0.03600000 1579502.13970116 12272.73219265
0.03700000 1573885.13475560 11662.48938790
0.03800000 1568135.65705367 12843.03162564
0.03900000 1562256.14296964 15935.01339624
0.04000000 1556246.03856390 9570.91358067
0.04100000 1550109.54033625 14648.53583538
0.04200000 1543847.47215447 13940.94332032
0.04300000 1537460.68650476 14206.13740272
0.04400000 1530952.91195899 11367.32589922
0.04500000 1524325.37545223 11569.63013726
0.04600000 1517578.03718157 12838.71079139
0.04700000 1510715.35403756 10877.15105494
0.04800000 1503737.35189499 13262.96406081
0.04900000 1496648.40292603 13469.83625332
0.05000000 1489447.73921527 13673.13088270
0.05100000 1482140.05666348 19653.17806688
0.05200000 1474723.29737514 11724.05076049
0.05300000 1467204.15599823 14261.22506113
0.05400000 1459582.21258237 20470.64148609
0.05500000 1451860.00186018 15854.31195991
0.05600000 1444038.88722094 13581.18636807
0.05700000 1436123.50842932 16242.55763851
0.05800000 1428113.27645658 13902.68339545
0.05900000 1420010.69745974 16614.12593626
0.06000000 1411819.53588977 14209.96429260
0.06100000 1403541.14131111 15663.51986901
0.06200000 1395177.54646533 14502.87127342
0.06300000 1386732.07334258 13312.62852652
0.06400000 1378203.65743562 16124.98354611
0.06500000 1369598.48018673 14914.92814692
0.06600000 1360917.16143842 24618.99260231
0.06700000 1352161.39904347 19308.86568198
0.06800000 1343334.42238218 18074.56549921
0.06900000 1334438.73982891 15412.76816663
0.07000000 1325475.38033025 21174.47019234
0.07100000 1316447.38996766 18482.92222084
0.07200000 1307356.83615782 17178.66963188
0.07300000 1298207.09532254 17292.11931993
0.07400000 1288999.50603054 15951.36963468
0.07500000 1279736.56315930 16047.89725422
0.07600000 1270419.05390804 19075.34298869
0.07700000 1261052.48762846 17705.17775647
0.07800000 1251636.70606028 16315.08522861
0.07900000 1242174.21247494 19377.91862351
0.08000000 1232669.01481902 17972.31507916
0.08100000 1223122.17580706 16548.84381511
0.08200000 1213535.23494764 25684.47445292
0.08300000 1203911.69812249 16686.21691910
0.08400000 1194253.36681687 15226.73114164
0.08500000 1184562.54407882 18337.02904317
0.08600000 1174841.42643333 19931.18573524
0.08700000 1165093.44817329 18455.08108567
0.08800000 1155318.13352520 23135.24671036
0.08900000 1145521.15715465 20103.89725234
0.09000000 1135701.96959109 21703.26565841
0.09100000 1125864.10080073 21751.69544939
0.09200000 1116008.54274242 28022.97582497
0.09300000 1106141.05253171 26514.20227514
0.09400000 1096257.88307800 17183.84312484
0.09500000 1086364.95925848 18772.38737834
0.09600000 1076464.03492690 18795.06293334
0.09700000 1066558.73254440 15678.41410549
0.09800000 1056649.15627929 17260.36477936
0.09900000 1046738.05352150 20411.39300346
0.10000000 1036826.31069613 18849.50321489
0.10100000 1026916.52766323 17283.00597342
0.10200000 1017011.38997182 15712.82671414
0.10300000 1007112.22177594 20424.23681839
0.10400000 997222.05302494 17276.87288145
0.10500000 987343.53493988 17268.63923858
0.10600001 977474.00986142 18826.15031577
0.10700001 967621.11052338 23513.19409219
0.10800001 957783.03863085 15659.75341859
0.10900001 947963.98239814 18769.68773489
0.11000001 938163.54567903 15620.42377080
0.11100001 928385.14630481 20275.93254975
0.11200001 918629.60225769 15570.77249129
0.11300001 908899.21689877 20204.83054292
0.11400001 899195.93285124 17062.24362922
0.11500001 889521.83575697 20120.98487228
0.11600001 879877.19538792 15441.84550624
0.11700001 870265.59050879 23105.55251616
0.11800001 860685.81707722 18435.89107009
0.11900001 851140.80043293 16852.58864236
0.12000001 841631.72685654 22913.42484300
0.12100001 832163.34326751 21320.02585886
0.12200001 822732.84976326 18215.30615191
0.12300001 813344.84877423 15128.21489996
0.12400001 803998.09031188 21104.95086510
0.12500001 794694.59210143 18023.67419814
0.12600001 785438.05971010 23940.15318811
0.12700001 776227.62822616 17884.28539715
0.12800001 767065.05426599 16326.98044953
0.12900001 757951.64406544 20692.08085825
0.13000001 748889.16059009 17658.80723906
0.13100001 739877.47886965 16114.53224938
0.13200001 730919.12176123 18956.38831649
0.13300001 722015.15158363 15963.75575409
0.13400001 713164.98065737 18774.06900092
0.13500001 704372.45846476 18679.95847921
0.13600001 695636.77465177 14295.33639313
0.13700001 686959.50432096 17064.07489196
0.13800001 678340.04670334 21215.08596106
0.13900001 669782.21080511 16878.51250825
0.14000001 661284.80130694 15384.79162796
0.14100001 652850.05216252 18077.41879696
0.14200001 644477.73251130 17971.26241870
0.14300001 636169.95378201 15115.39881482
0.14400001 627923.73653185 15023.07610516
0.14500001 619745.44185255 21715.88130690
0.14600001 611632.11877502 13486.48885521
0.14700001 603586.81826145 13399.62799755
0.14800001 595606.23058226 19967.69982232
0.14900001 587694.74189220 17190.07201139
0.15000001 579851.11680412 19700.44262294
0.15100001 572076.72606755 13043.34996979
0.15200001 564372.77676220 15542.82700545
0.15300001 556738.78718593 14146.73324997
0.15400001 549173.31145234 17875.59213134
0.15500001 541680.55402125 17745.45578720
0.15600001 534257.03517472 12581.75377216
0.15700001 526908.31561815 14985.27320344
0.15800001 519628.09591175 14871.75680692
0.15900001 512422.82625268 18447.22261582
0.16000001 505287.43982894 18304.03837180
0.16100001 498227.44332064 21792.46939954
0.16200001 491239.78926337 13211.89475592
0.16300001 484324.88999490 15488.71071323
0.16400001 477484.12151118 14181.27907837
0.16500001 470715.68767073 16409.14964690
0.16600001 464021.88282363 13948.49845623
0.16700001 457400.58718321 14984.44394361
0.16800001 450853.49231646 11429.13656986
0.16900001 444381.27473761 13598.06764905
0.17000001 437981.53534300 14604.49498563
0.17100001 431655.94735448 22273.44793527
0.17200001 425403.83177752 11039.22995593
0.17300001 419225.51815727 18601.03711906
0.17400001 413121.51780279 15182.21649625
0.17500001 407089.65044273 12896.60073510
0.17600001 401130.06273272 14910.00513596
0.17700001 395246.20715369 13718.99649826
0.17800001 389433.46126631 12547.54671465
0.17900001 383693.06002380 11395.68442097
0.18000001 378026.58474137 12316.10671263
0.18100001 372432.60700073 10167.41065139
0.18200001 366908.07367488 11078.78980795
0.18300001 361456.55640682 9976.20142810
0.18400001 356075.73949354 10869.21246151
0.18500001 350766.60377167 10765.02757831
0.18600001 345528.06204781 9692.06259833
0.18700001 340359.07753762 11517.75172803
0.18800001 335258.44933632 11405.49298529
0.18900001 330230.79966890 9411.57823524
0.19000001 325268.09740419 10250.82457403
0.19100001 320376.73776653 10149.53553201
0.19200001 315551.67386880 15529.87636326
0.19300001 310796.26763877 16279.50926817
0.19400001 306106.09146943 12535.04503800
0.19500001 301483.43030412 11522.69725073
0.19600001 296925.43004088 8774.14687234
0.19700001 292435.24816844 10422.39273726
0.19800001 288008.76606732 8597.06207340
0.19900001 283647.30247386 9360.36142401
0.20000001 279348.27983919 9264.58613872
0.20100001 275114.18207336 10836.74814404
0.20200001 270941.59454161 9900.20633247
0.20300001 266831.86680953 10614.57216338
0.20400001 262783.69485995 8888.65889877
0.20500001 258796.07927603 7996.79922761
0.20600001 254868.72136361 9496.40900688
0.20700001 251001.21482276 10180.60975444
0.20800001 247192.36064774 8524.42895989
0.20900001 243444.25388392 11502.74153976
0.21000001 239750.76581079 8346.92330628
0.21100001 236116.26078851 8259.34719283
0.21200001 232536.99045749 8915.46863561
0.21300001 229013.59332794 9556.73770137
0.21400001 225545.48115950 10183.37895579
0.21500001 222133.15851304 10075.96054652
0.21600001 218772.76937652 12105.79176579
0.21700001 215466.44835414 7750.32851373
0.21800001 212212.43783519 7668.29680374
0.21900001 209009.19725113 7587.03421894
0.22000001 205856.69894147 8871.39486034
0.22100001 202756.13472333 8777.31348720
0.22200001 199704.55420861 7348.12941956
0.22300001 196701.78464354 7270.09830419
0.22400001 193746.31897495 7192.83243207
0.22500001 190840.86772470 8410.35743833
0.22600001 187980.26889669 7040.80130447
0.22700001 185167.03868002 10132.34083572
0.22800001 182398.41957646 8771.54041224
0.22900001 179674.40780825 8058.39757129
0.23000001 176995.02998286 7972.74150262
0.23100001 174360.18392668 7281.28162513
0.23200001 171766.56300089 7203.88999296
0.23300001 169216.04207826 8315.27670099
0.23400001 166706.04284241 7051.66594574
0.23500001 164236.69808553 8720.96908081
0.23600001 161807.94660308 6327.50005119
0.23700001 159418.64956551 10813.36751148
0.23800001 157067.64599216 7883.22552521
0.23900001 154755.19794788 7799.66234549
0.24000001 152479.51316063 7165.77505993
0.24100001 150241.91589057 5999.15998528
0.24200001 148040.47352505 7554.50572133
0.24300001 145873.96211813 6940.68344589
0.24400001 143742.53383171 5810.79220502
0.24500001 141644.91529912 6794.70690832
0.24600001 139581.37459906 6722.93722559
0.24700001 137551.49412846 8187.06531782
0.24800001 135553.97645339 8607.00014208
0.24900001 133586.94210717 5009.51056601
0.25000001 131652.73524723 5452.39828821
0.25100001 129748.53605981 6866.29285312
0.25200001 127876.28596066 5823.48633816
0.25300001 126032.11271619 5282.00609383
0.25400001 124218.01133719 5226.47307428
0.25500001 122430.92366631 5171.48246034
0.25600001 120673.38025483 7443.13444627
0.25700001 118942.31462534 6444.29491130
0.25800001 117238.21471159 5921.11631416
0.25900001 115561.59781369 5858.97328637
0.26000001 113910.02371645 8473.19751506
0.26100001 112283.57588427 5736.56816336
0.26200001 110683.43099557 4803.10771532
0.26300001 109106.37368949 5616.79638331
0.26400001 107553.96074569 7695.48625549
0.26500001 106025.40182865 6345.62059971
0.26600001 104519.35789254 4604.60052984
0.26700001 103036.46961698 5384.68615699
0.26800001 101576.12635302 6147.89533844
0.26900001 100136.48818314 4055.52796333
0.27000001 98719.16196745  5216.81436104
0.27100001 97322.49920713  5956.13723334
0.27200001 95947.07632095  4714.83955353
0.27300001 94591.60987489  5442.80148978
0.27400001 93254.66501457  5770.13267085
0.27500001 91939.24202651  4186.91328003
0.27600001 90640.45464960  5272.55549650
0.27700001 89362.72850270  4844.35374140
0.27800001 88102.02222078  4055.77678488
0.27900001 86860.04453286  3648.12204304
0.28000001 85635.16929502  3970.47481228
0.28100001 84428.04192195  4642.69824502
0.28200001 83238.21839432  3533.46253808
0.28300001 82065.29663294  3845.57998223
0.28400001 80908.07261262  4842.34837506
0.28500001 79767.71902853  3764.23883912
0.28600001 78643.08204530  4062.70181076
0.28700001 77534.79869892  4019.40415480
0.28800001 76440.21408017  3976.42012467
0.28900001 75362.80940610  4261.76707364
0.29000001 74299.21926660  3567.47718195
0.29100001 73250.95399565  4491.74871163
0.29200001 72216.67019939  4760.88420825
0.29300001 71196.96508764  3453.76493989
0.29400001 70190.42598406  4037.70444586
0.29500001 69199.03163050  3072.43714983
0.29600001 68220.01638879  3950.96243619
0.29700001 67254.62496134  3607.53825370
0.29800001 66302.98205066  3568.42666289
0.29900001 65364.64141161  4412.11350415
0.30000001 64437.88894351  3782.18207059
0.30100001 63525.17127690  3453.22847409
0.30200001 62623.78331857  2846.25108657
0.30300001 61735.69981259  4222.72206709
0.30400001 60859.53207740  4176.48558653
0.30500001 59995.85034962  3579.95255985
0.30600001 59142.83890881  4629.99736317
0.30700001 58302.61920817  4309.72981590
0.30800001 57473.73822842  2663.90789301
0.30900001 56656.57994569  3161.43731065
0.31000001 55850.89156717  3387.07747945
0.31100001 55055.92302223  3607.26424720
0.31200001 54272.99186906  3312.55221556
0.31300001 53500.39849271  2771.85577714
0.31400001 52740.16005425  3987.15628888
0.31500001 51989.06233726  3203.56617290
0.31600002 51250.51375972  2680.65824912
0.31700002 50521.59897675  3855.80861647
0.31800002 49803.36167042  2621.40006564
0.31900002 49096.18397115  2827.94033064
0.32000002 48399.63773340  2563.48693393
0.32100002 47712.74387591  3687.24102132
0.32200002 47037.45361354  2734.75768258
0.32300002 46370.67999981  2929.69970111
0.32400002 45715.46434483  3565.80638774
0.32500002 45069.88559668  2203.91751004
0.32600002 44434.47280738  2833.36429273
0.32700002 43809.32699214  2586.50278809
0.32800002 43194.92203809  2771.17035458
0.32900002 42588.50645269  2108.13116924
0.33000002 41993.28758370  2501.96019271
0.33100002 41406.90557899  2268.27039503
0.33200002 40831.67154143  2447.45050809
0.33300002 40265.38209385  2420.75488612
0.33400002 39709.29735135  2594.00997232
0.33500002 39162.74717653  2763.32357164
0.33600002 38625.17467751  1952.50267241
0.33700002 38097.21759265  2704.14063279
0.33800002 37579.73953649  2102.02283052
0.33900002 37070.62587235  2835.90301354
0.34000002 36571.30264861  2057.68444097
0.34100002 36081.36834341  1850.97428368
0.34200002 35601.52486570  2198.03824931
0.34300002 35130.09733230  2537.79835147
0.34400002 34668.96591219  3050.00242057
0.34500002 34216.35894841  1953.41202488
0.34600002 33773.77772848  2461.09529963
0.34700002 33339.23226627  2262.40040874
0.34800002 32914.51011635  3273.84190378
0.34900002 32498.53655859  2218.02522517
0.35000002 32091.97437530  1858.60678397
0.35100002 31695.09854807  2175.55166738
0.35200002 31305.68302545  1823.39959418
0.35300002 30926.41079259  1970.63098904
0.35400002 30555.27648232  1789.77540472
0.35500002 30193.60605368  2902.20955134
0.35600002 29840.20184346  1917.53146128
0.35700002 29495.49907284  2375.86256285
0.35800002 29159.93919097  2826.47303966
0.35900002 28833.48767609  2024.11093073
0.36000002 28515.28620825  2007.33366771
0.36100002 28205.13480948  1684.69278197
0.36200002 27905.08447219  2279.14788222
0.36300002 27611.87109699  1809.12987997
0.36400002 27327.86623794  1496.20074740
0.36500002 27051.21947998  1633.62322178
0.36600002 26784.07276772  1916.80225842
0.36700002 26524.37288552  1610.55999790
0.36800002 26273.85816133  3053.94204804
0.36900002 26031.10140838  1733.67143592
0.37000002 25795.87333307  1579.09446088
0.37100002 25568.61241562  1854.74723249
0.37200002 25349.99752228  2552.99837140
0.37300002 25138.96649081  1692.35530433
0.37400002 24935.59446459  2103.94088262
0.37500002 24740.03457989  2232.54082625
0.37600002 24552.32969470  1666.12117201
0.37700002 24372.13792421  1796.47037150
0.37800002 24199.27390823  1513.30166554
0.37900002 24034.80069621  1643.98044550
0.38000002 23876.86277574  2046.84415841
0.38100002 23725.49484273  1767.31219456
0.38200002 23582.58959292  1625.78380355
0.38300002 23446.09839547  1350.49533156
0.38400002 23316.91046592  1615.86197184
0.38500002 23194.04784213  1477.22897705
0.38600002 23079.20291392  1339.74779262
0.38700002 22969.92136124  2138.95917849
0.38800002 22867.57352586  1467.75527629
0.38900002 22771.77165827  1598.57844614
0.39000002 22682.98409627  1330.35708027
0.39100002 22599.76061807  1328.86598730
0.39200002 22523.63897966  1858.87601306
0.39300002 22452.83102624  1592.35485182
0.39400002 22389.57388349  1591.89877854
0.39500002 22330.86163872  1591.74389302
0.39600002 22278.21388738  2255.33508974
0.39700002 22230.93292126  1990.78013742
0.39800002 22190.38095468  1593.71323567
0.39900002 22154.31996732  1595.11111322
0.40000002 22124.06347711  1330.76248120
0.40100002 22098.94156613  1599.07948749
0.40200002 22079.35655760  1601.63660057
0.40300002 22064.63588396  1871.96379709
0.40400002 22054.95181167  1339.83838604
0.40500002 22049.49181635  1745.65834981
0.40600002 22049.98549530  1749.99718175
0.40700002 22054.23037350  1484.69085909
0.40800002 22063.13581781  1895.00282518
0.40900002 22076.05092397  1629.21263538
0.41000002 22093.82418670  1906.91805591
0.41100002 22115.50634628  1640.08602835
0.41200002 22140.32774955  1645.91204289
0.41300002 22170.54167796  1927.50698481
0.41400002 22203.60837141  1658.60962393
0.41500002 22240.38207029  1665.35988833
0.41600002 22279.74958732  1672.31808326
0.41700002 22323.98919500  2099.57128328
0.41800002 22371.88818266  1546.68056280
0.41900002 22421.10464334  1553.78262541
0.42000002 22473.93994395  1419.22937471
0.42100002 22530.31422805  1996.63654150
0.42200002 22589.28833408  2436.59370161
0.42300002 22650.43624041  1584.62459447
0.42400002 22714.00560933  1882.42330407
0.42500002 22780.78085659  2183.53794857
0.42600002 22848.44099654  1609.78698669
0.42700002 22919.55839014  1912.86643388
0.42800002 22991.93084610  1775.43698407
0.42900002 23067.01115032  1636.60451867
0.43000002 23143.90065651  2543.63052219
0.43100002 23220.86389343  1655.18325676
0.43200002 23300.73251242  1513.38264840
0.43300002 23381.29099048  1674.33432717
0.43400002 23463.86144853  2296.52554810
0.43500002 23546.80820596  2309.94199447
0.43600002 23631.81150517  1858.87838109
0.43700002 23716.93454478  1558.20267343
0.43800002 23802.46523141  2037.61013270
0.43900002 23889.85048217  2049.74926851
0.44000002 23977.09273571  1744.69323559
0.44100002 24065.32709569  1914.63751447
0.44200002 24153.73030111  2407.52318186
0.44300002 24242.57724901  2098.92243769
0.44400002 24331.44072400  2111.36086888
0.44500002 24419.76647016  2123.78719056
0.44600002 24508.17653158  1971.92797718
0.44700002 24597.42533841  2479.42059162
0.44800002 24685.33007147  1828.81276501
0.44900002 24773.49888804  2006.65350503
0.45000002 24861.50140476  1850.06871471
0.45100002 24948.08835031  2198.92461141
0.45200002 25034.56993932  2211.42884040
0.45300002 25119.82816385  1881.72641693
0.45400002 25204.69424217  2236.28660262
0.45500002 25288.89223700  2940.59252868
0.45600002 25371.48452055  1739.21534631
0.45700002 25453.51094692  1923.52191342
0.45800002 25533.86468903  2637.01000074
0.45900002 25613.00886293  2297.48700389
0.46000002 25691.40054908  2842.49669147
0.46100002 25767.35678389  2499.94907366
0.46200002 25842.59948304  2333.19920491
0.46300002 25916.20566545  2344.89839975
0.46400002 25987.58933921  2356.42477502
0.46500002 26058.45598785  2003.63477587
0.46600002 26126.37878249  2379.19879659
0.46700002 26192.54491733  2022.58841438
0.46800002 26257.55363441  1847.21898573
0.46900002 26319.79117077  2041.09990203
0.47000002 26380.26356402  2609.27199279
0.47100002 26438.83917902  2433.43087337
0.47200002 26495.42088462  3007.76032138
0.47300002 26549.70294333  2642.75755624
0.47400002 26601.05241642  2084.85758195
0.47500002 26650.72428793  2093.14798478
0.47600002 26698.75020633  2101.32523459
0.47700002 26743.04454466  2684.46693863
