# SAXS profile: number of points = 501, q_min = 0, q_max = 0.5, delta_q = 0.001
#    q    intensity    error
0.00000000 1682732.95097188 403.85590823
0.00100000 1682650.69242754 504.79521972
0.00200000 1682403.85637509 1287.03899088
0.00300000 1681992.66276378 1110.11519697
0.00400000 1681416.96863102 2396.01927134
0.00500000 1680677.32950534 2420.17545028
0.00600000 1679773.60688071 1940.13859493
0.00700000 1678706.37662546 2417.33728281
0.00800000 1677475.46370896 2717.51036594
0.00900000 1676082.11752150 2765.53561213
0.01000000 1674525.68701227 3591.85775374
0.01100000 1672807.53099504 5118.79126771
0.01200000 1670927.46352935 3909.97043609
0.01300000 1668886.71052402 3855.12847134
0.01400000 1666685.31146875 4500.05054046
0.01500000 1664324.60603818 3994.37923236
0.01600000 1661804.11022744 5932.64093872
0.01700000 1659126.05815337 4927.60461376
0.01800000 1656290.26787803 6608.59846620
0.01900000 1653297.66080257 5951.87184745
0.02000000 1650149.24433735 6757.36146124
0.02100000 1646846.96695986 5978.05476110
0.02200000 1643389.62874511 7370.60281979
0.02300000 1639780.26594225 7083.85107132
0.02400000 1636018.49748047 9816.11143247
0.02500000 1632106.91671103 7001.73899246
0.02600000 1628045.34942029 9231.01755342
0.02700000 1623836.12404798 9548.15684672
0.02800000 1619478.97700918 7044.73387306
0.02900000 1614976.56306115 7267.39486745
0.03000000 1610330.11495638 7488.03537874
0.03100000 1605540.18500923 9247.91189118
0.03200000 1600607.98133598 11092.21382154
0.03300000 1595537.29246991 10578.41273675
0.03400000 1590326.53397489 9184.13615746
0.03500000 1584978.74959663 10270.66277167
0.03600000 1579495.35547851 9642.81959083
0.03700000 1573877.94163249 9868.21515042
0.03800000 1568128.10940889 9173.54986459
0.03900000 1562248.18021640 12185.53637000
0.04000000 1556237.66230975 9570.86206671
0.04100000 1550100.75118496 12695.32574084
0.04200000 1543838.30920832 12945.08482327
0.04300000 1537451.06004687 11161.89521405
0.04400000 1530942.84073478 17567.56991330
0.04500000 1524314.86674272 13673.10499000
0.04600000 1517567.09802667 13908.50309998
0.04700000 1510703.90061226 13052.48230833
0.04800000 1503725.50160779 13262.85954128
0.04900000 1496636.00075265 15714.67873938
0.05000000 1489434.90150020 14812.43078518
0.05100000 1482126.65288771 17340.88264659
0.05200000 1474709.50433772 14068.72932700
0.05300000 1467189.72011508 11884.23728695
0.05400000 1459567.31195736 15653.86015074
0.05500000 1451844.55418433 14634.59378887
0.05600000 1444022.87368363 19754.23383381
0.05700000 1436107.09701517 13743.54555996
0.05800000 1428096.14164471 16430.24687679
0.05900000 1419993.19139488 16613.92111529
0.06000000 1411801.40720137 14209.78182735
0.06100000 1403522.34916722 14358.03430295
0.06200000 1395158.29054123 17139.52040046
0.06300000 1386712.19057887 13312.43765198
0.06400000 1378183.20647722 13437.28689157
0.06500000 1369577.37511430 24405.86996619
0.06600000 1360895.50472430 16412.40055489
0.06700000 1352139.10758224 17929.36540562
0.06800000 1343311.48530577 19464.58433320
0.06900000 1334415.19503259 19615.90428537
0.07000000 1325451.14915919 18350.87201945
0.07100000 1316422.55881822 15639.10073126
0.07200000 1307331.41786323 15746.80766585
0.07300000 1298181.01409932 20173.73390436
0.07400000 1288972.75053839 18851.22736007
0.07500000 1279709.11099631 16047.55300408
0.07600000 1270391.09243373 16140.31958604
0.07700000 1261023.77349341 26557.16191500
0.07800000 1251607.35802273 17797.85746574
0.07900000 1242144.10204350 16396.30291602
0.08000000 1232638.27145872 20967.17798111
0.08100000 1223090.82710360 18052.82145506
0.08200000 1213503.18252470 18129.73839766
0.08300000 1203879.10601069 15168.87744764
0.08400000 1194219.89728937 16748.93484566
0.08500000 1184528.33814825 16808.45790740
0.08600000 1174806.65674423 21463.71862647
0.08700000 1165058.05483426 16916.64375056
0.08800000 1155281.93951304 16965.31607850
0.08900000 1145484.31767645 17010.44291647
0.09000000 1135664.28324985 18602.18183348
0.09100000 1125825.76300615 15536.39625940
0.09200000 1115969.60509037 17124.55439474
0.09300000 1106101.37555401 21834.44217948
0.09400000 1096217.42037160 20307.42866678
0.09500000 1086323.89704753 18771.67782330
0.09600000 1076422.20793423 23492.91579251
0.09700000 1066516.07500552 23516.68055946
0.09800000 1056605.92135450 21966.83813779
0.09900000 1046693.98015603 20410.53357280
0.10000000 1036781.65610163 21990.13996005
0.10100000 1026871.10037637 20424.46714709
0.10200000 1016965.30015217 25139.38340223
0.10300000 1007065.41878870 23565.33190819
0.10400000 997174.57950325 21987.70051246
0.10500000 987295.36704069 20407.39619689
0.10600001 977425.11131981 17256.44115233
0.10700001 967571.63384540 21944.52568827
0.10800001 957732.75418131 21922.50377492
0.10900001 947913.01747323 15640.56552444
0.11000001 938111.98654666 20305.43490457
0.11100001 928332.69721554 15595.99004738
0.11200001 918576.60350500 15569.87416239
0.11300001 908845.43702778 21757.76078682
0.11400001 899141.50432365 18612.23001585
0.11500001 889466.66880710 17024.39284261
0.11600001 879821.53265789 20073.12921286
0.11700001 870209.18755521 27724.86602121
0.11800001 860628.67003351 19970.88922872
0.11900001 851083.04629962 19915.34422146
0.12000001 841573.26501516 18329.46657544
0.12100001 832104.25799872 19795.76123033
0.12200001 822673.11318842 16696.15161874
0.12300001 813284.48558989 18152.51057361
0.12400001 803936.97084059 18088.58269620
0.12500001 794632.89280073 22527.84357242
0.12600001 785375.79843283 19449.83256473
0.12700001 776164.80431879 16392.60143974
0.12800001 767001.42915505 19293.92185970
0.12900001 757887.53786283 16256.68845337
0.13000001 748824.49607871 25014.48347056
0.13100001 739812.18463378 21972.42291935
0.13200001 730853.28844201 14580.52379175
0.13300001 721948.56264375 15962.28347256
0.13400001 713097.92941049 24548.39737731
0.13500001 704304.80139176 20114.94607613
0.13600001 695568.79919292 21440.90924608
0.13700001 686890.88235812 15640.50612880
0.13800001 678270.96418347 19798.73037814
0.13900001 669712.57802885 18283.15424239
0.14000001 661214.52265654 16781.62537645
0.14100001 652779.41178822 16685.04255222
0.14200001 644406.42176333 17969.27391840
0.14300001 636098.26569832 15113.69550587
0.14400001 627851.61369940 17752.50521473
0.14500001 619672.84489169 16285.00313195
0.14600001 611559.16236276 20227.32024936
0.14700001 603513.33948652 18757.19547614
0.14800001 595532.44182653 13310.15070278
0.14900001 587620.47529858 14543.60744982
0.15000001 579776.39517570 14445.12956737
0.15100001 572001.65786973 14345.80225628
0.15200001 564297.27069113 15540.74756816
0.15300001 556662.89530653 14144.80483722
0.15400001 549097.09111320 15319.80956502
0.15500001 541604.09224111 13940.88999220
0.15600001 534180.20254327 18869.91654541
0.15700001 526831.21965575 14983.08059416
0.15800001 519550.85074033 16108.67488751
0.15900001 512345.12412098 13525.91191522
0.16000001 505209.48554307 18301.21447766
0.16100001 498149.26741587 12105.02776961
0.16200001 491161.27844125 15611.56197222
0.16300001 484246.10082237 15486.19103537
0.16400001 477405.25508574 16542.09286967
0.16500001 470636.61245090 12890.73742362
0.16600001 463942.59558511 18594.82010897
0.16700001 457321.22825993 14981.84414516
0.16800001 450773.96166462 15997.96865484
0.16900001 444301.69036534 18127.50982285
0.17000001 437901.78247225 14601.83562603
0.17100001 431576.11630014 12248.13075897
0.17200001 425323.99599243 12140.87403893
0.17300001 419145.50441198 10939.69818177
0.17400001 413041.42699340 14095.03936180
0.17500001 407009.58807745 10745.05363271
0.17600001 401049.95696835 12777.45223248
0.17700001 395166.21863875 11606.03238958
0.17800001 389353.35392171 15681.20706985
0.17900001 383613.07401922 13464.81953407
0.18000001 377946.71813380 10261.25388202
0.18100001 372352.75484711 11181.75375625
0.18200001 366828.33848814 13090.26987731
0.18300001 361376.95326038 12966.20569550
0.18400001 355996.25932379 11854.67599551
0.18500001 350687.22882639 13697.84380507
0.18600001 345448.96059053 12596.79694305
0.18700001 340280.02943272 12474.66646837
0.18800001 335179.67161503 11402.81296708
0.18900001 330152.19896180 10350.27192648
0.19000001 325189.82231289 10248.35773441
0.19100001 320298.71040339 11991.98428412
0.19200001 315473.93757494 11872.86220164
0.19300001 310718.75299637 11754.49098128
0.19400001 306028.92542592 11636.75043920
0.19500001 301406.46071168 14178.16058187
0.19600001 296849.04021150 12280.64537389
0.19700001 292359.13041910 10419.67990055
0.19800001 287933.04510865 12032.72252374
0.19900001 283572.01776996 9357.87702866
0.20000001 279273.47532093 9262.10524676
0.20100001 275039.83302620 11667.19026839
0.20200001 270867.64257306 11547.08814865
0.20300001 266758.46926269 8162.80954525
0.20400001 262710.81330804 10501.86525837
0.20500001 258723.71700053 10392.93220315
0.20600001 254796.90827374 9493.73325103
0.20700001 250929.86307654 10177.71572748
0.20800001 247121.74716368 9296.72056776
0.20900001 243374.16688793 11499.42992905
0.21000001 239681.38372347 10620.28261483
0.21100001 236047.55306959 8256.94379671
0.21200001 232468.90622864 11141.07285770
0.21300001 228946.16035085 8084.08930417
0.21400001 225478.80864442 9453.19949933
0.21500001 222067.16758252 10072.96719777
0.21600001 218707.55328947 9254.61055499
0.21700001 215402.00074775 8452.37490897
0.21800001 212148.69762579 7665.99355116
0.21900001 208946.28132692 6895.22760981
0.22000001 205794.60807870 8186.50989645
0.22100001 202694.88674744 7424.71405263
0.22200001 199644.17772911 8681.52747905
0.22300001 196642.23705629 9250.05126852
0.22400001 193687.66389198 7844.35075856
0.22500001 190783.19867439 10994.83625952
0.22600001 187923.41427593 7678.55107042
0.22700001 185111.18051001 6330.80267282
0.22800001 182343.43460371 7516.19672981
0.22900001 179620.48235006 8055.97901438
0.23000001 176942.16560168 6744.15096085
0.23100001 174308.32510811 7885.70900083
0.23200001 171715.61926048 11402.77623627
0.23300001 169166.12369496 5937.73122252
0.23400001 166657.27117327 6462.13599537
0.23500001 164188.94997536 6974.74692483
0.23600001 161761.28806721 6900.73687533
0.23700001 159373.04023378 7396.50314709
0.23800001 157023.27382127 6192.21309603
0.23900001 154711.93836935 7240.51905816
0.24000001 152437.47441807 11572.29141782
0.24100001 150200.96144184 5452.29515824
0.24200001 148000.77806543 6473.55433879
0.24300001 145835.38846224 6938.84811126
0.24400001 143705.15363067 5281.16464575
0.24500001 141608.77493041 6270.43685054
0.24600001 139546.43007777 5687.21502685
0.24700001 137517.82050566 9208.19369666
0.24800001 135521.54318804 7086.42182854
0.24900001 133555.82570433 5509.17807093
0.25000001 131622.85408849 6937.84096722
0.25100001 129720.00238611 4903.41632217
0.25200001 127849.05057973 5822.24603885
0.25300001 126006.11710770 5280.91661783
0.25400001 124193.30835213 5225.43369614
0.25500001 122407.63343411 5170.49868088
0.25600001 120651.43605108 5116.22438781
0.25700001 118921.67366872 4602.26898873
0.25800001 117218.97191554 5009.35300182
0.25900001 115543.77631173 5407.44898724
0.26000001 113893.56976490 6242.50685418
0.26100001 112268.51320281 5294.58333316
0.26200001 110669.74732626 6985.47478176
0.26300001 109094.03731698 5184.14889860
0.26400001 107543.08359196 4702.32155256
0.26500001 106015.91354510 6768.05624098
0.26600001 104511.35441046 5859.95191908
0.26700001 103029.84503484 5384.33995631
0.26800001 101570.87886148 4098.38515600
0.26900001 100132.75353543 4460.91438110
0.27000001 98716.85532555  4012.84035888
0.27100001 97321.62995475  5161.93949708
0.27200001 95947.73930997  4714.87213282
0.27300001 94593.69137532  4665.36107941
0.27400001 93258.13066952  4616.27768661
0.27500001 91944.14777248  4187.13668772
0.27600001 90646.90760710  6026.20670292
0.27700001 89370.62185434  4472.10612924
0.27800001 88111.43613179  4424.95653196
0.27900001 86870.81495352  3648.57440073
0.28000001 85647.42997564  4332.04721320
0.28100001 84441.76872622  4286.26438341
0.28200001 83253.44241178  4594.34143694
0.28300001 82081.92951795  4196.02843556
0.28400001 80926.21218978  4151.51488183
0.28500001 79787.26129214  4449.73577287
0.28600001 78664.08044859  4063.78658832
0.28700001 77557.23181990  4355.61434517
0.28800001 76464.15412493  3314.72123821
0.28900001 75388.14985985  3607.32314154
0.29000001 74325.94358155  4542.05862726
0.29100001 73279.20872442  3530.59244346
0.29200001 72246.32962134  3492.74897087
0.29300001 71228.04048723  4083.50375443
0.29400001 70222.87933108  3728.83506899
0.29500001 69232.97676401  3381.33874522
0.29600001 68255.35059519  3040.77601296
0.29700001 67291.28380274  3609.50463405
0.29800001 66341.12151837  3272.93938505
0.29900001 65404.09966691  3826.14001164
0.30000001 64478.63580727  3493.45265342
0.30100001 63567.27661101  2879.59776680
0.30200001 62667.28885489  3702.69693728
0.30300001 61780.48518887  3380.62830958
0.30400001 60905.63781252  3622.36298039
0.30500001 60043.34126889  4409.58319155
0.30600001 59191.58057287  3270.92689731
0.30700001 58352.66356775  2695.89318446
0.30800001 57525.06826089  5065.94537624
0.30900001 56709.14948626  3428.06824874
0.31000001 55904.78135630  3129.54980849
0.31100001 55110.93199916  3095.03008761
0.31200001 54329.25302229  2550.75855016
0.31300001 53557.85871375  2522.57526485
0.31400001 52798.77942334  3742.11366881
0.31500001 52048.92339420  3700.67862854
0.31600002 51311.43034747  3171.81621711
0.31700002 50583.74077296  2412.84454911
0.31800002 49866.53232977  4056.39326443
0.31900002 49160.43748780  3539.55166672
0.32000002 48464.91829484  3033.66170431
0.32100002 47779.18173148  3000.05496297
0.32200002 47104.92397676  2510.45704221
0.32300002 46439.17986144  2708.33309776
0.32400002 45784.98759470  2678.42190112
0.32500002 45140.29900274  2207.36072576
0.32600002 44505.85551224  3274.51847437
0.32700002 43881.68052114  2806.67241904
0.32800002 43268.20116794  2348.81441162
0.32900002 42662.64199398  2322.98096657
0.33000002 42068.35761251  2088.69405437
0.33100002 41482.75244182  2272.42528637
0.33200002 40908.37177603  2043.37326698
0.33300002 40342.85585268  2829.64804351
0.33400002 39787.63239632  2199.26148485
0.33500002 39241.80502081  3164.45930673
0.33600002 38704.93971792  2934.80219309
0.33700002 38177.67056001  1935.60798906
0.33800002 37660.83893436  2681.07525071
0.33900002 37152.44345220  2084.25217637
0.34000002 36653.67991575  2249.80297978
0.34100002 36164.42596212  2411.80568163
0.34200002 35685.10118612  1835.99854298
0.34300002 35214.26618396  3452.40682018
0.34400002 34753.58153082  2158.19751528
0.34500002 34301.48143094  1780.24697058
0.34600002 33859.39261835  2114.85776310
0.34700002 33425.26370296  2093.75861752
0.34800002 33000.99112518  2073.12236067
0.34900002 32585.37614016  3250.39142393
0.35000002 32179.13612271  2033.07791652
0.35100002 31782.63584467  2181.56022770
0.35200002 31393.45362450  1828.51179296
0.35300002 31014.45532689  2140.92795262
0.35400002 30643.59999593  2610.83484331
0.35500002 30282.13793056  1778.77286629
0.35600002 29928.91932113  2404.04055834
0.35700002 29584.39104721  1747.55006193
0.35800002 29248.92346238  2047.57098397
0.35900002 28922.53767687  1717.99881938
0.36000002 28604.40966749  2323.39328529
0.36100002 28294.27484280  1536.37919674
0.36200002 27994.18954314  1524.28369282
0.36300002 27700.97322660  2117.46249374
0.36400002 27416.84640106  1801.28689387
0.36500002 27140.17797499  2085.99417797
0.36600002 26872.88908936  1923.15839878
0.36700002 26613.08584523  1615.94664907
0.36800002 26362.37094318  2042.82022115
0.36900002 26119.38181032  1594.58833505
0.37000002 25883.87211263  1728.52506156
0.37100002 25656.34508520  1574.78653593
0.37200002 25437.43741567  1707.86962899
0.37300002 25226.04811957  1556.69950320
0.37400002 25022.25432546  1548.25205973
0.37500002 24826.35397797  1540.22707376
0.37600002 24638.20553797  1532.61964809
0.37700002 24457.57191572  1941.44215064
0.37800002 24284.27663993  1518.61731162
0.37900002 24119.22878969  1787.23493798
0.38000002 23960.71859712  2054.03269904
0.38100002 23808.76125914  1909.93891869
0.38200002 23665.27566571  1903.39821196
0.38300002 23528.10208293  2032.82811627
0.38400002 23398.24953314  1621.49876946
0.38500002 23274.66377913  2560.44588364
0.38600002 23159.02663107  1478.81971559
0.38700002 23049.11096784  1609.74998626
0.38800002 22945.89655349  2276.11831646
0.38900002 22849.31073682  2272.36406043
0.39000002 22759.60437429  2269.24646165
0.39100002 22675.56637974  1333.32336630
0.39200002 22598.54873337  1332.18451095
0.39300002 22526.79758821  1597.60056065
0.39400002 22462.56586178  1730.17921747
0.39500002 22402.81340428  1729.94533304
0.39600002 22349.23210839  1463.98651862
0.39700002 22300.89203391  1597.63598100
0.39800002 22259.24780265  1731.88085734
0.39900002 22222.11235620  1466.65948500
0.40000002 22190.71126594  1735.20274965
0.40100002 22164.36491463  1737.46464798
0.40200002 22143.63879939  1472.44133173
0.40300002 22127.75007495  1743.22423350
0.40400002 22116.80056474  2015.39354695
0.40500002 22110.12455954  1481.15731442
0.40600002 22109.27464894  2024.65692191
0.40700002 22112.25879046  2029.90545314
0.40800002 22119.80807888  2171.28046390
0.40900002 22131.40781389  1769.40613856
0.41000002 22147.77592388  1501.95149544
0.41100002 22168.09813346  1917.98394139
0.41200002 22191.43168378  1374.75925795
0.41300002 22220.28616686  1517.86781998
0.41400002 22251.86868820  1662.21466977
0.41500002 22287.15998407  1668.86261868
0.41600002 22325.08714189  1955.00797365
0.41700002 22367.76702992  2243.93449477
0.41800002 22414.11851894  1831.34564037
0.41900002 22461.76844555  1698.10977495
0.42000002 22513.03387197  1706.03778766
0.42100002 22567.88945244  1571.40221703
0.42200002 22625.14284057  2584.01768627
0.42300002 22684.70732278  1587.02219950
0.42400002 22746.67126679  1740.12043437
0.42500002 22811.81155501  1894.97727567
0.42600002 22877.75885438  2637.57694331
0.42700002 22947.15001225  1620.52781066
0.42800002 23017.82823764  1629.31704901
0.42900002 23091.17929944  1787.25736247
0.43000002 23166.27472483  1497.69973193
0.43100002 23241.52463968  1656.65595482
0.43200002 23319.66765752  1817.53498336
0.43300002 23398.45396865  1980.21125321
0.43400002 23479.21799856  1838.42285641
0.43500002 23560.45040782  2311.28029453
0.43600002 23643.62416603  1549.83963753
0.43700002 23726.93263300  1870.63145743
0.43800002 23810.63046863  2038.30911786
0.43900002 23896.22717074  1577.15106801
0.44000002 23981.59521083  2220.93563772
0.44100002 24068.01894483  2074.42265116
0.44200002 24154.57792973  1605.07177950
0.44300002 24241.53641112  1775.93504164
0.44400002 24328.55250418  1623.93095661
0.44500002 24415.02482503  1796.70176202
0.44600002 24501.55181693  1642.82912718
0.44700002 24588.96768687  2313.33018961
0.44800002 24674.98548020  2160.41845610
0.44900002 24761.27427488  2172.80192059
0.45000002 24847.45894832  2353.30294852
0.45100002 24932.12832061  1859.43821827
0.45200002 25016.69728760  1699.88466125
0.45300002 25100.11091615  2393.04468816
0.45400002 25183.07257903  2921.86613446
0.45500002 25265.42091355  2073.78584687
0.45600002 25346.16817024  1737.47991042
0.45700002 25426.31011257  2445.50262253
0.45800002 25504.78703046  1931.60513730
0.45900002 25582.08848884  1765.16418939
0.46000002 25658.59517149  1774.29194020
0.46100002 25732.75985510  2139.93641097
0.46200002 25806.13851210  2150.68368553
0.46300002 25877.90012104  1981.21212717
0.46400002 25947.45062413  1990.81824349
0.46500002 26016.51500207  1818.55448484
0.46600002 26082.58166946  2009.79342580
0.46700002 26146.98790707  2019.07050188
0.46800002 26210.22443806  2212.66725193
0.46900002 26270.66850676  2037.29043926
0.47000002 26329.37959336  2232.20490772
0.47100002 26386.16781839  2989.02523214
0.47200002 26441.00045412  3001.58251382
0.47300002 26493.53870469  2448.79789854
0.47400002 26543.19030550  2836.80359836
0.47500002 26591.13138415  2278.32824498
0.47600002 26637.48091704  2096.50303495
0.47700002 26680.13408343  2104.26227490
