# SAXS profile: number of points = 501, q_min = 0, q_max = 0.5, delta_q = 0.001
#    q    intensity    error
0.00000000 1700912.83420644 357.19169518
0.00100000 1700830.06427928 663.32374082
0.00200000 1700581.70309969 1071.36650688
0.00300000 1700167.96278777 1122.11089541
0.00400000 1699588.69337536 1657.09903901
0.00500000 1698844.47843152 1528.96009111
0.00600000 1697935.15878733 1961.11518824
0.00700000 1696861.30106900 2647.10373968
0.00800000 1695622.75650689 2289.09081793
0.00900000 1694220.76531537 2541.33125661
0.01000000 1692654.67890254 2792.88034078
0.01100000 1690925.83645105 3043.66663813
0.01200000 1689034.10119809 3952.33997009
0.01300000 1686980.68030869 4605.45746037
0.01400000 1684765.56817259 5686.08404465
0.01500000 1682390.17955737 4441.51027181
0.01600000 1679853.99177987 8138.89295401
0.01700000 1677159.24797136 4981.16318992
0.01800000 1674305.79037311 7634.83474765
0.01900000 1671294.50348096 6518.04885769
0.02000000 1668126.40176933 5254.59840327
0.02100000 1664803.51858145 6592.62223248
0.02200000 1661324.56414198 6304.72700736
0.02300000 1657692.59727702 6564.46298402
0.02400000 1653907.25510384 6822.36773839
0.02500000 1649971.16541616 7078.37662291
0.02600000 1645884.05033251 6665.83070873
0.02700000 1641648.35503725 7584.41574765
0.02800000 1637263.78506430 7834.30757081
0.02900000 1632733.02146763 8816.75872074
0.03000000 1628057.28336690 9084.56005876
0.03100000 1623236.96855913 7791.53780760
0.03200000 1618273.66804798 9612.54603094
0.03300000 1613170.94242733 9872.60662279
0.03400000 1607927.02545472 9285.77900045
0.03500000 1602545.32245177 12115.24319719
0.03600000 1597027.00451122 12408.90039851
0.03700000 1591373.82527387 12699.16371299
0.03800000 1585587.31191381 11130.82344476
0.03900000 1579669.78424623 9478.01914440
0.04000000 1573620.81433176 11613.32214792
0.04100000 1567444.59295895 10862.39153286
0.04200000 1561141.89248809 13090.17537580
0.04300000 1554713.63858155 11287.22154003
0.04400000 1548163.43027995 10450.10363971
0.04500000 1541492.56694183 12763.55904734
0.04600000 1534701.15220264 14065.53671380
0.04700000 1527793.52655624 11000.11390280
0.04800000 1520769.76994801 13413.18999503
0.04900000 1513634.17245126 14757.93386834
0.05000000 1506386.06634177 14981.01012738
0.05100000 1499030.09885199 17538.65297359
0.05200000 1491564.31825101 17786.90532404
0.05300000 1483995.25631914 13222.39835020
0.05400000 1476322.59729640 12179.66199568
0.05500000 1468548.90919522 13569.39255397
0.05600000 1460675.62930773 16235.41037737
0.05700000 1452707.35202703 13902.41000784
0.05800000 1444643.28899177 17899.13118636
0.05900000 1436486.21534309 14221.21419611
0.06000000 1428239.82809613 16988.91354891
0.06100000 1419905.40198847 17166.65711226
0.06200000 1411485.24336238 14672.38979059
0.06300000 1402982.25186520 16162.35629716
0.06400000 1394395.78444896 20393.03930128
0.06500000 1385731.90781089 16462.49583487
0.06600000 1376990.96168812 15222.63579371
0.06700000 1368175.20377405 18142.00405107
0.06800000 1359287.36808669 15475.48741006
0.06900000 1350330.28610764 18432.00926834
0.07000000 1341304.77107515 15713.38612898
0.07100000 1332214.01759414 17265.49447670
0.07200000 1323060.02785749 14487.50798373
0.07300000 1313846.33677777 21875.54253234
0.07400000 1304574.24236892 17611.75309734
0.07500000 1295246.11009558 16242.38698192
0.07600000 1285862.77505735 19307.23047262
0.07700000 1276429.94188938 16427.65412238
0.07800000 1266947.27567840 18015.99110503
0.07900000 1257417.22228240 16597.90811263
0.08000000 1247844.18244528 19709.69978633
0.08100000 1238228.78247836 24368.34358249
0.08200000 1228572.89847322 19884.45329487
0.08300000 1218879.70265688 19965.25046653
0.08400000 1209151.41806786 21583.35382560
0.08500000 1199390.01174975 21660.98462908
0.08600000 1189597.90577859 20181.52941909
0.08700000 1179778.55279536 17130.38539099
0.08800000 1169931.44332385 15618.58550188
0.08900000 1160061.96389202 20359.08842257
0.09000000 1150170.08936380 18839.78694879
0.09100000 1140258.92877016 18882.68874756
0.09200000 1130329.78029178 20498.53152875
0.09300000 1120388.17902762 28435.45331996
0.09400000 1110430.61566135 20570.72812190
0.09500000 1100463.08228146 17431.33604266
0.09600000 1090486.82239214 20626.55921516
0.09700000 1080506.10016602 23825.16062875
0.09800000 1070520.68832988 19076.67956298
0.09900000 1060533.52829129 20680.40477412
0.10000000 1050545.30855393 20690.49082499
0.10100000 1040558.65924200 20696.71270573
0.10200000 1030576.43228898 17514.64729058
0.10300000 1020599.75449314 19105.62830285
0.10400000 1010632.16679375 20692.69458859
0.10500000 1000675.69088903 15910.74423373
0.10600001 990727.89231687 25441.89347183
0.10700001 980796.63907824 23833.35945114
0.10800001 970879.99125052 17461.27746440
0.10900001 960981.90854528 20613.06290846
0.11000001 951102.48474054 20586.61425121
0.11100001 941244.92273077 18975.49853549
0.11200001 931409.90811573 25259.83789726
0.11300001 921599.97098326 23639.04036867
0.11400001 911816.71295938 23593.25855870
0.11500001 902062.78717487 18835.07188312
0.11600001 892338.01706478 15660.53293696
0.11700001 882646.26418584 17185.12357303
0.11800001 872985.99832824 18699.36096490
0.11900001 863360.54592517 15540.49055864
0.12000001 853770.91296583 18595.13136032
0.12100001 844221.90429251 24718.81852214
0.12200001 834710.70183435 21560.57844413
0.12300001 825242.08302890 15349.50346752
0.12400001 815814.24110535 19885.47306390
0.12500001 806429.91000212 19813.98382240
0.12600001 797092.59332662 16703.07608027
0.12700001 787801.09025829 24201.25063325
0.12800001 778557.40275828 18078.10374405
0.12900001 769363.07368643 19503.35483718
0.13000001 760219.53055464 14938.31447951
0.13100001 751126.70812451 17846.77142629
0.13200001 742087.62165721 23687.43799993
0.13300001 733102.64112986 19155.97291579
0.13400001 724171.63714690 17597.37161231
0.13500001 715298.25700732 14592.08513094
0.13600001 706481.74156277 17421.84056839
0.13700001 697723.81623352 23108.61388330
0.13800001 689023.45877233 18675.98173070
0.13900001 680385.55314322 15716.90701879
0.14000001 671807.41819128 21313.09134726
0.14100001 663292.43126944 25430.63301425
0.14200001 654839.81415926 18260.20907908
0.14300001 646452.13433024 13963.36676015
0.14400001 638125.78688034 20818.85477899
0.14500001 629867.79231210 20691.15795350
0.14600001 621674.71933128 15078.72102871
0.14700001 613550.01911339 14982.89217359
0.14800001 605490.24928051 13532.70770987
0.14900001 597499.48556133 14788.11296536
0.15000001 589576.79917883 18695.48118407
0.15100001 581723.82511360 17242.29498994
0.15200001 573941.26789965 14489.14799183
0.15300001 566229.09532397 13079.89271921
0.15400001 558585.31002377 14285.81997802
0.15500001 551014.60078204 12893.74226679
0.15600001 543513.44107933 14079.71635565
0.15700001 536087.32487620 12705.27019921
0.15800001 528729.95280250 22698.37794515
0.15900001 521447.66951473 13766.21912496
0.16000001 514235.68195589 13660.67153598
0.16100001 507099.17118916 14787.01252989
0.16200001 500035.24114330 15893.62089002
0.16300001 493044.52983183 14554.67520773
0.16400001 486128.24059259 20453.84668855
0.16500001 479284.64971211 17901.28251189
0.16600001 472516.11296090 16571.14086391
0.16700001 465820.04126171 14086.39871284
0.16800001 459198.43191301 15132.88503821
0.16900001 452652.33634807 12696.89863409
0.17000001 446178.95963225 14877.83811146
0.17100001 439780.17891967 14750.22789749
0.17200001 433454.78596307 13497.78267229
0.17300001 427204.02655127 13380.03074345
0.17400001 421027.63461548 13262.37111672
0.17500001 414923.78472749 14240.18496438
0.17600001 408892.57353173 11941.70817399
0.17700001 402937.54728635 12910.11962481
0.17800001 397053.89222887 12793.07701186
0.17900001 391242.86070839 11619.91351189
0.18000001 385506.52558728 12559.80319690
0.18100001 379842.86373255 11406.68173670
0.18200001 374248.96850607 12327.76160493
0.18300001 368728.50198605 11194.59784912
0.18400001 363279.16863886 15121.49610894
0.18500001 357901.82805592 9985.46147449
0.18600001 352595.72027241 11868.37250507
0.18700001 347359.20832789 14693.29520645
0.18800001 342191.56654724 13581.58391794
0.18900001 337097.44569875 11528.73318760
0.19000001 332068.79765039 12367.90295286
0.19100001 327111.67545339 9420.81669819
0.19200001 322221.35540043 12126.80128350
0.19300001 317401.20811837 12007.28827049
0.19400001 312646.67562435 12802.88197180
0.19500001 307960.07047751 9054.02649989
0.19600001 303338.64547717 13445.48609616
0.19700001 298785.37296394 9761.31859603
0.19800001 294296.36043495 10541.69612897
0.19900001 289872.63853679 11305.03343721
0.20000001 285511.92592222 9469.00347073
0.20100001 281216.63872866 8520.86455619
0.20200001 276983.17781348 9277.55197935
0.20300001 272813.13439831 9182.89053787
0.20400001 268705.02175951 9915.21577158
0.20500001 264657.95301442 12266.89670204
0.20600001 260671.60665719 9712.62452314
0.20700001 256745.49644193 12015.68980145
0.20800001 252878.60343541 13477.16580716
0.20900001 249072.90207446 8630.37646485
0.21000001 245322.28983947 9317.34100856
0.21100001 241631.12656950 7683.87018815
0.21200001 237995.55693629 9124.75008430
0.21300001 234416.40415502 7524.76692911
0.21400001 230893.17183658 13403.34925878
0.21500001 227425.88304440 8842.31875081
0.21600001 224011.20324521 8749.87801244
0.21700001 220650.96907739 7215.28702997
0.21800001 217343.51367021 9281.65519013
0.21900001 214087.21274582 8477.85402558
0.22000001 210882.29411754 6990.74838054
0.22100001 207729.67662521 8300.87827044
0.22200001 204626.67386072 7529.23882072
0.22300001 201572.65934928 8127.41000927
0.22400001 198566.55676577 7371.78376851
0.22500001 195611.10596934 7294.33848653
0.22600001 192700.66482743 9842.18692148
0.22700001 189838.19009143 7141.71304896
0.22800001 187020.72946869 8993.82730547
0.22900001 184248.52880709 7627.88945334
0.23000001 181521.35048949 8176.62961949
0.23100001 178839.16955174 6223.60339473
0.23200001 176198.56906478 7389.76833607
0.23300001 173601.65551598 9749.46943487
0.23400001 171045.43821349 7235.22237862
0.23500001 168530.61928392 5965.98420482
0.23600001 166056.88614539 7083.98709801
0.23700001 163622.67251705 5841.32968514
0.23800001 161227.51414901 6936.00798675
0.23900001 158871.30000581 6291.30377781
0.24000001 156552.37640974 8489.05301235
0.24100001 154271.86521880 6160.07586957
0.24200001 152027.99831994 6095.56288097
0.24300001 149819.52801060 6031.73448302
0.24400001 147646.39844588 7596.40755938
0.24500001 145507.64917841 6443.07901041
0.24600001 143403.35874254 6375.71363130
0.24700001 141333.33527310 8412.16051340
0.24800001 139296.00396492 6763.51779248
0.24900001 137289.42590591 6692.85982954
0.25000001 135316.28560894 6623.05591245
0.25100001 133373.46552717 7058.12412961
0.25200001 131463.13806901 4989.02632575
0.25300001 129581.12072515 5924.44911984
0.25400001 127729.73597264 7328.49394815
0.25500001 125905.63925082 5801.73213117
0.25600001 124111.56942374 6698.30171871
0.25700001 122344.46103954 6628.62321274
0.25800001 120604.56462751 5154.03631322
0.25900001 118892.74099935 4636.81711836
0.26000001 117206.11277171 5965.20539176
0.26100001 115545.31338637 5903.21034023
0.26200001 113910.83427180 6740.67393698
0.26300001 112299.97389287 4891.78709424
0.26400001 110714.22229082 5281.06865316
0.26500001 109152.60618497 6097.26487001
0.26600001 107613.92830490 4740.93183581
0.26700001 106098.73732290 5118.20333065
0.26800001 104606.49616663 5909.22124808
0.26900001 103135.32970449 9189.35831152
0.27000001 101686.74802846 4546.92315326
0.27100001 100259.27049113 4908.69411554
0.27200001 98853.38249618  4452.85082526
0.27300001 97467.85219979  5207.70758948
0.27400001 96100.96279160  5549.83086386
0.27500001 94756.10133012  4707.48333686
0.27600001 93428.48074053  4270.14891433
0.27700001 92121.90075694  6530.52185373
0.27800001 90832.75608703  5321.89143101
0.27900001 89562.50866776  3761.62554208
0.28000001 88309.89968321  5583.39367172
0.28100001 87075.22360168  3683.28213268
0.28200001 85858.30321429  4373.62217274
0.28300001 84658.47085629  5409.67654376
0.28400001 83474.72290785  4282.25348786
0.28500001 82308.17191480  3884.12281650
0.28600001 81157.64303344  4891.37137714
0.28700001 80023.69331755  3802.72608644
0.28800001 78903.70931862  5472.76153738
0.28900001 77801.31199230  5076.53584779
0.29000001 76712.82663293  4018.21804923
0.29100001 75640.08455199  4638.25020428
0.29200001 74581.60476039  4589.00635813
0.29300001 73538.00963378  3567.32901620
0.29400001 72507.78315361  3850.16346771
0.29500001 71492.92830663  4126.57201720
0.29600001 70490.78998204  4082.47429506
0.29700001 69502.52346592  4038.79182979
0.29800001 68528.26769124  3688.19154174
0.29900001 67567.50881156  3344.59184450
0.30000001 66618.59263033  4812.52735944
0.30100001 65684.00797438  4165.67998294
0.30200001 64760.92058287  2943.38397983
0.30300001 63851.45191474  3493.95161418
0.30400001 62954.06443696  3456.17830121
0.30500001 62069.50787726  4273.48581967
0.30600001 61195.70791237  3099.86873106
0.30700001 60334.93573662  3066.22157930
0.30800001 59485.80172525  3308.60044860
0.30900001 58648.60030078  3545.30805603
0.31000001 57823.16805078  3506.68619246
0.31100001 57008.43678368  3735.19295491
0.31200001 56206.01882103  3694.42179202
0.31300001 55414.06821283  3393.00355732
0.31400001 54634.77512449  3355.94122091
0.31500001 53864.82079400  2808.51188917
0.31600002 53107.55545592  3282.84369594
0.31700002 52360.25108471  2997.10091400
0.31800002 51623.58646087  3211.24534785
0.31900002 50898.23587431  2931.73852518
0.32000002 50183.82801390  3624.52714992
0.32100002 49479.17123685  3345.78171746
0.32200002 48786.22506968  3309.16980317
0.32300002 48102.06332100  2805.31246571
0.32400002 47429.68716128  2774.63683032
0.32500002 46766.80366817  2515.58648843
0.32600002 46114.43327027  2940.48697672
0.32700002 45472.48231837  2908.42010680
0.32800002 44841.40195565  2212.92329130
0.32900002 44218.50119477  2407.69750407
0.33000002 43606.88268002  2814.60637586
0.33100002 43004.18675592  2784.09118242
0.33200002 42412.92660679  2965.93609806
0.33300002 41830.66271016  2514.85956123
0.33400002 41258.73987324  2487.90213217
0.33500002 40696.47441359  2256.21264834
0.33600002 40143.40900309  2435.09930545
0.33700002 39599.95896119  3613.89242594
0.33800002 39067.05056106  2979.83942266
0.33900002 38542.86611577  1965.68626499
0.34000002 38028.39357386  2139.66766576
0.34100002 37523.67914597  2117.46131449
0.34200002 37028.82555361  2476.67311445
0.34300002 36542.70851098  2074.16423331
0.34400002 36066.74981999  1866.45439158
0.34500002 35599.79911681  2217.15559400
0.34600002 35142.80908717  2743.77494943
0.34700002 34693.78097849  2173.21854342
0.34800002 34254.93409274  1972.57047315
0.34900002 33824.80252050  2308.54288136
0.35000002 33404.23258312  2462.22610032
0.35100002 32993.35065851  1916.25389700
0.35200002 32590.04085567  2415.89984305
0.35300002 32197.02808684  1709.66227239
0.35400002 31812.18805421  2540.99864118
0.35500002 31436.81364223  2350.21629921
0.35600002 31069.96751805  1830.17652334
0.35700002 30711.75466900  2143.98769499
0.35800002 30362.90217857  2125.55506769
0.35900002 30023.14682957  1783.37500615
0.36000002 29691.76771089  1929.37115724
0.36100002 29368.47245861  1754.17894304
0.36200002 29055.37163431  1898.47807251
0.36300002 28749.17216371  1569.70487449
0.36400002 28452.16616278  1557.75617120
0.36500002 28162.85112622  2009.98278009
0.36600002 27882.76512780  2762.90332739
0.36700002 27610.42887859  1676.50532092
0.36800002 27347.21252986  1513.66828523
0.36900002 27091.82735488  1503.59648942
0.37000002 26844.00575358  1643.25589005
0.37100002 26604.27577189  2523.68171927
0.37200002 26373.34162329  1475.58853372
0.37300002 26149.88502358  1760.41034318
0.37400002 25934.15360919  2334.07393539
0.37500002 25726.36467671  1450.96703650
0.37600002 25526.52269505  1876.58240482
0.37700002 25334.23384971  1580.09624006
0.37800002 25149.16201917  1715.67591422
0.37900002 24972.68556750  1565.78745926
0.38000002 24802.70545207  1984.46455723
0.38100002 24639.41088498  1835.38980377
0.38200002 24484.62464996  2531.95515500
0.38300002 24336.30614966  1822.30269082
0.38400002 24195.37954800  1956.19652913
0.38500002 24060.74929543  1393.11745020
0.38600002 23934.16900233  1945.13000697
0.38700002 23813.33798161  1385.93633619
0.38800002 23699.27323724  1382.85265891
0.38900002 23591.93276037  1656.15375824
0.39000002 23491.66594071  1515.56489997
0.39100002 23396.91988763  1375.73895457
0.39200002 23309.45606411  1786.32025010
0.39300002 23227.28027514  1784.55202809
0.39400002 23152.64444517  1508.97367321
0.39500002 23082.56105581  1508.21461084
0.39600002 23018.70157831  1644.91649272
0.39700002 22960.23327081  1644.87118945
0.39800002 22908.54618051  1508.18420925
0.39900002 22861.35521930  1646.01765378
0.40000002 22820.08259967  1647.15364008
0.40100002 22783.75939689  1786.01898374
0.40200002 22753.16902887  1650.51495956
0.40300002 22727.55789553  2203.66411796
0.40400002 22706.94911141  2483.00500298
0.40500002 22690.76522896  1796.42796829
0.40600002 22680.31446393  1523.09658999
0.40700002 22673.85480090  2497.75196321
0.40800002 22671.89522383  1530.01292167
0.40900002 22674.16860113  1673.35372205
0.41000002 22681.33180568  1677.96500649
0.41100002 22692.48134999  1402.39541388
0.41200002 22706.65362199  1406.67725853
0.41300002 22726.39189899  1693.57080456
0.41400002 22748.94629738  1416.12197411
0.41500002 22775.28567763  1563.29568299
0.41600002 22804.19834373  1711.68320879
0.41700002 22838.11170881  1431.94967199
0.41800002 22875.73518253  1725.28802922
0.41900002 22914.66063067  1587.98605695
0.42000002 22957.26822701  1739.70186868
0.42100002 23003.70123423  1601.74779284
0.42200002 23052.37127723  1755.20763222
0.42300002 23103.51944236  1616.32229678
0.42400002 23157.12993372  1623.89381355
0.42500002 23213.86995827  1631.70299669
0.42600002 23271.68110375  1788.66149439
0.42700002 23332.78627874  1947.35443510
0.42800002 23395.37133554  1957.13988182
0.42900002 23460.76963856  1513.21971339
0.43000002 23527.89594110  2433.72567147
0.43100002 23595.20210633  1987.65991963
0.43200002 23665.41089418  1690.77536146
0.43300002 23736.43982046  1854.29076665
0.43400002 23809.43964320  2019.63581344
0.43500002 23883.05935464  1718.14737139
0.43600002 23958.58098795  1884.58206982
0.43700002 24034.35864811  1736.96318181
0.43800002 24110.63275718  1905.22229076
0.43900002 24188.77670508  1756.10527201
0.44000002 24266.86513236  1926.30384549
0.44100002 24345.91451391  1775.54762964
0.44200002 24425.29482099  2434.59137666
0.44300002 24505.06050563  2121.64823912
0.44400002 24584.95553090  2461.56878919
0.44500002 24664.53557606  1815.06325906
0.44600002 24744.00172727  1659.08539444
0.44700002 24824.59054314  1835.03381991
0.44800002 24903.65160583  1844.98711666
0.44900002 24983.26052484  1686.37016535
0.45000002 25062.74115337  2712.79123101
0.45100002 25140.85532636  2386.37010067
0.45200002 25218.88465421  2056.34795216
0.45300002 25295.74930549  2067.16873121
0.45400002 25372.26754838  2251.15454492
0.45500002 25448.26128433  2436.92561608
0.45600002 25522.67677112  2449.41140581
0.45700002 25596.59196186  1758.48595112
0.45800002 25668.93139507  2120.76721237
0.45900002 25740.05980964  2664.09631656
0.46000002 25810.50238689  2320.23522204
0.46100002 25878.67080578  1972.73116902
0.46200002 25946.08956786  2162.34720707
0.46300002 26012.09416313  2172.53020747
0.46400002 26075.84449712  2910.06438380
0.46500002 26139.14954930  2009.83930410
0.46600002 26199.63184836  2202.34115755
0.46700002 26258.38862589  2212.00676269
0.46800002 26316.14704618  1851.34103244
0.46900002 26371.06576784  2416.90829218
0.47000002 26424.38317679  2426.94758790
0.47100002 26475.91023406  1874.49453342
0.47200002 26525.43958182  3011.16804405
0.47300002 26572.83265184  2078.26134020
0.47400002 26617.35460315  2465.43258697
0.47500002 26660.16521271  1903.53588641
0.47600002 26701.46082086  1910.48961229
0.47700002 26739.25137973  2108.92485628
