# SAXS profile: number of points = 501, q_min = 0, q_max = 0.5, delta_q = 0.001
#    q    intensity    error
0.00000000 1700912.83420644 255.13692513
0.00100000 1700830.04310009 510.24902505
0.00200000 1700581.61374070 994.84027554
0.00300000 1700167.75814116 1224.12082947
0.00400000 1699588.32908506 1657.09868382
0.00500000 1698843.91279247 1681.85554023
0.00600000 1697934.33989694 2495.96358126
0.00700000 1696860.18687068 2239.85553976
0.00800000 1695621.29334502 2517.99772693
0.00900000 1694218.93487480 4066.12561752
0.01000000 1692652.39562893 3630.73954540
0.01100000 1690923.09948228 3348.02788275
0.01200000 1689030.82791699 3952.33231061
0.01300000 1686976.81456417 3896.91661352
0.01400000 1684761.14529144 4927.92656844
0.01500000 1682385.07485791 6056.58653918
0.01600000 1679848.16020140 5140.33560001
0.01700000 1677152.70460343 4981.14375612
0.01800000 1674298.44222814 6203.27600759
0.01900000 1671286.35589315 5515.24522331
0.02000000 1668117.36680560 6305.48393176
0.02100000 1664793.54743909 6043.20085119
0.02200000 1661313.63618130 6877.83876627
0.02300000 1657680.63226775 6564.41560258
0.02400000 1653894.28667085 7442.52462938
0.02500000 1649957.10808056 7721.79961848
0.02600000 1645868.87365198 9998.65386476
0.02700000 1641631.99776606 8273.82564769
0.02800000 1637246.20262620 8546.42556964
0.02900000 1632714.17060353 11020.82115759
0.03000000 1628037.08437637 9841.48462742
0.03100000 1623215.57945429 8570.57865388
0.03200000 1618250.83915289 9612.41042730
0.03300000 1613146.66331808 12340.57254329
0.03400000 1607901.34082166 13506.37188609
0.03500000 1602518.06281914 10384.31752660
0.03600000 1596998.27728263 12408.67718794
0.03700000 1591343.48242950 9070.65826934
0.03800000 1585555.41662676 9275.49961653
0.03900000 1579636.15429840 13268.94431059
0.04000000 1573585.54369289 12580.81700481
0.04100000 1567407.53372205 14812.00188045
0.04200000 1561103.11526379 11076.02711665
0.04300000 1554673.03822088 12313.01103425
0.04400000 1548120.97109870 10449.81704023
0.04500000 1541448.31098317 11699.59322398
0.04600000 1534654.95252233 18392.84046101
0.04700000 1527745.34385781 14299.69708356
0.04800000 1520719.59290742 19001.39219748
0.04900000 1513582.01976726 14757.42537965
0.05000000 1506331.98857672 11523.44024921
0.05100000 1498973.86547165 14030.39603441
0.05200000 1491506.05092158 18971.95785184
0.05300000 1483934.71812415 13221.85895486
0.05400000 1476259.96909288 13397.05984427
0.05500000 1468484.06206939 12335.26669681
0.05600000 1460608.53292063 17483.48495491
0.05700000 1452638.13940772 17693.13336388
0.05800000 1444571.65033983 15341.35164293
0.05900000 1436412.42348956 19391.56862281
0.06000000 1428163.73684827 14374.46868294
0.06100000 1419826.86486412 15845.26855235
0.06200000 1411404.36423830 14671.54905206
0.06300000 1402898.88658528 16161.39592909
0.06400000 1394309.94027841 14953.97480883
0.06500000 1385643.61059317 21948.59581850
0.06600000 1376900.23411836 15221.63280038
0.06700000 1368081.94798359 15349.88017473
0.06800000 1359191.55503763 18287.92322907
0.06900000 1350231.97808489 15595.18007703
0.07000000 1341203.74995212 17140.58472706
0.07100000 1332110.48356545 20141.51145489
0.07200000 1322953.90567438 23178.15351324
0.07300000 1313737.62588776 17498.98599675
0.07400000 1304462.78627477 22012.81055000
0.07500000 1295131.98757845 17717.40642053
0.07600000 1285746.01585350 19305.47733309
0.07700000 1276310.50335893 16426.11694843
0.07800000 1266825.13449583 16513.06640255
0.07900000 1257292.36451479 19613.76180639
0.08000000 1247716.49336613 21223.65854778
0.08100000 1238098.60081626 18274.33620545
0.08200000 1228439.85498166 19882.29998586
0.08300000 1218743.99568097 18427.41007953
0.08400000 1209012.72298190 24663.86070652
0.08500000 1199248.53216694 15470.30679121
0.08600000 1189453.68444046 15522.37131075
0.08700000 1179631.66606831 17128.25259562
0.08800000 1169781.63655809 20301.56125590
0.08900000 1159909.35566338 15658.77703694
0.09000000 1150014.41673416 20407.00678358
0.09100000 1140100.56042202 15733.38847300
0.09200000 1130168.81933411 15765.85577050
0.09300000 1120224.34663430 18954.19683575
0.09400000 1110263.83184173 20567.63845150
0.09500000 1100293.49147996 19013.07242644
0.09600000 1090314.47922006 20623.29934390
0.09700000 1080330.79517115 15880.86343562
0.09800000 1070342.74071477 19073.50853633
0.09900000 1060352.49418567 23857.93224104
0.10000000 1050361.64324587 15912.97964352
0.10100000 1040372.11659764 17509.46354584
0.10200000 1030387.15306056 25471.17162173
0.10300000 1020407.63660530 20693.86784381
0.10400000 1010437.07994348 17505.82323358
0.10500000 1000478.04742219 17498.36187270
0.10600001 990527.46076642 20667.35644136
0.10700001 980593.60682925 19062.74061381
0.10800001 970674.06828834 17457.57393975
0.10900001 960773.30012228 15852.76019814
0.11000001 950891.15691595 17415.57235866
0.11100001 941030.93256809 22133.04857588
0.11200001 931193.14925464 20518.84200979
0.11300001 921380.43438002 20482.28802059
0.11400001 911594.65664038 20442.51113768
0.11500001 901838.01721120 18830.37868605
0.11600001 892110.75986576 15656.54457293
0.11700001 882416.29436957 18742.52297509
0.11800001 872753.55645372 32715.16860450
0.11900001 863125.52904578 24858.01640737
0.12000001 853533.30451257 15491.63020663
0.12100001 843981.98396081 20078.33234428
0.12200001 834468.01392830 16935.52914053
0.12300001 824996.94993081 16879.43839085
0.12400001 815566.71976488 15291.87671611
0.12500001 806180.13222751 21331.52730389
0.12600001 796840.28102976 19733.75048962
0.12700001 787546.53143061 16632.98352767
0.12800001 778300.51245714 15060.11562582
0.12900001 769104.03535694 16497.28233596
0.13000001 759958.19103395 19413.13290500
0.13100001 750863.22175023 16353.80174060
0.13200001 741821.84436281 20719.08508976
0.13300001 732834.74433452 16202.97696109
0.13400001 723901.46847078 17590.80651317
0.13500001 715026.03241277 14586.53174895
0.13600001 706207.88509958 18866.34454000
0.13700001 697447.72075901 23099.46960075
0.13800001 688745.54740714 15796.37987467
0.13900001 680105.56887408 18566.88290584
0.14000001 671525.57469237 15623.04323201
0.14100001 663008.90782020 24007.55368444
0.14200001 654554.34046594 14040.19126520
0.14300001 646164.91042456 16748.59526820
0.14400001 637836.97228438 16647.54576189
0.14500001 629577.36137920 15166.51935106
0.14600001 621382.76850067 16441.78883016
0.14700001 613256.37845448 13614.29224396
0.14800001 605195.27502371 14878.72653842
0.14900001 597202.90977532 14780.77271431
0.15000001 589278.88547460 16016.60086291
0.15100001 581424.45755677 17233.42173514
0.15200001 573640.70020563 14481.56016003
0.15300001 565927.16933743 16994.79369717
0.15400001 558282.28507081 14278.07011448
0.15500001 550710.52966161 14175.28970246
0.15600001 543208.19529449 17909.57504410
0.15700001 535780.99223500 15237.61213833
0.15800001 528422.89564460 13863.17532156
0.15900001 521139.50546007 15008.81846568
0.16000001 513926.64227009 16134.72769567
0.16100001 506789.41272414 23398.46828998
0.16200001 499724.67473207 13440.09576137
0.16300001 492733.24774738 13333.36231348
0.16400001 485816.41403490 13226.35249651
0.16500001 478972.29404648 14311.69282178
0.16600001 472203.06200930 11828.68726180
0.16700001 465506.68613466 11730.76904446
0.16800001 458884.70555409 12796.00061856
0.16900001 452338.31653422 18455.40418602
0.17000001 445864.60665862 13723.71324098
0.17100001 439465.64343148 12472.03554953
0.17200001 433140.32117189 13487.99023823
0.17300001 426889.38734452 17826.90165737
0.17400001 420712.91889934 13252.45757119
0.17500001 414609.26333969 14229.39058984
0.17600001 408578.04335508 16271.62134511
0.17700001 402623.30013272 12900.05114553
0.17800001 396739.94372485 13848.20838980
0.17900001 390929.23972710 14777.12595966
0.18000001 385193.31784505 10457.99907348
0.18100001 379530.10522317 12433.40683442
0.18200001 373936.69131712 16423.30025845
0.18300001 368416.83749120 14235.62727314
0.18400001 362968.12009664 15108.54871276
0.18500001 357591.64464573 9976.80735694
0.18600001 352286.33182799 10869.79528208
0.18700001 347050.55610154 12722.87398777
0.18800001 341883.99119489 9692.41160830
0.18900001 336790.93335050 10558.39625940
0.19000001 331763.30613763 10455.52108694
0.19100001 326807.45673077 16000.49383756
0.19200001 321918.29213513 9319.53499767
0.19300001 317099.29841995 9227.59002005
0.19400001 312346.21897271 10049.74007034
0.19500001 307660.97604083 10854.27974764
0.19600001 303041.00435095 9850.34831192
0.19700001 298489.38105212 11524.67554705
0.19800001 294002.01629202 9653.55666116
0.19900001 289579.96635140 13031.09910166
0.20000001 285221.09031930 11179.24116341
0.20100001 280927.65306447 11065.74077720
0.20200001 276696.02052282 11795.55191239
0.20300001 272528.02825041 10841.16547620
0.20400001 268421.81944145 10730.16273934
0.20500001 264376.94059955 12253.87177599
0.20600001 260392.72489619 10510.75283726
0.20700001 256468.84394426 10402.37680209
0.20800001 252604.39488732 8711.06296946
0.20900001 248800.97124143 9404.67715750
0.21000001 245052.82440201 9307.10671076
0.21100001 241364.29733729 9210.46202180
0.21200001 237731.20071405 10633.71711064
0.21300001 234154.73470753 9019.64080734
0.21400001 230634.17108384 8925.54284291
0.21500001 227169.65261326 7360.29709265
0.21600001 223757.73982139 10196.64068574
0.21700001 220400.55820162 10810.64789091
0.21800001 217095.95132589 9271.08303971
0.21900001 213842.58174561 11290.88885002
0.22000001 210640.84360703 6982.74429573
0.22100001 207491.30281363 10364.19106560
0.22200001 204391.46266727 6836.89474950
0.22300001 201340.72005704 6765.04851380
0.22400001 198337.97883446 8032.68852263
0.22500001 195385.92902419 7948.29996856
0.22600001 192478.91275135 7864.68874693
0.22700001 189619.92544254 8430.50228385
0.22800001 186805.91348990 6416.78343183
0.22900001 184037.36854134 8889.00532092
0.23000001 181313.83707488 9423.78712764
0.23100001 178635.40168654 6838.16349996
0.23200001 175998.47513745 9226.72049545
0.23300001 173405.35486242 10347.09801400
0.23400001 170853.04911534 6624.82729277
0.23500001 168342.05271209 7747.10163222
0.23600001 165872.26899228 9434.81510652
0.23700001 163442.15139843 5834.88508090
0.23800001 161051.06148684 8660.52124109
0.23900001 158698.88405271 7427.10812497
0.24000001 156384.09284121 6783.94226833
0.24100001 154107.72386412 6153.52170496
0.24200001 151868.10372479 6089.15190687
0.24300001 149663.89269624 7121.00835133
0.24400001 147495.04518807 6504.53180048
0.24500001 145360.70982109 7509.33462458
0.24600001 143260.70178803 6369.37110280
0.24700001 141195.09356395 8929.17813939
0.24800001 139162.19388056 6757.02064352
0.24900001 137160.14203713 5657.85612669
0.25000001 135191.41221272 6107.94829273
0.25100001 133253.16432291 5540.66683467
0.25200001 131347.36134468 6978.48563839
0.25300001 129469.97864256 6412.64834555
0.25400001 127623.18967691 5369.74595971
0.25500001 125803.77333252 6280.12466188
0.25600001 124014.38129503 5736.90555014
0.25700001 122251.94873898 6150.49583206
0.25800001 120516.70575795 5150.28166425
0.25900001 118809.62664144 6023.64835573
0.26000001 117127.77903156 5502.66331926
0.26100001 115471.80830950 4538.04228129
0.26200001 113842.11973765 4940.17901977
0.26300001 112235.99542818 5333.45475511
0.26400001 110655.09967186 6157.95658812
0.26500001 109098.30119508 6529.53363550
0.26600001 107564.47676316 4307.95749822
0.26700001 106054.07216194 5542.38607345
0.26800001 104566.74661083 8016.61000827
0.26900001 103100.43051424 5845.79468679
0.27000001 101656.68879823 4958.81351424
0.27100001 100234.12244652 5316.41810615
0.27200001 98833.12046642  5261.38141702
0.27300001 97452.42612771  5607.41286475
0.27400001 96090.37120703  4360.10079986
0.27500001 94750.37784345  5099.46557687
0.27600001 93427.60054707  3881.91698645
0.27700001 92125.91087579  4609.98079840
0.27800001 90841.65188896  5322.41263607
0.27900001 89576.27439529  5267.08518372
0.28000001 88328.38990989  4467.65017309
0.28100001 87098.63315042  6263.26300628
0.28200001 85886.50464614  4739.64698322
0.28300001 84691.47799421  4690.21427331
0.28400001 83512.53161028  6069.27352204
0.28500001 82350.71411056  3886.13038281
0.28600001 81204.84409951  3495.86870395
0.28700001 80075.68254449  3805.19661462
0.28800001 78960.38238615  3765.22601230
0.28900001 77862.60277435  4403.13039531
0.29000001 76778.81191873  5697.37200811
0.29100001 75710.75245918  3647.74422615
0.29200001 74656.83876273  4593.63550651
0.29300001 73617.75459642  4220.50607079
0.29400001 72592.13191039  3533.42218800
0.29500001 71581.76942733  3178.23071302
0.29600001 70584.07320443  3773.42473213
0.29700001 69600.16707416  3733.35313859
0.29800001 68630.42216797  3693.68949593
0.29900001 67673.93668772  3045.32729511
0.30000001 66729.26073161  3314.10889112
0.30100001 65799.05930925  5365.25555007
0.30200001 64880.11552671  3538.56166834
0.30300001 63974.91490607  3500.70750939
0.30400001 63081.63087774  4040.37864900
0.30500001 62201.19873266  3140.53867269
0.30600001 61331.45375524  3389.17629497
0.30700001 60474.70458767  3352.71778107
0.30800001 59629.42663206  4145.73608287
0.30900001 58796.14288907  2734.02077378
0.31000001 57974.59046395  3786.32068246
0.31100001 57163.57700671  3745.35774280
0.31200001 56365.00640751  3175.60461135
0.31300001 55576.71685017  4188.26158013
0.31400001 54800.96231716  2848.28015129
0.31500001 54034.59966760  3585.73620372
0.31600002 53280.78279474  4053.60214695
0.31700002 52536.99840732  3007.21793122
0.31800002 51803.67899208  3222.44800428
0.31900002 51081.63735705  3187.49432200
0.32000002 50370.43582874  3395.47123999
0.32100002 49668.98626036  3118.71579496
0.32200002 48979.13738194  2373.03931852
0.32300002 48298.08497688  3051.47315333
0.32400002 47628.59921877  3482.84148279
0.32500002 46968.62365210  3215.47212748
0.32600002 46319.04008308  3635.11843785
0.32700002 45679.96979874  2696.94554463
0.32800002 45051.54189663  2445.62306767
0.32900002 44431.25078839  2419.28171999
0.33000002 43822.20216409  3481.23590477
0.33100002 43221.95622524  2367.69887414
0.33200002 42633.09058394  2981.33216572
0.33300002 42053.16736381  3160.29567705
0.33400002 41483.50449237  3335.27391913
0.33500002 40923.33756450  3300.05809748
0.33600002 40372.33920612  4081.64368703
0.33700002 39830.86445727  2423.30990834
0.33800002 39299.96993235  2597.92463541
0.33900002 38777.58045180  2570.95370571
0.34000002 38264.87427664  2348.69809433
0.34100002 37761.82332899  2518.33611708
0.34200002 37268.53894066  2876.19962896
0.34300002 36783.95784440  1898.05231466
0.34400002 36309.45410701  2818.52150854
0.34500002 35843.84152137  2232.35455568
0.34600002 35388.07874280  2210.33950296
0.34700002 34940.25526714  2371.04583472
0.34800002 34502.46761835  2348.06554497
0.34900002 34073.37211385  2146.62254484
0.35000002 33653.69836265  1949.05403298
0.35100002 33243.66584594  1930.79220378
0.35200002 32841.11097260  1738.93690836
0.35300002 32448.73720246  2067.63363247
0.35400002 32064.47564584  2561.15011352
0.35500002 31689.62663059  1692.22614222
0.35600002 31323.17729220  2012.82746813
0.35700002 30965.35884175  1662.83984856
0.35800002 30616.65930871  1978.44861824
0.35900002 30277.04053047  1634.96026609
0.36000002 29945.71544993  2594.49690947
0.36100002 29622.39172833  1930.19513644
0.36200002 29309.15732119  2393.82553760
0.36300002 29002.82823742  1741.90994645
0.36400002 28705.54048477  1571.62841599
0.36500002 28415.82737431  2340.04349512
0.36600002 28135.34071857  1703.73563792
0.36700002 27862.43761175  2768.41193224
0.36800002 27598.62224095  2138.61733876
0.36900002 27342.53751629  2124.51526565
0.37000002 27093.94361775  1809.33364050
0.37100002 26853.28665528  1648.25481298
0.37200002 26621.43692462  1638.41641314
0.37300002 26396.88410365  1777.03832204
0.37400002 26180.06976711  1914.41769241
0.37500002 25971.08209998  1611.24600981
0.37600002 25769.85841714  1457.28556252
0.37700002 25576.24902145  1450.17338821
0.37800002 25389.76673021  1732.08996839
0.37900002 25211.80792935  1580.78043206
0.38000002 25040.18764458  2289.67486669
0.38100002 24875.23539090  1710.42126651
0.38200002 24718.67407663  1704.10547157
0.38300002 24568.52481480  2405.75006383
0.38400002 24425.68005394  1551.64139893
0.38500002 24289.03973090  1546.96901375
0.38600002 24160.38871463  1963.51488386
0.38700002 24037.48435525  1398.98165575
0.38800002 23921.15078717  1814.53897893
0.38900002 23811.56990424  1950.16766755
0.39000002 23708.93215707  1529.58183058
0.39100002 23611.81584378  1527.21232113
0.39200002 23521.85513886  1802.59745397
0.39300002 23437.16120184  1662.16355118
0.39400002 23359.91645458  1522.48262706
0.39500002 23287.03990965  1936.55033064
0.39600002 23220.53879239  1521.06146566
0.39700002 23159.21546562  1935.64732032
0.39800002 23104.67787860  1659.37804386
0.39900002 23054.53228184  1659.92640294
0.40000002 23010.25229782  1522.47341542
0.40100002 22970.91767696  1523.66104170
0.40200002 22937.24197204  2218.49014865
0.40300002 22908.47720672  1527.07916295
0.40400002 22884.58292946  2502.42926190
0.40500002 22865.15266974  1810.23422263
0.40600002 22851.31777668  1674.08761964
0.40700002 22841.52429776  2376.43230054
0.40800002 22836.13635032  1681.19643777
0.40900002 22834.95102450  1544.78451000
0.41000002 22838.62583042  1689.60161899
0.41100002 22846.12159488  2117.83557219
0.41200002 22856.72969306  1699.16936589
0.41300002 22872.84439741  2414.68629745
0.41400002 22891.73083077  1852.51340526
0.41500002 22914.25321314  2144.77420238
0.41600002 22939.46113778  1721.83603459
0.41700002 22969.57868762  1584.21191715
0.41800002 23003.33955222  1590.33595530
0.41900002 23038.39433130  1596.56080281
0.42000002 23077.12388067  2185.98066318
0.42100002 23119.57726789  2048.85703457
0.42200002 23164.27455122  2204.65993488
0.42300002 23211.45294909  1919.12302077
0.42400002 23261.06798080  1927.76110026
0.42500002 23313.74988756  2085.64816377
0.42600002 23367.48915726  1945.69407688
0.42700002 23424.49274222  2105.39350744
0.42800002 23482.96947629  1662.24207315
0.42900002 23544.21096671  1670.46184725
0.43000002 23607.22156705  1678.82764130
0.43100002 23670.33227128  1687.22136425
0.43200002 23736.45104872  1695.85082554
0.43300002 23803.28667318  1704.55343944
0.43400002 23872.00225930  1713.41304336
0.43500002 23941.51159828  2192.08490582
0.43600002 24012.78469600  2046.24954484
0.43700002 24084.37447433  1740.57782574
0.43800002 24156.43888671  1590.70157607
0.43900002 24230.33538554  2238.88309572
0.44000002 24304.16600889  2411.58098652
0.44100002 24379.03965553  1939.59648691
0.44200002 24454.15343483  1787.47643003
0.44300002 24529.71013884  2613.88603627
0.44400002 24605.42014516  1970.89424703
0.44500002 24680.76318354  1981.37176227
0.44600002 24755.99502105  1659.88954483
0.44700002 24832.47281079  1835.61647717
0.44800002 24907.33624840  3019.51651649
0.44900002 24982.81030798  2192.24170842
0.45000002 25058.10232028  2034.21684277
0.45100002 25132.10034012  2215.14342896
0.45200002 25205.99905401  1712.74771689
0.45300002 25278.75386697  2065.77986391
0.45400002 25351.27210708  1903.24684364
0.45500002 25423.15741494  1912.83845456
0.45600002 25493.56051833  1922.34202199
0.45700002 25563.45552370  1756.20947771
0.45800002 25631.78589410  2647.12281367
0.45900002 25698.97561815  2127.87528203
0.46000002 25765.52508385  1781.68614399
0.46100002 25829.79297482  2506.00663319
0.46200002 25893.36782549  2697.44172107
0.46300002 25955.50362992  2167.80376591
0.46400002 26015.50029812  1814.58123180
0.46500002 26075.06739230  2551.70621595
0.46600002 26131.79348454  2196.63866442
0.46700002 26186.84423445  2757.47482858
0.46800002 26240.98218877  2030.65850292
0.46900002 26292.27142925  2409.68679070
0.47000002 26342.11089340  2605.49831196
0.47100002 26390.06569441  2242.10008767
0.47200002 26436.12403960  2438.33601636
0.47300002 26480.08304335  2259.28079234
0.47400002 26521.25887089  2645.49569776
0.47500002 26560.71031100  2655.00872853
0.47600002 26598.75261407  2664.39717564
0.47700002 26633.31000843  2100.56925993
