# SAXS profile: number of points = 501, q_min = 0, q_max = 0.5, delta_q = 0.001
#    q    intensity    error
0.00000000 1682732.95097188 252.40994265
0.00100000 1682650.61660563 656.23375606
0.00200000 1682403.55255946 832.78978489
0.00300000 1681991.97316183 1211.03426382
0.00400000 1681415.74825049 1387.16804502
0.00500000 1680675.42631698 1966.39032662
0.00600000 1679770.87101247 1940.13543501
0.00700000 1678702.63787221 2820.22054883
0.00800000 1677470.57999810 3170.41953005
0.00900000 1676075.94876291 3268.34823980
0.01000000 1674518.07729133 3315.54593620
0.01100000 1672798.31341405 3613.24451429
0.01200000 1670916.51738513 3584.11608693
0.01300000 1668873.86081625 5256.95289343
0.01400000 1666670.43931232 4125.00952016
0.01500000 1664307.55149645 5592.07362204
0.01600000 1661784.69824322 4661.30628695
0.01700000 1659104.19172464 6271.41412605
0.01800000 1656265.80595434 7552.57241500
0.01900000 1653270.43112362 5951.77382060
0.02000000 1650119.06165866 5197.87527935
0.02100000 1646813.76364383 7608.27993298
0.02200000 1643353.24885967 7370.43965599
0.02300000 1639740.53604432 7083.67943815
0.02400000 1635975.37349502 7361.88951641
0.02500000 1632060.19145521 7638.04204484
0.02600000 1627994.88818250 7912.05551845
0.02700000 1623781.80413283 8183.86066766
0.02800000 1619420.64214882 7044.48011640
0.02900000 1614914.08147334 9447.24781038
0.03000000 1610263.44816606 7487.72537815
0.03100000 1605469.15644952 9247.50276666
0.03200000 1600532.45404265 8714.89961365
0.03300000 1595457.17390091 8950.51515821
0.03400000 1590241.65305007 10853.39978285
0.03500000 1584889.04468671 9414.24136017
0.03600000 1579400.65689069 10518.80886101
0.03700000 1573778.16464726 10764.64314403
0.03800000 1568023.20068578 11924.81699309
0.03900000 1562137.83696577 9372.82745585
0.04000000 1556122.03144559 10527.16603055
0.04100000 1549979.55640937 12694.33315559
0.04200000 1543711.48898152 13939.71539221
0.04300000 1537318.59190407 14204.82444855
0.04400000 1530804.53235809 13432.81039529
0.04500000 1524170.62275517 18930.20001421
0.04600000 1517416.85178999 10697.78930243
0.04700000 1510547.49713636 13051.13098224
0.04800000 1503562.88924528 12156.30652516
0.04900000 1496467.25463984 12345.85542545
0.05000000 1489259.80872200 11392.83806724
0.05100000 1481945.08163551 11559.17217523
0.05200000 1474521.40861926 16411.42404273
0.05300000 1466995.03073812 16635.72442409
0.05400000 1459366.00280518 13243.74709306
0.05500000 1451636.44010629 17071.24533201
0.05600000 1443807.96767761 19751.29391951
0.05700000 1435885.41300446 16239.86477913
0.05800000 1427867.68948537 16427.61853457
0.05900000 1419757.59458086 14055.60084283
0.06000000 1411558.86500206 19373.64632727
0.06100000 1403272.62267129 18270.61040099
0.06200000 1394901.49817933 14500.00175136
0.06300000 1386448.17577445 17302.87404267
0.06400000 1377911.96264902 13434.64226412
0.06500000 1369299.00755176 29823.33377955
0.06600000 1360609.73223367 15041.54129361
0.06700000 1351846.02607402 19304.36215576
0.06800000 1343011.10036081 22240.26486302
0.06900000 1334107.41897782 16809.75426614
0.07000000 1325135.89874918 14112.69798255
0.07100000 1316099.86309745 15635.26710592
0.07200000 1307001.32326826 15742.83167627
0.07300000 1297843.38643874 15846.66849092
0.07400000 1288627.70748301 17396.47486629
0.07500000 1279356.60847257 17501.59922425
0.07600000 1270030.95099182 17602.62980597
0.07700000 1260656.25123423 14749.67883103
0.07800000 1251232.29375781 16309.81371400
0.07900000 1241761.54285458 20861.59489844
0.08000000 1232248.28168136 17966.18078973
0.08100000 1222693.37125960 18046.95500652
0.08200000 1213098.23461201 22654.61059445
0.08300000 1203466.61934744 16680.04812698
0.08400000 1193800.02918061 16743.04619515
0.08500000 1184101.22051943 16802.39710796
0.08600000 1174372.07984080 24520.89017837
0.08700000 1164616.02429095 15372.93224252
0.08800000 1154832.71146347 18500.42090649
0.08900000 1145027.79990046 18549.45122965
0.09000000 1135200.52753485 20144.13430739
0.09100000 1125354.67542785 20188.86382567
0.09200000 1115491.45146753 17117.21712705
0.09300000 1105616.13286837 18707.02584722
0.09400000 1095725.18195660 18736.90149204
0.09500000 1085824.65797930 17199.46339081
0.09600000 1075915.97569244 23481.86727332
0.09700000 1066002.93491936 17237.26826802
0.09800000 1056085.93156103 20387.73986737
0.09900000 1046167.36693790 25108.01798715
0.10000000 1036248.36517088 15699.16347063
0.10100000 1026331.05284046 15702.86584699
0.10200000 1016418.88720217 20414.77430969
0.10300000 1006512.56444814 17271.75641841
0.10400000 996615.20299229 23545.03527837
0.10500000 986729.77943160 17257.90465423
0.10600001 976853.35866725 20382.04628764
0.10700001 966993.73582836 23497.94888639
0.10800001 957148.87908560 18779.26189144
0.10900001 947323.22343729 25009.33427583
0.11000001 937516.34293812 17170.61262912
0.11100001 927731.55515847 21820.24720448
0.11200001 917969.74604738 23339.38189201
0.11300001 908233.00021574 17083.86353838
0.11400001 898523.69302965 17049.48787800
0.11500001 888843.52347590 21652.22925143
0.11600001 879193.15553495 15429.84060625
0.11700001 869575.66061024 23087.23487649
0.11800001 859990.43315177 16885.91295023
0.11900001 850439.92778878 15307.91942123
0.12000001 840925.50651594 16789.07852844
0.12100001 831451.95962556 21301.80020909
0.12200001 822016.26909128 16682.82096716
0.12300001 812623.25728108 21160.71061657
0.12400001 803271.69499099 18073.61398888
0.12500001 793963.70071895 15005.91465067
0.12600001 784702.63111230 28402.31307152
0.12700001 775487.83718271 29778.73435118
0.12800001 766320.80780325 22242.46249476
0.12900001 757203.56489694 19195.11127484
0.13000001 748137.04414866 20581.25105462
0.13100001 739121.50676073 20488.44913318
0.13200001 730159.59267849 16023.35301668
0.13300001 721252.07025998 15946.88402523
0.13400001 712398.62046087 14426.07274446
0.13500001 703602.80728579 18659.54732898
0.13600001 694864.46352157 18563.30501825
0.13700001 686184.21331597 18465.21805103
0.13800001 677562.12626897 18365.32229855
0.13900001 669001.88064808 16858.84818736
0.14000001 660501.99233800 18160.50313579
0.14100001 652065.20376766 15277.88844483
0.14200001 643690.82659679 15187.88576989
0.14300001 635381.21979799 19213.92899297
0.14400001 627133.33622535 16368.18084757
0.14500001 618953.73677880 18977.12246483
0.14600001 610839.15571290 17509.70522452
0.14700001 602792.69956153 14720.19841774
0.14800001 594811.37976296 18611.64895086
0.14900001 586898.95384715 15846.27250151
0.15000001 579054.93802471 15738.71395811
0.15100001 571279.95784549 16932.73874951
0.15200001 563575.88695788 12934.06721600
0.15300001 555941.94808892 16694.93748893
0.15400001 548376.68987151 14024.73450531
0.15500001 540884.33798608 16453.70233804
0.15600001 533461.31859515 21357.12489790
0.15700001 526113.32127395 16209.55219349
0.15800001 518834.27872769 12374.19813170
0.15900001 511629.86480224 14734.94080180
0.16000001 504495.81847456 19493.71934601
0.16100001 497437.38602990 14505.27486134
0.16200001 490451.25819605 13190.68721186
0.16300001 483538.34980195 13084.54836333
0.16400001 476699.64803626 11798.31684589
0.16500001 469933.48273037 15211.74755415
0.16600001 463242.01012124 11604.21290141
0.16700001 456623.47948146 12657.60344885
0.16800001 450079.18047538 15973.31086927
0.16900001 443609.95943710 14705.67084971
0.17000001 437213.25353405 13457.42457923
0.17100001 430891.23447328 15563.79212412
0.17200001 424642.70810987 13223.37455499
0.17300001 418468.04817117 14198.62154497
0.17400001 412367.93720801 10824.65886292
0.17500001 406340.16880315 15018.33334824
0.17600001 400384.80790114 15945.32572775
0.17700001 394505.53412849 10533.29825872
0.17800001 388697.41875782 12523.83142390
0.17900001 382961.84788258 11373.96741935
0.18000001 377300.37232941 14341.18782965
0.18100001 371711.54645298 10147.72569751
0.18200001 366192.58286201 10051.98687440
0.18300001 360746.36033856 13939.24002196
0.18400001 355371.49478725 10847.71539083
0.18500001 350068.13125477 16603.73224981
0.18600001 344835.77376274 9672.64391101
0.18700001 339672.79306281 13410.28250369
0.18800001 334578.71144995 9485.30691775
0.18900001 329557.62624649 13149.34990851
0.19000001 324601.75946287 13019.77718722
0.19100001 319717.27478880 11970.21533369
0.19200001 314899.25082493 13674.50061321
0.19300001 310151.04418314 12635.55413708
0.19400001 305468.29150643 9828.44274365
0.19500001 300853.01561055 11498.60280000
0.19600001 296302.83147554 8755.74908387
0.19700001 291820.38976671 13000.59897848
0.19800001 287402.04655649 10294.74179417
0.19900001 283048.63476951 12737.18916659
0.20000001 278757.92857809 9245.00713822
0.20100001 274532.24415449 12477.49108654
0.20200001 270368.34424282 9055.98811843
0.20300001 266267.33540441 9777.33701817
0.20400001 262228.01901560 10482.56555561
0.20500001 258249.44108022 8777.89891722
0.20600001 254331.11597295 10266.07598151
0.20700001 250472.77139825 8596.22592072
0.20800001 246673.46858143 10826.49904781
0.20900001 242934.79205739 7652.44631155
0.21000001 239250.94558505 8329.52206430
0.21100001 235626.30504098 8991.50022542
0.21200001 232056.83429300 8155.63782678
0.21300001 228543.32961695 11004.36184129
0.21400001 225085.40450860 7984.90510244
0.21500001 221683.27729131 10055.55393334
0.21600001 218333.14328279 7106.74414985
0.21700001 215037.20784597 7031.71702902
0.21800001 211793.59675976 7653.16198076
0.21900001 208600.96575105 8948.98185384
0.22000001 205459.14930080 6810.97112136
0.22100001 202369.37655273 8086.68066941
0.22200001 199328.65688716 6667.54388815
0.22300001 196336.70877657 7256.60509951
0.22400001 193392.41846585 8485.09276142
0.22500001 190498.20317401 9686.83408946
0.22600001 187648.62745937 7028.37967385
0.22700001 184846.56882024 8218.27883838
0.22800001 182089.28099105 6880.24380761
0.22900001 179376.63134163 9282.74111092
0.23000001 176708.87049770 6735.25891754
0.23100001 174085.49489541 7269.81061064
0.23200001 171503.24230729 6593.44246233
0.23300001 168964.40015089 7116.78087094
0.23400001 166466.01272650 9388.68356182
0.23500001 164008.24807590 6386.48148213
0.23600001 161591.38520955 8616.86102385
0.23700001 159213.77117343 6252.32508970
0.23800001 156874.63138740 6748.74696149
0.23900001 154573.91516116 6121.12732991
0.24000001 152310.09426711 6056.61118501
0.24100001 150084.39037619 6537.67635403
0.24200001 147894.93375388 8625.23294452
0.24300001 145740.20590977 8001.13768292
0.24400001 143620.67775212 6333.67218847
0.24500001 141535.06206529 6789.43724844
0.24600001 139483.30922436 5167.85685123
0.24700001 137465.40020967 5625.08444268
0.24800001 135479.86267465 7084.24235439
0.24900001 133524.76366789 7510.76831163
0.25000001 131602.46457387 7432.24953842
0.25100001 129710.17620666 9806.08978514
0.25200001 127849.76029788 5822.27835942
0.25300001 126017.39143039 7201.89426097
0.25400001 124215.13496304 5226.35205083
0.25500001 122439.91190673 4701.69283966
0.25600001 120694.15960979 5583.31208771
0.25700001 118974.77107963 5985.62101622
0.25800001 117282.36041950 6378.98788503
0.25900001 115617.51657032 5861.80836747
0.26000001 113977.45155398 4908.43918342
0.26100001 112362.68556613 5299.02450203
0.26200001 110774.08002331 4807.04143007
0.26300001 109208.29738327 4324.64878101
0.26400001 107667.45386481 5563.71594173
0.26500001 106150.15643484 5929.54801903
0.26600001 104655.42499287 4610.59496623
0.26700001 103183.69276100 4562.78310980
0.26800001 101734.53604954 6157.48308578
0.26900001 100305.99000351 4874.87134486
0.27000001 98899.58100143  4824.32178955
0.27100001 97513.84393954  4774.27802521
0.27200001 96149.29857452  5905.97094443
0.27300001 94804.52221409  7403.28549005
0.27400001 93478.21359899  4241.57414279
0.27500001 92173.23643376  3815.97216895
0.27600001 90885.08822992  4909.15827307
0.27700001 89617.63873897  4858.17242596
0.27800001 88367.26932892  4437.80447573
0.27900001 87135.32444567  4025.65217992
0.28000001 85920.51744911  4708.01497645
0.28100001 84723.32025370  5375.69492452
0.28200001 83543.37488115  4255.69971787
0.28300001 82380.08704316  4913.14862379
0.28400001 81232.53653513  3819.96021137
0.28500001 80101.59677026  4123.63039691
0.28600001 78986.25765687  3400.35855307
0.28700001 77887.21730660  3364.72794691
0.28800001 76801.67084084  4328.15836510
0.28900001 75733.16530724  3294.39284680
0.29000001 74678.35691968  3585.68147722
0.29100001 73638.83045635  3547.91901933
0.29200001 72613.09711159  5744.42238441
0.29300001 71601.77134054  3157.63826559
0.29400001 70603.50254401  4373.88718965
0.29500001 69620.21639993  3400.25152993
0.29600001 68649.13703438  3058.31919966
0.29700001 67691.57171049  3933.55741830
0.29800001 66747.60788354  4191.08249741
0.29900001 65816.70074513  4442.62751061
0.30000001 64897.23222786  3516.13220856
0.30100001 63991.77216139  3478.59289937
0.30200001 63097.34255761  5161.99383901
0.30300001 62216.11792138  3120.76062268
0.30400001 61346.64347720  3929.25270073
0.30500001 60489.55559212  3331.76487975
0.30600001 59642.91832906  3021.21217099
0.30700001 58808.88735317  3532.06194165
0.30800001 57986.00342466  4300.24221756
0.30900001 57174.69529483  2658.62345708
0.31000001 56374.72533610  2892.86916758
0.31100001 55585.23089919  3641.94450094
0.31200001 54807.65821481  3859.82951252
0.31300001 54040.19060368  3817.93964691
0.31400001 53284.85174096  2517.70936397
0.31500001 52538.70513761  3237.43516386
0.31600002 51804.66407547  3694.96784013
0.31700002 51080.31276137  3654.79655112
0.31800002 50366.19140342  3374.03132187
0.31900002 49663.10709377  3814.12680540
0.32000002 48970.42551993  2593.71871047
0.32100002 48287.32629078  2565.50576731
0.32200002 47615.50707121  2537.66856952
0.32300002 46952.11216308  2510.06003509
0.32400002 46300.06731118  2934.26690479
0.32500002 45657.32614678  3125.70069602
0.32600002 45024.72818029  3312.69453273
0.32700002 44402.24353662  2184.59048545
0.32800002 43790.21324356  3025.46597626
0.32900002 43186.02322419  2351.47907591
0.33000002 42592.89504141  2114.73733895
0.33100002 42008.29953926  2092.01341612
0.33200002 41434.73854700  2897.53140380
0.33300002 40869.89686320  2866.61470173
0.33400002 40315.20860404  3038.75899243
0.33500002 39769.64737362  2405.26838706
0.33600002 39233.03557919  2379.87605094
0.33700002 38705.75480990  2354.85823415
0.33800002 38188.79996343  2330.28068412
0.33900002 37680.15166396  2306.02539104
0.34000002 37180.91960425  2091.98454061
0.34100002 36691.05736969  2446.92673187
0.34200002 36210.96389954  2794.58127130
0.34300002 35739.25278775  2212.97463742
0.34400002 35277.42660052  2190.72829564
0.34500002 34824.20710371  1988.11407771
0.34600002 34380.64598581  2684.26906247
0.34700002 33944.96792758  2126.31289169
0.34800002 33519.02758215  2807.55388325
0.34900002 33101.56093075  2259.18164052
0.35000002 32693.39501173  1721.30732889
0.35100002 32294.68985144  2387.22358688
0.35200002 31903.30290552  1858.20796574
0.35300002 31521.87248794  2175.95496090
0.35400002 31148.47056337  2156.25297688
0.35500002 30784.28947925  2301.43359047
0.35600002 30428.22206971  2281.20391661
0.35700002 30080.78651384  1776.87214353
0.35800002 29742.14832268  2082.09919195
0.35900002 29412.55114547  2541.24453934
0.36000002 29091.03013782  1575.27935658
0.36100002 28777.42786191  1718.87584761
0.36200002 28473.67971562  1860.47032074
0.36300002 28176.77880712  1846.14263489
0.36400002 27888.77124536  2137.67441721
0.36500002 27608.11456294  2273.52834195
0.36600002 27336.65084180  2106.83578017
0.36700002 27072.64578606  1643.85113000
0.36800002 26817.53810259  2078.09112601
0.36900002 26570.12615816  1622.10627879
0.37000002 26330.06467759  1758.32180246
0.37100002 26097.79210037  1747.50824182
0.37200002 25874.13609765  1881.95537821
0.37300002 25657.80459465  1583.34319654
0.37400002 25449.02912713  1574.65875183
0.37500002 25248.00509257  1566.38631014
0.37600002 25054.66556073  1416.84140458
0.37700002 24868.76802925  1692.07105687
0.37800002 24690.01823652  1684.35312389
0.37900002 24519.55085678  1537.37591155
0.38000002 24355.46083653  1670.29758330
0.38100002 24197.84466231  1663.84387780
0.38200002 24048.61389221  1519.75222691
0.38300002 23905.61353742  1514.65974549
0.38400002 23769.88112520  1921.79498002
0.38500002 23640.32829783  1368.77507329
0.38600002 23518.62765910  1638.30768035
0.38700002 23402.60101970  1770.64087703
0.38800002 23293.23145051  1495.07613148
0.38900002 23190.38489615  1492.30133877
0.39000002 23094.37108831  1354.48492850
0.39100002 23003.95691146  1487.89600352
0.39200002 22920.46398993  2296.97440757
0.39300002 22842.28811674  1754.97307915
0.39400002 22771.46679661  1349.20947162
0.39500002 22705.14485746  2023.02850265
0.39600002 22644.89834796  1483.35413656
0.39700002 22589.85830898  1618.33752593
0.39800002 22541.56217135  2023.66883981
0.39900002 22497.58494406  1619.82619272
0.40000002 22459.44919268  1486.02952624
0.40100002 22426.23575265  2028.45311993
0.40200002 22398.64508630  1760.19760750
0.40300002 22375.89625840  1491.57731526
0.40400002 22357.99014431  1629.89755874
0.40500002 22344.43155696  1632.93113555
0.40600002 22336.58154660  1363.64836803
0.40700002 22332.59880016  1503.43062246
0.40800002 22333.10111389  1644.16298191
0.40900002 22337.70965325  1785.89997140
0.41000002 22347.13660529  2479.86186659
0.41100002 22360.36529275  2210.99302491
0.41200002 22376.70808261  1802.10827082
0.41300002 22398.46384901  1808.22807221
0.41400002 22423.07472851  1395.83646799
0.41500002 22451.32153247  1541.05878301
0.41600002 22482.17329694  2390.64201081
0.41700002 22517.85458084  2258.99127859
0.41800002 22557.17136609  1701.26194504
0.41900002 22597.86575784  1850.76529326
0.42000002 22642.12987623  1715.82068332
0.42100002 22690.02513627  1867.16225694
0.42200002 22740.37284752  1587.16439810
0.42300002 22793.00414584  1739.56215884
0.42400002 22848.12000661  1893.53803527
0.42500002 22906.29242179  1756.45458613
0.42600002 22965.44507552  1470.93682679
0.42700002 23028.01743336  1626.23866821
0.42800002 23091.94444704  1783.16003470
0.42900002 23158.60351418  1941.84899668
0.43000002 23227.00639671  1651.78863818
0.43100002 23295.56013492  1660.50760510
0.43200002 23367.13591840  1973.00421477
0.43300002 23439.33844521  1831.08120611
0.43400002 23513.52718531  2301.38658232
0.43500002 23588.33314014  2005.48017861
0.43600002 23665.06844948  1551.24531037
0.43700002 23742.04367509  1715.83757771
0.43800002 23819.44460502  2666.46785267
0.43900002 23898.74092603  1735.04867345
0.44000002 23977.99232404  1586.14426740
0.44100002 24058.25195060  1595.06217991
0.44200002 24138.72433157  2085.22380020
0.44300002 24219.71192256  1935.63946858
0.44400002 24300.74765130  1784.28248085
0.44500002 24381.44579399  2283.56632129
0.44600002 24462.13776621  1804.20505645
0.44700002 24543.82767488  1979.21435750
0.44800002 24624.14329514  2155.96696838
0.44900002 24704.93731295  2334.61668672
0.45000002 24785.58079642  2012.09354441
0.45100002 24864.88198796  1685.83907868
0.45200002 24944.14358336  1864.45010050
0.45300002 25022.30007027  1874.42058710
0.45400002 25100.06838342  2227.00367286
0.45500002 25177.29230681  1722.12687540
0.45600002 25253.04847863  2077.31586630
0.45700002 25328.29128754  2262.06980210
0.45800002 25401.97538622  1923.81869705
0.45900002 25474.47296669  1933.51258981
0.46000002 25546.37554503  2473.14473373
0.46100002 25615.97048359  2130.22420638
0.46200002 25684.88718280  2497.34169915
0.46300002 25752.30010894  1792.36017253
0.46400002 25817.55866667  1800.77480235
0.46500002 25882.41959289  1990.09933682
0.46600002 25944.43406771  1817.40769258
0.46700002 26004.82178756  2373.20014881
0.46800002 26064.15173296  2567.05842585
0.46900002 26120.79322359  2025.66761050
0.47000002 26175.85168664  1849.32400931
0.47100002 26229.09352702  2042.72190070
0.47200002 26280.40398977  2051.05422660
0.47300002 26329.53949856  2433.63945120
0.47400002 26375.91746022  2255.14104974
0.47500002 26420.63781658  2075.07699247
0.47600002 26463.92713691  2272.19289167
0.47700002 26503.58869363  2090.33813934
