# SAXS profile: number of points = 501, q_min = 0, q_max = 0.5, delta_q = 0.001
#    q    intensity    error
0.00000000 1682732.95097188 277.65093691
0.00100000 1682650.68360852 605.75426048
0.00200000 1682403.82107159 908.49809215
0.00300000 1681992.58261827 1311.95426118
0.00400000 1681416.82362112 1639.38146532
0.00500000 1680677.10259758 1663.87039743
0.00600000 1679773.28747590 2116.51442839
0.00700000 1678705.94297381 2014.44721529
0.00800000 1677474.88766327 3396.88679093
0.00900000 1676081.38893618 4274.00772449
0.01000000 1674524.79499942 4144.44904658
0.01100000 1672806.44917820 3914.36726151
0.01200000 1670926.17478852 3909.96742043
0.01300000 1668885.18035070 4556.05674330
0.01400000 1666683.54716496 4875.04959157
0.01500000 1664322.57962141 6390.99899033
0.01600000 1661801.81031719 4661.35428632
0.01700000 1659123.48699768 4927.59697743
0.01800000 1656287.39021666 5664.50312943
0.01900000 1653294.43602695 6943.83694464
0.02000000 1650145.70833796 6237.55105968
0.02100000 1646843.05232688 9782.24817433
0.02200000 1643385.33461190 6236.64762820
0.02300000 1639775.60014232 8854.78864382
0.02400000 1636013.42483893 9202.57593433
0.02500000 1632101.42549959 9547.79377523
0.02600000 1628039.42280637 6593.55996394
0.02700000 1623829.76674633 7502.09386597
0.02800000 1619472.17819670 10567.05644733
0.02900000 1614969.26603232 7267.36203082
0.03000000 1610322.36848754 7487.99935765
0.03100000 1605531.87352300 8477.20868226
0.03200000 1600599.13290912 8715.26268010
0.03300000 1595527.99828482 9764.63179966
0.03400000 1590316.65535506 10018.99539102
0.03500000 1584968.40781374 9414.71277717
0.03600000 1579484.41383056 10519.36668225
0.03700000 1573866.34286589 11662.35013999
0.03800000 1568116.01476524 10090.82702201
0.03900000 1562235.36261905 9373.41260980
0.04000000 1556224.29186098 9570.77983845
0.04100000 1550086.80115152 12695.21149006
0.04200000 1543823.73690478 11949.19627800
0.04300000 1537435.88269857 11161.78502650
0.04400000 1530926.93835107 14467.26023931
0.04500000 1524298.32181726 12621.19069109
0.04600000 1517549.91749218 12838.47289880
0.04700000 1510686.00103829 15227.71559868
0.04800000 1503707.01895496 12157.47181392
0.04900000 1496616.83669291 13469.55215721
0.05000000 1489415.05087938 17091.03850470
0.05100000 1482106.01258154 13872.51292400
0.05200000 1474688.24839692 15240.90375743
0.05300000 1467167.70107393 17826.08839906
0.05400000 1459544.59964934 13245.36785950
0.05500000 1451821.03945968 15853.88649047
0.05600000 1443998.70387481 17284.66529196
0.05700000 1436082.26999933 14992.69959863
0.05800000 1428070.58162226 13902.26776122
0.05900000 1419966.85456538 19169.55343196
0.06000000 1411774.44809446 14209.51048392
0.06100000 1403494.54395627 13052.49986875
0.06200000 1395129.78739528 17139.17023930
0.06300000 1386682.96715794 22630.66708212
0.06400000 1378153.26681007 14780.69447778
0.06500000 1369546.80826234 21693.62245766
0.06600000 1360864.05632739 13676.68440600
0.06700000 1352107.02203142 16549.79072418
0.06800000 1343278.54840013 22244.69380276
0.06900000 1334381.66636359 15412.10896808
0.07000000 1325416.80759630 16938.82759430
0.07100000 1316387.54616770 19903.78063030
0.07200000 1307295.67793740 22903.82135043
0.07300000 1298144.51927030 15850.34532297
0.07400000 1288935.56819754 14500.52582178
0.07500000 1279671.29903798 17505.90419138
0.07600000 1270352.58554971 17607.08766115
0.07700000 1260984.52978083 17704.22362825
0.07800000 1251567.41128234 17797.28942306
0.07900000 1242103.41702000 16395.76587369
0.08000000 1232597.03396167 23961.68746428
0.08100000 1223048.87491434 24069.60298762
0.08200000 1213460.60999861 19639.86089443
0.08300000 1203835.80289473 21235.66455970
0.08400000 1194176.00161024 16748.31920873
0.08500000 1184483.87328158 19863.79548744
0.08600000 1174761.49797040 15330.63826831
0.08700000 1165012.30540308 19991.61209948
0.08800000 1155235.65158154 18506.87600749
0.08900000 1145437.32993560 18556.08561653
0.09000000 1135616.82178364 20151.52144918
0.09100000 1125777.68831772 20196.45267727
0.09200000 1115920.87119162 17123.80657303
0.09300000 1106052.17633139 18714.40370296
0.09400000 1096167.57184835 18744.46635955
0.09500000 1086273.70905260 23463.51321838
0.09600000 1076371.38462957 20359.56569733
0.09700000 1066464.65786746 17244.73432844
0.09800000 1056554.08242726 17258.81174792
0.09900000 1046641.81673508 20409.51638604
0.10000000 1036729.05712404 17277.09054946
0.10100000 1026817.93380836 18852.37815138
0.10200000 1016911.77350136 15711.28763960
0.10300000 1007011.51266964 18851.25640395
0.10400000 997120.31753918 17275.11031408
0.10500000 987240.64339057 20406.26505898
0.10600001 977370.14273799 23530.18729360
0.10700001 967516.24931362 21943.26956703
0.10800001 957677.17180530 21921.23149427
0.10900001 947857.04243619 21895.49871080
0.11000001 938055.75613884 21866.08070482
0.11100001 928276.15797433 20273.55224450
0.11200001 918519.80126864 18682.69363733
0.11300001 908788.49809610 20202.36926382
0.11400001 899084.24224115 21712.88547246
0.11500001 889409.23364828 21666.00995188
0.11600001 879763.90058751 21615.80005536
0.11700001 870151.45435332 15401.68146739
0.11800001 860570.77036882 16897.30787203
0.11900001 851025.15916174 24509.52573830
0.12000001 841515.05645382 18328.19879291
0.12100001 832046.14518022 15226.44517409
0.12200001 822614.78219230 21248.14082505
0.12300001 813226.21467374 16638.60913614
0.12400001 803878.67192010 15072.72580869
0.12500001 794574.51535497 18020.95085741
0.12600001 785317.54702300 19448.38996850
0.12700001 776106.57460367 20861.74570848
0.12800001 766943.16038010 19292.45610860
0.12900001 757829.38477304 16255.44106953
0.13000001 748766.35708067 17655.91153217
0.13100001 739754.35718431 14647.13696268
0.13200001 730795.39113608 16037.30561449
0.13300001 721890.97958099 17412.01124835
0.13400001 713040.40713848 20214.69649541
0.13500001 704247.50358620 17239.97970062
0.13600001 695511.70829424 22868.42604698
0.13700001 686833.98054998 19904.44969490
0.13800001 678214.23978492 16968.92107960
0.13900001 669656.33145112 15469.06198601
0.14000001 661158.40278147 18178.55114179
0.14100001 652723.58863685 18073.91702177
0.14200001 644350.96384117 16585.59459154
0.14300001 636043.23787681 16486.24150338
0.14400001 627796.86697000 16385.49900082
0.14500001 619618.55873812 17640.54119942
0.14600001 611505.30302493 14832.06182456
0.14700001 603459.92200498 13396.81090053
0.14800001 595479.45546955 18632.55304070
0.14900001 587567.87380605 14542.30556282
0.15000001 579724.25110453 17069.98137918
0.15100001 571950.02982739 15648.55355445
0.15200001 564246.15267562 15539.33977794
0.15300001 556612.33244963 24429.71642403
0.15400001 549047.11399784 14041.88060315
0.15500001 541554.60279159 17741.32962472
0.15600001 534131.27608287 17610.30900357
0.15700001 526782.91131130 12484.75558732
0.15800001 519503.23270090 17346.21375860
0.15900001 512298.10819113 15983.70173000
0.16000001 505163.12272836 13419.65898872
0.16100001 498103.55367697 14524.70031085
0.16200001 491116.18838346 13208.57051010
0.16300001 484201.77536190 16675.90993070
0.16400001 477361.52128134 14177.63785138
0.16500001 470593.58799979 12889.55898385
0.16600001 463900.49216318 12782.77866507
0.16700001 457279.89841924 14980.49017951
0.16800001 450733.26780450 19424.35109318
0.16900001 444261.77558926 18125.88129991
0.17000001 437862.51394578 13477.40881565
0.17100001 431537.85268130 11133.67712492
0.17200001 425286.41211119 13243.41949854
0.17300001 419108.78770071 15314.23582579
0.17400001 413005.56906253 15177.95537984
0.17500001 406974.60077154 12892.95596135
0.17600001 401015.62451831 13841.05493395
0.17700001 395132.84450275 11605.05219116
0.17800001 389320.83440253 13589.24436667
0.17900001 383581.38214768 14499.37693004
0.18000001 377915.91503964 11286.45933578
0.18100001 372322.88711685 10164.41529842
0.18200001 366799.40361386 13089.23733627
0.18300001 361348.83196898 10970.55105682
0.18400001 355969.28251980 11853.77766789
0.18500001 350660.98321740 10761.78608335
0.18600001 345423.76160930 10658.05066798
0.18700001 340255.69251558 11514.25317872
0.18800001 335156.17968602 13302.34940022
0.18900001 330129.67195630 11290.43531435
0.19000001 325168.26138637 13974.10669334
0.19100001 320278.10546994 11068.81184804
0.19200001 315454.35551140 10045.64442593
0.19300001 310700.05753046 10849.64652164
0.19400001 306011.13274060 11636.07387231
0.19500001 301389.70783464 9746.94361197
0.19600001 296833.25252608 8771.42302665
0.19700001 292344.34308265 10419.15287985
0.19800001 287919.23317896 9453.82846821
0.19900001 283559.03854574 9357.44871424
0.20000001 279261.47806243 14313.54773456
0.20100001 275028.86468689 9166.71249325
0.20200001 270857.67472285 8247.61658512
0.20300001 266749.42712488 11427.54599815
0.20400001 262702.69134410 9693.72976878
0.20500001 258716.56936353 7994.34237120
0.20600001 254790.63483176 8702.37454402
0.20700001 250924.57649968 8611.73187254
0.20800001 247117.48784359 10845.98705415
0.20900001 243370.74206556 7666.17873746
0.21000001 239678.92950181 8344.42232507
0.21100001 236046.16265799 11259.40249106
0.21200001 232468.23338793 8912.83248944
0.21300001 228946.40594933 10288.85196977
0.21400001 225480.02282563 7271.73107991
0.21500001 222069.30492978 7914.55040188
0.21600001 218710.52976221 9254.73650444
0.21700001 215405.91142146 9156.90572746
0.21800001 212153.43682171 9756.93702074
0.21900001 208951.85445854 7584.95267547
0.22000001 205801.05963162 9551.22762911
0.22100001 202702.25136376 7424.98381853
0.22200001 199652.39097281 10685.39647012
0.22300001 196651.12890278 9250.46954100
0.22400001 193697.49773448 7191.01994343
0.22500001 190793.84697335 7114.70289007
0.22600001 187934.79980260 8318.93430665
0.22700001 185123.36839521 6964.34144837
0.22800001 182356.42858294 9395.91542707
0.22900001 179634.15309603 8056.59214736
0.23000001 176956.61358062 6744.70164559
0.23100001 174323.54318586 6673.10554874
0.23200001 171731.57203728 9603.22996250
0.23300001 169182.80325918 5938.31667525
0.23400001 166674.62057624 7050.33678382
0.23500001 164206.99822204 11044.56322278
0.23600001 161780.07924876 7476.66671611
0.23700001 159392.37849831 7397.40063599
0.23800001 157043.25059044 9008.00127993
0.23900001 154732.65067680 7241.48839419
0.24000001 152458.67507143 5511.38136452
0.24100001 150222.73333292 6543.70257351
0.24200001 148023.15306359 5934.98860282
0.24300001 145858.33822456 5338.41543154
0.24400001 143728.59330847 6338.43126473
0.24500001 141632.81547889 6271.50136607
0.24600001 139571.05376741 7239.55090138
0.24700001 137542.85029366 6139.91312756
0.24800001 135547.10998774 5568.95327730
0.24900001 133581.67112748 5510.24419468
0.25000001 131649.27343257 5947.91445507
0.25100001 129746.77350744 5885.31392473
0.25200001 127876.17619974 6794.06156292
0.25300001 126033.71297833 7683.01550665
0.25400001 124221.30479069 6652.05118626
0.25500001 122435.96310636 6112.00356744
0.25600001 120680.08107984 7908.76948775
0.25700001 118950.65625567 7365.42498383
0.25800001 117248.21621762 6377.13078180
0.25900001 115573.30978026 5408.83115363
0.26000001 113923.25091840 5352.11458138
0.26100001 112298.59484106 6620.00247911
0.26200001 110700.02989752 4367.11638610
0.26300001 109124.45360649 4753.46142402
0.26400001 107573.72657218 5558.87258365
0.26500001 106046.74873957 4654.39202242
0.26600001 104542.24672195 6699.06748694
0.26700001 103060.89323552 4971.65772494
0.26800001 101602.04447021 4509.60695721
0.26900001 100164.04225001 4867.97268371
0.27000001 98748.17621284  5619.75897421
0.27100001 97353.01309713  5560.80437126
0.27200001 95979.23043227  4323.38463942
0.27300001 94625.04880009  6222.54350357
0.27400001 93289.61162909  5002.65566036
0.27500001 91975.46505286  4188.56287673
0.27600001 90678.28040986  5274.75582107
0.27700001 89401.89401370  5219.28281953
0.27800001 88142.72403394  4057.65049294
0.27900001 86901.92512529  4379.85723360
0.28000001 85678.43330305  3611.34613464
0.28100001 84472.69081605  4645.15348782
0.28200001 83284.15252877  5303.11866326
0.28300001 82112.53173655  4197.59282105
0.28400001 80956.62321034  3460.89580605
0.28500001 79817.45498408  3766.58587898
0.28600001 78694.10588781  3387.78141882
0.28700001 77587.06120813  4022.11344341
0.28800001 76493.68124926  3979.20148693
0.28900001 75417.41124677  3608.72329897
0.29000001 74354.92589409  4868.38900336
0.29100001 73307.87400012  3853.06203983
0.29200001 72274.67742411  3176.47222315
0.29300001 71256.10428878  3142.39434788
0.29400001 70250.63946101  3419.45003763
0.29500001 69260.34436744  3382.67537903
0.29600001 68282.36614572  3954.57342253
0.29700001 67317.88129114  3911.84226701
0.29800001 66367.28916365  3274.23036589
0.29900001 65429.84256256  4122.08027658
0.30000001 64504.08686481  2912.35965982
0.30100001 63592.21651771  3744.94580801
0.30200001 62691.77373270  2849.34125104
0.30300001 61804.48868751  3100.11329933
0.30400001 60929.10635730  3345.00809737
0.30500001 60066.40308645  3308.45763863
0.30600001 59214.12267441  3544.85362173
0.30700001 58374.79764758  2696.91577900
0.30800001 57546.63809648  4267.65888328
0.30900001 56730.18360903  3956.93049407
0.31000001 55925.19960730  2869.80175372
0.31100001 55130.89767845  2580.12613351
0.31200001 54348.61524504  3317.16788853
0.31300001 53576.64826044  3280.49832831
0.31400001 52817.02436860  2994.72542349
0.31500001 52066.54183976  3208.34046007
0.31600002 51328.48968179  3172.87073991
0.31700002 50600.19854270  3137.71846020
0.31800002 49882.42647535  3341.62390780
0.31900002 49175.70521116  3068.56415047
0.32000002 48479.52690555  2334.28933103
0.32100002 47793.17929678  3000.93387014
0.32200002 47118.33445972  3424.32511900
0.32300002 46451.91184882  2257.56302275
0.32400002 45797.01056252  2679.12524477
0.32500002 45151.76134244  2649.50548103
0.32600002 44516.70854525  3056.96252056
0.32700002 43891.87488671  3239.22052002
0.32800002 43277.76657991  2562.90945822
0.32900002 42671.55780888  2534.69065387
0.33000002 42076.55864247  2924.74172974
0.33100002 41490.26372277  2272.83675436
0.33200002 40915.28764555  2656.83432908
0.33300002 40349.09540597  2021.48977557
0.33400002 39793.23256576  3399.33705291
0.33500002 39246.68911368  1978.03322500
0.33600002 38709.21015444  2152.42573257
0.33700002 38181.30774186  2516.53011244
0.33800002 37663.71593783  2298.24005536
0.33900002 37154.68458396  2463.35570458
0.34000002 36655.28700243  2062.40982086
0.34100002 36165.35771587  2040.81123256
0.34200002 35685.34728291  2019.61232512
0.34300002 35213.90345886  2543.85250634
0.34400002 34752.53194877  2517.82105893
0.34500002 34299.86168201  2314.21177729
0.34600002 33857.04106790  1762.25907105
0.34700002 33422.31715875  1919.10954215
0.34800002 32997.35510382  2072.89394580
0.34900002 32581.13916100  2223.66285306
0.35000002 32174.29989875  1693.97696990
0.35100002 31777.12565471  1677.83231404
0.35200002 31387.36724450  1828.15729174
0.35300002 31007.78704502  1811.16492708
0.35400002 30636.33816590  2773.35464382
0.35500002 30274.27670877  2586.63432451
0.35600002 29920.40605301  1922.68538403
0.35700002 29575.30181633  1588.19378276
0.35800002 29239.30368981  2834.16584089
0.35900002 28912.37948168  1717.39542256
0.36000002 28593.67610911  2167.68668851
0.36100002 28282.98610652  1689.34284016
0.36200002 27982.38311462  1828.36899931
0.36300002 27688.59160392  1965.33632514
0.36400002 27404.02847605  1950.48181917
0.36500002 27126.82192212  2233.89389110
0.36600002 26859.01526318  1626.44774630
0.36700002 26598.71262316  1615.07390698
0.36800002 26347.53086253  1458.33590232
0.36900002 26104.04990867  1738.52980627
0.37000002 25868.11711027  2015.38509953
0.37100002 25640.11989927  1430.71875815
0.37200002 25420.85488755  1564.52658817
0.37300002 25209.04134246  2121.34092946
0.37400002 25004.75115675  1687.82078303
0.37500002 24808.49890018  1958.87916595
0.37600002 24619.95143815  2227.61331165
0.37700002 24438.99979028  2078.53703063
0.37800002 24265.23155823  1793.32202326
0.37900002 24099.99603310  2060.54975844
0.38000002 23941.08210895  1915.52607028
0.38100002 23788.78091191  1772.02637407
0.38200002 23644.97717074  2037.60600422
0.38300002 23507.51807704  1354.03310538
0.38400002 23377.43055588  1620.05601427
0.38500002 23253.50887400  1346.37822759
0.38600002 23137.70150045  1611.77236288
0.38700002 23027.49342188  1742.26023484
0.38800002 22924.05572550  1605.14245794
0.38900002 22827.27428657  1468.93516993
0.39000002 22737.34183681  2267.02677524
0.39100002 22653.06498952  1731.60036984
0.39200002 22575.94959765  1463.93752102
0.39300002 22504.08500068  1728.98893252
0.39400002 22439.68974224  1595.46201626
0.39500002 22379.83029650  1728.17057737
0.39600002 22326.04715521  1595.41940530
0.39700002 22277.67107500  1861.96783667
0.39800002 22235.95631530  1463.90425338
0.39900002 22198.73804313  1465.11678026
0.40000002 22167.34660927  1466.70255789
0.40100002 22140.88230335  1869.13337261
0.40200002 22120.13186573  1604.59444156
0.40300002 22104.26381059  1473.47029543
0.40400002 22093.30531414  1610.60203371
0.40500002 22086.71736459  2017.62172685
0.40600002 22085.91547496  1887.68328508
0.40700002 22088.84186707  2162.93949811
0.40800002 22096.52082118  1897.87026325
0.40900002 22108.19250392  2311.41163580
0.41000002 22124.63231251  1636.78037603
0.41100002 22145.08196917  2052.84919581
0.41200002 22168.52783348  1785.34247366
0.41300002 22197.54124803  1378.46737682
0.41400002 22229.22557582  2214.03097226
0.41500002 22264.72047257  1528.25048565
0.41600002 22302.74322551  2092.55498229
0.41700002 22345.67642610  1541.18137614
0.41800002 22392.14380729  2533.22334895
0.41900002 22440.07469923  1555.09725034
0.42000002 22491.52249031  1562.37368382
0.42100002 22546.65305665  1712.64384734
0.42200002 22604.17306077  2007.92878813
0.42300002 22663.95285328  1585.57021675
0.42400002 22726.24939949  1738.55816144
0.42500002 22791.62670038  1602.02351668
0.42600002 22857.91216546  1610.45427793
0.42700002 22927.58667615  1471.95113436
0.42800002 22998.55984091  1775.94887507
0.42900002 23072.25249098  1636.97639181
0.43000002 23147.71364859  2394.39961327
0.43100002 23223.33780255  1655.35959701
0.43200002 23301.78652119  2118.83154878
0.43300002 23380.97256380  1522.10138603
0.43400002 23462.10955940  1530.90272130
0.43500002 23543.71233163  2001.68651729
0.43600002 23627.32359260  2013.40247536
0.43700002 23711.01094372  1557.81349283
0.43800002 23795.15811462  1723.60235971
0.43900002 23881.14814017  1576.15585194
0.44000002 23967.02963029  2061.04481073
0.44100002 24053.83560465  2870.58487710
0.44200002 24140.84296115  1764.57499987
0.44300002 24228.27940665  1774.96383345
0.44400002 24315.76379649  1947.69277240
0.44500002 24402.74395833  2285.56110745
0.44600002 24489.71034300  2627.25625011
0.44700002 24577.64740874  1816.77978255
0.44800002 24664.12565090  2491.69341197
0.44900002 24750.85794424  1670.68299041
0.45000002 24837.53320880  1848.28512133
0.45100002 24922.79217132  1858.74192823
0.45200002 25007.86837853  1869.21321054
0.45300002 25091.85983244  1708.75573557
0.45400002 25175.30806259  2233.67931371
0.45500002 25258.19398810  1727.66055067
0.45600002 25339.45560769  2084.42371708
0.45700002 25420.16197081  1921.00173118
0.45800002 25499.12053761  2106.73743866
0.45900002 25577.00383813  1764.81334847
0.46000002 25654.05723005  2128.77376984
0.46100002 25728.73115123  1783.00115328
0.46200002 25802.69412905  2508.79606907
0.46300002 25874.97097925  2161.07767861
0.46400002 25945.09159848  1809.67022476
0.46500002 26014.69458715  2182.11268539
0.46600002 26081.35658672  2557.79876169
0.46700002 26146.29897816  2019.01730279
0.46800002 26210.11590069  2581.43443741
0.46900002 26271.14074418  2222.53861230
0.47000002 26330.34165031  2046.26259834
0.47100002 26387.69064433  2055.07344478
0.47200002 26443.08685236  2438.97823143
0.47300002 26496.19190647  2449.04313399
0.47400002 26546.34889833  1891.42744865
0.47500002 26594.79534653  2088.75532552
0.47600002 26641.77929643  2287.46327881
0.47700002 26684.94324498  2295.97262562
