# SAXS profile: number of points = 501, q_min = 0, q_max = 0.5, delta_q = 0.001
#    q    intensity    error
0.00000000 1664650.74656090 274.66737318
0.00100000 1664569.14861284 649.18198338
0.00200000 1664324.29050133 973.62974077
0.00300000 1663916.39782987 1098.18486169
0.00400000 1663345.33329149 1497.01085685
0.00500000 1662611.62094565 1795.62062169
0.00600000 1661715.15850105 2617.20148119
0.00700000 1660656.49776481 2192.06666815
0.00800000 1659435.48762548 2688.28560345
0.00900000 1658053.30937481 2984.49608446
0.01000000 1656509.41367618 2733.24065059
0.01100000 1654805.03735860 3574.37903632
0.01200000 1652940.07361964 4190.20327034
0.01300000 1650915.74996154 4160.30787339
0.01400000 1648732.02076844 5193.50609565
0.01500000 1646390.34420537 3951.33700204
0.01600000 1643890.09722097 4611.11192884
0.01700000 1641233.63025507 5760.73030061
0.01800000 1638420.67572318 4669.49913593
0.01900000 1635452.14945113 7850.17067159
0.02000000 1632329.15262585 6170.20447604
0.02100000 1629053.54264535 6451.05232136
0.02200000 1625624.05700860 7290.92422693
0.02300000 1622043.89775421 6423.29412748
0.02400000 1618312.47403777 6675.53925979
0.02500000 1614432.49984526 6925.91574065
0.02600000 1610403.79237240 7826.56278890
0.02700000 1606228.61639616 8095.39259741
0.02800000 1601906.78932428 8361.95382375
0.02900000 1597440.81197646 8626.18078074
0.03000000 1592832.12823456 7406.66973674
0.03100000 1588080.97651301 7622.78903801
0.03200000 1583188.76630581 11755.17713124
0.03300000 1578159.33180275 13682.64203751
0.03400000 1572990.96119372 9084.02322003
0.03500000 1567686.70959782 10158.61034730
0.03600000 1562247.98985153 9537.52441881
0.03700000 1556676.33702592 9760.36108454
0.03800000 1550973.45428489 13609.79269121
0.03900000 1545141.53388036 10197.93459588
0.04000000 1539180.21643838 10412.55464671
0.04100000 1533093.39559800 12556.03549213
0.04200000 1526882.28988095 13787.74771728
0.04300000 1520547.39914784 12042.73596025
0.04400000 1514092.62350831 11242.13825166
0.04500000 1507519.11865053 13522.44712261
0.04600000 1500826.81867707 12696.99547625
0.04700000 1494020.09418582 10756.94517842
0.04800000 1487099.31030216 16395.27065892
0.04900000 1480068.32900168 15540.71817790
0.05000000 1472926.59022302 16901.83340986
0.05100000 1465678.81852939 16005.21344393
0.05200000 1458323.08805186 15071.76981738
0.05300000 1450865.67945644 12927.21380660
0.05400000 1443306.50777604 11907.27924443
0.05500000 1435647.99553890 14471.33247011
0.05600000 1427891.29552517 15871.01249037
0.05700000 1420041.51025967 18531.54257391
0.05800000 1412097.52562726 14996.47642238
0.05900000 1404062.09567086 16427.52728661
0.06000000 1395938.85960571 17881.97762697
0.06100000 1387729.30023627 19358.82464296
0.06200000 1379435.23443204 14339.22993219
0.06300000 1371060.43304789 15794.61692719
0.06400000 1362603.09448354 14613.91887178
0.06500000 1354069.67895756 16086.34853850
0.06600000 1345461.07306912 17578.44974212
0.06700000 1336778.61623887 20452.71378562
0.06800000 1328025.74393681 13745.06709314
0.06900000 1319204.96766416 26318.14033709
0.07000000 1310317.04963864 19536.82812499
0.07100000 1301365.26605774 19676.64374440
0.07200000 1292351.63999999 19811.75156932
0.07300000 1283279.06429234 18517.71776540
0.07400000 1274149.68819725 14334.18466398
0.07500000 1264965.28092747 17304.72585420
0.07600000 1255727.27608295 18854.74593431
0.07700000 1246440.43104704 14583.35372704
0.07800000 1237105.05202731 19057.60422021
0.07900000 1227723.40855641 19152.48607180
0.08000000 1218299.75963513 14802.34277396
0.08100000 1208834.83988560 17842.40307385
0.08200000 1199330.25746925 16424.82864678
0.08300000 1189789.72655346 19488.75663559
0.08400000 1180214.64234658 22571.60609436
0.08500000 1170607.67348959 16610.92366662
0.08600000 1160970.86653535 16665.73757160
0.08700000 1151307.46211020 16716.98513483
0.08800000 1141617.07156371 16764.64748324
0.08900000 1131905.57554704 21393.01638266
0.09000000 1122172.15673293 18381.18079075
0.09100000 1112420.33657045 23027.10204885
0.09200000 1102651.23623662 19996.58110872
0.09300000 1092870.28536273 21573.26044683
0.09400000 1083074.25208824 16977.18969937
0.09500000 1073268.65226632 15455.06931906
0.09600000 1063455.09701996 21662.58134461
0.09700000 1053637.41931503 18586.16495050
0.09800000 1043815.88465581 20150.86660073
0.09900000 1033993.07701872 17060.88657305
0.10000000 1024169.50043077 17067.78552733
0.10100000 1014348.43767005 17071.48500889
0.10200000 1004532.07069220 18624.02546664
0.10300000 994721.77193259 20172.95848374
0.10400000 984920.58486039 18614.99992961
0.10500000 975131.26285692 18605.50537069
0.10600001 965350.87258055 18592.65868075
0.10700001 955587.26660061 20124.66878163
0.10800001 945838.42652109 17010.90490154
0.10900001 936108.72136775 21624.11248135
0.11000001 926397.78719551 15424.52388283
0.11100001 916708.59309057 16940.77559777
0.11200001 907042.60223233 19986.68468110
0.11300001 897401.50134934 18414.67967467
0.11400001 887787.65228151 18377.20526751
0.11500001 878202.77874861 16808.80197674
0.11600001 868647.58316190 16769.24238263
0.11700001 859124.93286775 15206.51202791
0.11800001 849634.29559332 21232.36204689
0.11900001 840178.32784382 15123.21061352
0.12000001 830758.02903827 24125.21429969
0.12100001 821378.21691929 25553.07753212
0.12200001 812036.56720080 19476.69798188
0.12300001 802736.78007709 17917.08577547
0.12400001 793478.23802672 16365.48943040
0.12500001 784262.75345129 25198.36345575
0.12600001 775094.20157926 14765.54523589
0.12700001 765971.42918079 17647.98256001
0.12800001 756896.03647129 20504.31459436
0.12900001 747870.02817794 18958.50610786
0.13000001 738894.41717070 17423.13117812
0.13100001 729969.36695601 15898.73356173
0.13200001 721097.28918377 15824.48075711
0.13300001 712279.23105685 15748.49454110
0.13400001 703515.09997010 18520.03587985
0.13500001 694807.97369316 24095.94166376
0.13600001 686157.50569587 15510.59114759
0.13700001 677564.87818055 28051.18727938
0.13800001 669029.91130253 16739.12917014
0.13900001 660555.98354195 13871.67630854
0.14000001 652142.23583895 16551.37072616
0.14100001 643790.92580343 15084.02210298
0.14200001 635501.36993001 13631.50502793
0.14300001 627276.05769243 13549.16348524
0.14400001 619112.00734580 14812.25547444
0.14500001 611015.46851529 13381.23939171
0.14600001 602983.50779474 22602.83785596
0.14700001 595018.77454568 23776.95135256
0.14800001 587118.45046437 17058.72738305
0.14900001 579286.71101567 13033.95161280
0.15000001 571522.56350290 18122.98134377
0.15100001 563826.98645387 14140.78148750
0.15200001 556201.47586031 16594.27181533
0.15300001 548645.24491017 17743.18805768
0.15400001 541157.22833193 16356.47799821
0.15500001 533741.37546424 14987.45853034
0.15600001 526394.34974106 12396.58752146
0.15700001 519121.54298647 14763.81737934
0.15800001 511916.70511628 12209.21399328
0.15900001 504786.12364735 16960.81455511
0.16000001 497724.84428194 18030.08333518
0.16100001 490738.55386930 11924.94742193
0.16200001 483823.94563629 15378.34483800
0.16300001 476981.59933335 14080.49747703
0.16400001 470212.91760134 19784.20944208
0.16500001 463515.92421346 18466.47529249
0.16600001 456892.58644979 18312.25572948
0.16700001 450341.83259430 12483.47618892
0.16800001 443864.44017114 11251.96408962
0.16900001 437461.18724816 15617.36512218
0.17000001 431129.73951168 11058.47834065
0.17100001 424871.96244902 10961.69714881
0.17200001 418687.28504663 14124.41622804
0.17300001 412575.26488664 11845.03641427
0.17400001 406537.31217320 16007.40742279
0.17500001 400570.74555630 14805.09545497
0.17600001 394676.07600905 13622.24540682
0.17700001 388856.31379486 10382.46406869
0.17800001 383106.84217888 15429.62879753
0.17900001 377429.64118467 15285.90118999
0.18000001 371825.24363811 12114.06700994
0.18100001 366292.78858034 11999.75232072
0.18200001 360829.42158573 12876.19851753
0.18300001 355438.07634867 10791.10050771
0.18400001 350116.91429926 9715.74483078
0.18500001 344866.83870591 11546.14230534
0.18600001 339686.74171200 14292.32033275
0.18700001 334575.53702608 13209.04282585
0.18800001 329532.14953487 10276.46056877
0.18900001 324561.05802819 10174.98964993
0.19000001 319654.25301594 10989.71373794
0.19100001 314817.91602184 9973.43205082
0.19200001 310047.53531852 9873.46422875
0.19300001 305346.05268490 9774.12760830
0.19400001 300709.16543661 9675.31785512
0.19500001 296139.01209405 8706.48736699
0.19600001 291633.31792659 12926.64742796
0.19700001 287194.33181557 9382.63926382
0.19800001 282818.59555705 10130.56257161
0.19900001 278507.20281782 9190.73812734
0.20000001 274257.82189331 9922.64846506
0.20100001 270072.63089514 9819.84132346
0.20200001 265948.27960891 9717.75059620
0.20300001 261886.20922708 8013.71838111
0.20400001 257885.21715649 9515.96496285
0.20500001 253944.02683224 7846.87080001
0.20600001 250062.40459105 10093.76943843
0.20700001 246240.10685407 10755.76837580
0.20800001 242475.70333144 8361.77502465
0.20900001 238771.70038686 7521.30891773
0.21000001 235121.77800432 9674.08601330
0.21100001 231530.00848634 9571.45100330
0.21200001 227993.06869331 8012.81677803
0.21300001 224511.30204559 9368.85707728
0.21400001 221084.24346600 7842.96390774
0.21500001 217712.42202871 8464.65936866
0.21600001 214391.97922546 9769.84295521
0.21700001 211124.79599452 6903.78115543
0.21800001 207909.57467081 9561.76179120
0.21900001 204744.81088264 8107.89489431
0.22000001 201629.89072245 8689.24055153
0.22100001 198566.59155995 7934.72137392
0.22200001 195551.56067327 7195.32001520
0.22300001 192584.80620030 6470.84979431
0.22400001 189665.04698113 9601.79345745
0.22500001 186794.66530404 7598.80734390
0.22600001 183968.48320178 8769.77800894
0.22700001 181189.21607350 9295.00722412
0.22800001 178454.20333092 6742.89239173
0.22900001 175763.10287840 7276.59280328
0.23000001 173116.32428162 5998.48092004
0.23100001 170513.58875719 8307.42243713
0.23200001 167951.32155804 7630.86865588
0.23300001 165431.91953260 8709.99097533
0.23400001 162952.63755557 8041.71304370
0.23500001 160513.29372944 7955.03921347
0.23600001 158114.29082337 6745.15596555
0.23700001 155754.28314542 8340.64225693
0.23800001 153432.19067532 6050.59872547
0.23900001 151147.95000363 7073.72439475
0.24000001 148900.35747757 5921.02299516
0.24100001 146690.27459438 6922.31438554
0.24200001 144515.97586784 9481.69362519
0.24300001 142376.14642570 7295.35408794
0.24400001 140271.09394859 5670.45924110
0.24500001 138199.46912975 8159.29704339
0.24600001 136161.51715998 5549.26289436
0.24700001 134156.84032163 4990.63469605
0.24800001 132184.01927881 6418.19535971
0.24900001 130241.68123071 5860.87593265
0.25000001 128331.56608194 4831.68369156
0.25100001 126451.11453518 5257.83759112
0.25200001 124602.19492735 6620.11492969
0.25300001 122781.10691466 5145.75643424
0.25400001 120989.86298132 5553.43497358
0.25500001 119225.36755610 5493.90519691
0.25600001 117489.81174571 4982.15570280
0.25700001 115780.59425403 5824.92197252
0.25800001 114098.16554768 5762.52812363
0.25900001 112442.76242878 6139.37511909
0.26000001 110812.22927860 4338.29898153
0.26100001 109206.42086707 5579.35630609
0.26200001 107626.71252380 5519.63621296
0.26300001 106069.74484088 5460.47072278
0.26400001 104537.46068607 6648.58281423
0.26500001 103028.46432982 5755.17028979
0.26600001 101542.08387145 5693.46491208
0.26700001 100078.23311988 4023.14516180
0.26800001 98636.82593117  4775.99533759
0.26900001 97216.15281426  4330.97981282
0.27000001 95817.42398719  5452.96985716
0.27100001 94439.06004815  4238.42521554
0.27200001 93081.79984794  5336.37983782
0.27300001 91744.48298573  4147.76827207
0.27400001 90425.21484065  5595.06043305
0.27500001 89127.51498464  4427.85515399
0.27600001 87846.30594870  4015.01560340
0.27700001 86585.71294424  3971.68684072
0.27800001 85342.26945957  4285.88897510
0.27900001 84117.17448898  4239.50579489
0.28000001 82909.23583545  4543.01179262
0.28100001 81718.84195147  3456.70717815
0.28200001 80545.72538599  4786.83268625
0.28300001 79388.99848676  3720.16864517
0.28400001 78248.21507464  3345.11135277
0.28500001 77124.16535033  3970.35222016
0.28600001 76015.66904901  4254.21711969
0.28700001 74923.33107091  3236.68805546
0.28800001 73844.79625093  3201.17206900
0.28900001 72783.08568580  5065.70300351
0.29000001 71735.20766051  3444.36615886
0.29100001 70702.69463822  4335.48944044
0.29200001 69683.95202654  4287.65377115
0.29300001 68679.76437656  3634.53330285
0.29400001 67688.73407408  3594.27194947
0.29500001 66712.75097182  3258.25091170
0.29600001 65748.95997669  3222.02793618
0.29700001 64799.15618040  3186.17466022
0.29800001 63862.64474503  4582.78360385
0.29900001 62939.37201844  3965.18062487
0.30000001 62027.84032691  3360.66854800
0.30100001 61130.26326214  2769.20105687
0.30200001 60244.04506300  3011.90117551
0.30300001 59370.94906357  2978.04694601
0.30400001 58509.87578659  2944.50963836
0.30500001 57661.19836521  3175.97895631
0.30600001 56823.32273689  3401.72837669
0.30700001 55998.06714662  3363.24407205
0.30800001 55184.17417114  3580.90123150
0.30900001 54382.08857222  3034.52068600
0.31000001 53591.34468953  3750.05452220
0.31100001 52811.37294574  3460.20131923
0.31200001 52043.46122952  3420.81686858
0.31300001 51285.86275343  3140.23352507
0.31400001 50540.61519129  2626.84859894
0.31500001 49804.85400662  3777.20030670
0.31600002 49081.19001624  2567.19176535
0.31700002 48367.41107981  2537.83817952
0.31800002 47664.15087296  2508.80269999
0.31900002 46972.23615673  2931.06767496
0.32000002 46290.75021273  2897.56964676
0.32100002 45619.19172582  3084.76989056
0.32200002 44959.08594001  2178.26781694
0.32300002 44307.54755501  3014.68567839
0.32400002 43667.51438454  4044.70371139
0.32500002 43037.25228461  2525.42608364
0.32600002 42417.23176010  2704.73491126
0.32700002 41807.44507384  2262.61903454
0.32800002 41208.38905371  2440.36091532
0.32900002 40617.37206738  2412.67201505
0.33000002 40037.75151078  1987.87445664
0.33100002 39466.85336879  2751.62914717
0.33200002 38907.32441221  4081.18398748
0.33300002 38356.69577055  3266.83993348
0.33400002 37816.33096381  2090.29779301
0.33500002 37285.28379547  1879.17839228
0.33600002 36763.57481050  2230.07855361
0.33700002 36251.32913269  1837.94247407
0.33800002 35749.68619637  2181.44595501
0.33900002 35256.54371493  2876.93410338
0.34000002 34773.09868800  2134.37289855
0.34100002 34299.15146519  2815.27448559
0.34200002 33835.31956556  1914.91000150
0.34300002 33380.08087647  1894.65348028
0.34400002 32934.94551029  2045.26021305
0.34500002 32498.51405563  1855.34025531
0.34600002 32072.04232271  2003.21985835
0.34700002 31653.64944614  1982.78469521
0.34800002 31245.26270804  2126.39645430
0.34900002 30845.55387963  2105.20915199
0.35000002 30455.29838738  1924.16584325
0.35100002 30074.83727885  1905.54178024
0.35200002 29701.68047535  1729.97446122
0.35300002 29338.81275051  1557.89103084
0.35400002 28984.36814877  1852.10121243
0.35500002 28639.11534769  1988.12748160
0.35600002 28302.20302673  1515.58304387
0.35700002 27974.08845532  2103.09206968
0.35800002 27655.04056521  2084.91360696
0.35900002 27345.17067088  1771.96714340
0.36000002 27043.65790605  2343.06263196
0.36100002 26750.05294336  1597.78073799
0.36200002 26466.57258461  1729.32593459
0.36300002 26190.16639981  1858.97809911
0.36400002 25922.66894033  1845.04604922
0.36500002 25662.90052697  2113.33995850
0.36600002 25412.33798983  1818.63405439
0.36700002 25169.42727493  1806.15818680
0.36800002 24935.52090896  1656.21737723
0.36900002 24709.56614429  1919.93338036
0.37000002 24491.00497787  1771.80183905
0.37100002 24280.43748486  1625.81817100
0.37200002 24078.61550818  1886.07804210
0.37300002 23884.16132214  1473.89166501
0.37400002 23697.44489469  1999.47200771
0.37500002 23518.66139962  1326.45256577
0.37600002 23347.65268561  2112.49571507
0.37700002 23184.00883410  1840.34670843
0.37800002 23027.87370531  1440.04815038
0.37900002 22879.92046312  1434.57108100
0.38000002 22738.52758564  1429.45760439
0.38100002 22603.76164623  1942.79340553
0.38200002 22477.33464689  1936.98440496
0.38300002 22357.24853580  1416.55533434
0.38400002 22244.52151640  1541.54541412
0.38500002 22138.14996639  1409.97883816
0.38600002 22039.51431443  1791.15141319
0.38700002 21946.68175147  1405.02663229
0.38800002 21860.51373622  1403.11714063
0.38900002 21781.00193417  1656.44527557
0.39000002 21708.38504835  1782.47558077
0.39100002 21641.30941897  1781.51267577
0.39200002 21581.12461478  1653.86956321
0.39300002 21526.36179451  1908.31206349
0.39400002 21478.96060730  1399.89132390
0.39500002 21435.96264714  1655.28511404
0.39600002 21399.33341501  2038.92858438
0.39700002 21367.68724375  1913.47648333
0.39800002 21342.68250178  1532.83152990
0.39900002 21322.31198939  1663.14041397
0.40000002 21307.44770774  1794.30025648
0.40100002 21297.63014513  1412.67187446
0.40200002 21293.44086792  2188.22055447
0.40300002 21293.94365169  1290.41304643
0.40400002 21299.24652441  1552.71514520
0.40500002 21308.98791396  2206.11962326
0.40600002 21324.27542150  1822.58590663
0.40700002 21343.50022854  1436.84450346
0.40800002 21367.03344643  1441.95432045
0.40900002 21394.49494457  1578.91380172
0.41000002 21426.83651599  1849.35034732
0.41100002 21462.91301041  1856.97132165
0.41200002 21502.09136155  1864.87647215
0.41300002 21546.45175260  2007.05207585
0.41400002 21593.54574286  1478.61811480
0.41500002 21644.28176877  2025.90486955
0.41600002 21697.51041141  1628.61520865
0.41700002 21755.46753112  1500.47466672
0.41800002 21816.81557278  1645.42430847
0.41900002 21879.47984046  1516.24802479
0.42000002 21945.66772441  1524.45588071
0.42100002 22015.29497238  1393.56823779
0.42200002 22087.24089543  1401.43550122
0.42300002 22161.40280483  1973.25139924
0.42400002 22237.85282722  1984.72845888
0.42500002 22317.12416783  1568.67073209
0.42600002 22397.28935453  2151.81967670
0.42700002 22480.72289328  1443.26247814
0.42800002 22565.38176250  1742.49886227
0.42900002 22652.67471337  1899.42686472
0.43000002 22741.27015923  1764.26782256
0.43100002 22830.05911180  1923.20427071
0.43200002 22921.64844553  1935.38947821
0.43300002 23013.72928647  1797.83261705
0.43400002 23107.47911885  1809.31570075
0.43500002 23201.77995465  1972.61542522
0.43600002 23297.70788676  1679.88130678
0.43700002 23393.74206375  1844.36271171
0.43800002 23489.99672448  2010.86126489
0.43900002 23587.97690009  2179.52916886
0.44000002 23685.64199237  1723.48582125
0.44100002 23784.13337040  1734.57692890
0.44200002 23882.57294452  2380.49557106
0.44300002 23981.35059598  2395.73703807
0.44400002 24079.99919319  1768.07402455
0.44500002 24178.02652799  1779.26105652
0.44600002 24275.82907946  1953.23330030
0.44700002 24374.45312699  1801.75966053
0.44800002 24471.44978175  1977.78266509
0.44900002 24568.58791894  1990.05571575
0.45000002 24665.44622573  2836.64977762
0.45100002 24760.69569248  2350.28534652
0.45200002 24855.63113441  1688.94021563
0.45300002 24949.32354560  1699.04901398
0.45400002 25042.28346971  2734.61748449
0.45500002 25134.44801859  2234.95522374
0.45600002 25224.99795537  2247.92579933
0.45700002 25314.65977791  1739.11720917
0.45800002 25402.61505097  2798.35220664
0.45900002 25489.12459827  2286.37458483
0.46000002 25574.65791008  2652.73151745
0.46100002 25657.78758618  2311.51019319
0.46200002 25739.96065258  2145.16842246
0.46300002 25820.25827729  2336.21707965
0.46400002 25898.24988079  2528.96422072
0.46500002 25975.56677934  2541.96908550
0.46600002 26049.73839687  1824.78426119
0.46700002 26122.05572568  2017.14523874
0.46800002 26193.06707573  3132.56000539
0.46900002 26261.20242777  2406.83931658
0.47000002 26327.31961449  2418.03278460
0.47100002 26391.46590673  2802.77381214
0.47200002 26453.36692602  1876.86647236
0.47300002 26512.86037386  2073.57090812
0.47400002 26569.41459072  2082.37796725
0.47500002 26624.02597169  2091.05109893
0.47600002 26676.76882067  2099.59518955
0.47700002 26725.93648402  2299.49968408
