# SAXS profile: number of points = 501, q_min = 0, q_max = 0.5, delta_q = 0.001
#    q    intensity    error
0.00000000 1664650.74656090 399.51617917
0.00100000 1664569.15302885 898.86736398
0.00200000 1664324.31481264 823.84056192
0.00300000 1663916.44693013 1098.18489409
0.00400000 1663345.42006189 1372.26002369
0.00500000 1662611.76404668 1795.62077624
0.00600000 1661715.36213013 1744.80120127
0.00700000 1660656.76749738 2391.34584458
0.00800000 1659435.83836636 3136.33386693
0.00900000 1658053.74710051 2487.08072697
0.01000000 1656509.95832411 3006.56570418
0.01100000 1654805.69558771 3276.51541992
0.01200000 1652940.85983761 3867.88178160
0.01300000 1650916.68726655 3813.61771578
0.01400000 1648733.08827416 5935.43938091
0.01500000 1646391.58689643 3951.33998450
0.01600000 1643891.51194967 4611.11589715
0.01700000 1641235.21038201 4874.46879350
0.01800000 1638422.45989385 5603.40506498
0.01900000 1635454.11808154 5887.63509076
0.02000000 1632331.32613741 7198.58147390
0.02100000 1629055.94703865 5913.47335586
0.02200000 1625626.69696637 7290.93606714
0.02300000 1622046.78262709 7007.24241991
0.02400000 1618315.61722565 9103.02576197
0.02500000 1614435.93560315 6296.30043641
0.02600000 1610407.46976056 9131.01077118
0.02700000 1606232.58174453 8770.03029800
0.02800000 1601911.04539383 10452.47005054
0.02900000 1597445.38033329 8626.20544987
0.03000000 1592837.02964717 8888.03103397
0.03100000 1588086.14957441 9909.65802932
0.03200000 1583194.28086004 11755.21807681
0.03300000 1578165.21095686 10463.23583100
0.03400000 1572997.20658244 9084.05928716
0.03500000 1567693.35671391 9312.09896890
0.03600000 1562254.94970129 11271.66998300
0.03700000 1556683.70716866 15084.26582007
0.03800000 1550981.22123925 9980.56462057
0.03900000 1545149.71637625 9270.89872759
0.04000000 1539188.80821220 11359.21393098
0.04100000 1533102.42774732 12556.10946543
0.04200000 1526891.69680218 15757.52304203
0.04300000 1520557.25539159 11039.24618656
0.04400000 1514102.95394963 13286.25403795
0.04500000 1507529.89500188 11442.15243472
0.04600000 1500838.06151973 10580.90882559
0.04700000 1494031.87765673 10757.03001942
0.04800000 1487111.49345101 15302.37797960
0.04900000 1480081.07361911 13320.73028262
0.05000000 1472939.78233252 12394.78884551
0.05100000 1465692.56907934 14862.12334280
0.05200000 1458337.30946663 12753.16036560
0.05300000 1450880.49030487 11752.13251933
0.05400000 1443321.82901935 13098.14620917
0.05500000 1435663.86995799 14471.49248426
0.05600000 1427907.72577566 12208.61162509
0.05700000 1420058.38046387 12354.50848673
0.05800000 1412115.13193494 12497.21950115
0.05900000 1404080.11933451 12636.72166422
0.06000000 1395957.50221396 14050.31291620
0.06100000 1387748.55454417 16777.88080849
0.06200000 1379455.08288670 22160.94694246
0.06300000 1371080.84537715 22376.04044275
0.06400000 1362624.16283772 23914.05517618
0.06500000 1354091.40410667 14746.05608051
0.06600000 1345483.36893746 18930.95188670
0.06700000 1336801.54905543 17725.98937003
0.06800000 1328049.28911638 21992.49725722
0.06900000 1319229.18697010 16622.28853406
0.07000000 1310341.95426886 13955.14246646
0.07100000 1301390.77714728 14055.02105150
0.07200000 1292377.81723317 18396.99909015
0.07300000 1283305.93972987 14244.69659845
0.07400000 1274177.21990102 21501.74159349
0.07500000 1264993.55516718 15863.01992534
0.07600000 1255756.08725526 15954.38183653
0.07700000 1246469.99746450 17500.43958497
0.07800000 1237135.28719699 19058.06999302
0.07900000 1227754.39261571 17679.66408291
0.08000000 1218331.40393187 22204.09087828
0.08100000 1208867.14842193 22303.59993483
0.08200000 1199363.30456989 14932.07384259
0.08300000 1189823.38137936 19489.30790167
0.08400000 1180249.10345317 19562.62980798
0.08500000 1170642.89209565 15101.29401697
0.08600000 1161006.77652373 18181.36697400
0.08700000 1151343.96115344 16717.51510096
0.08800000 1141654.38192605 18289.30405739
0.08900000 1131943.59047680 21393.73486487
0.09000000 1122211.03434602 19913.63573992
0.09100000 1112459.88439459 15351.94712590
0.09200000 1102691.40378280 27688.58244998
0.09300000 1092911.29396562 18492.05996288
0.09400000 1083116.00788114 15434.40383768
0.09500000 1073311.07885410 15455.68026196
0.09600000 1063498.25601116 21663.46049330
0.09700000 1053681.33883681 18586.93969091
0.09800000 1043860.51945764 18601.59533134
0.09900000 1034038.53536487 17061.63663580
0.10000000 1024215.60352924 21723.61397246
0.10100000 1014395.34623112 21728.34933819
0.10200000 1004579.68469535 20176.98391616
0.10300000 994770.15950103 26381.30587096
0.10400000 984969.63498429 17064.59972891
0.10500000 975181.04735629 17055.91732073
0.10600001 965401.47590559 17044.16385910
0.10700001 955638.44640259 20125.74662831
0.10800001 945890.49586134 18558.37240219
0.10900001 936161.45035597 20080.66405525
0.11000001 926451.18551590 16967.95426140
0.11100001 916762.82178203 16941.77774404
0.11200001 907097.50772697 18450.36417576
0.11300001 897457.23103183 19950.47518512
0.11400001 887844.05481658 21441.43493338
0.11500001 878259.88595524 18338.06728225
0.11600001 868705.27133107 15245.77822981
0.11700001 859183.41638176 16728.30190477
0.11800001 849693.49324307 15167.02956873
0.11900001 840238.28488564 15124.28984032
0.12000001 830818.63867094 21111.10260307
0.12100001 821439.47524310 21045.28034713
0.12200001 812098.57245106 14983.21936760
0.12300001 802799.46546431 17918.48491338
0.12400001 793541.70863334 17854.68928552
0.12500001 784326.79505297 16306.15483751
0.12600001 775158.90611644 20673.48900033
0.12700001 766036.73127018 16178.69652687
0.12800001 756962.14983118 21970.82743432
0.12900001 747936.59169643 17501.71707059
0.13000001 738961.67510214 20328.83664026
0.13100001 730037.27370811 17345.68644094
0.13200001 721165.80532942 18703.43604290
0.13300001 712348.46877506 17181.84587686
0.13400001 703584.94153113 17097.11488526
0.13500001 694878.34676713 18428.17462512
0.13600001 686228.41420565 16922.39349221
0.13700001 677636.44770223 26651.44274483
0.13800001 669101.99121538 23716.32119699
0.13900001 660628.71090268 16647.84429983
0.14000001 652215.50145789 16553.23020766
0.14100001 643864.63455406 17828.61257165
0.14200001 635575.78748551 14996.41141303
0.14300001 627350.98024253 14905.85999364
0.14400001 619187.33580336 13467.32518898
0.14500001 611091.25822752 16059.47902378
0.14600001 603059.76910941 19946.20280424
0.14700001 595095.59638858 14532.23514939
0.14800001 587195.68472198 15748.58900724
0.14900001 579364.43230148 14339.27037600
0.15000001 571600.79901678 20714.81393375
0.15100001 563905.66839550 14142.75483068
0.15200001 556280.55038915 12766.63923385
0.15300001 548724.77483803 19013.31434536
0.15400001 541237.17199339 16358.89429549
0.15500001 533821.67589762 14989.71336661
0.15600001 526474.98133964 12398.48639569
0.15700001 519202.47130815 13535.60906584
0.15800001 511997.88972664 13432.26527096
0.15900001 504867.78599269 13328.51017932
0.16000001 497806.81180712 15628.64559439
0.16100001 490820.80993974 11926.94624454
0.16200001 483906.58380124 13014.66818571
0.16300001 477064.54378866 12909.36716434
0.16400001 470296.00973026 20951.68822260
0.16500001 463599.31135396 17315.43509655
0.16600001 456976.24580436 13736.70659743
0.16700001 450425.68417895 15891.01888812
0.16800001 443948.46621330 11254.09414989
0.16900001 437545.30095899 13388.88684154
0.17000001 431214.04509226 18803.08932412
0.17100001 424956.46064232 15349.42808322
0.17200001 418771.86145164 15213.98244499
0.17300001 412660.06259207 14001.55658497
0.17400001 406622.25585903 11741.21819242
0.17500001 400655.72268695 11635.04273632
0.17600001 394761.12416413 16769.45334650
0.17700001 388941.31583533 13500.15371026
0.17800001 383191.99792050 11317.57619313
0.17900001 377514.74760134 12231.47840002
0.18000001 371910.26629076 12116.83704809
0.18100001 366377.92289227 10002.11776742
0.18200001 360914.49854940 12879.23448912
0.18300001 355523.03547393 9812.43624261
0.18400001 350201.91260841 10689.91388737
0.18500001 344951.65692105 11548.98201931
0.18600001 339771.42476152 15248.94226371
0.18700001 334660.25143221 9437.41953626
0.18800001 329616.60317303 13082.48359803
0.18900001 324645.37339640 10177.63293684
0.19000001 319738.27991374 9160.50215235
0.19100001 314901.84374560 9976.09088123
0.19200001 310131.25153861 9876.13017191
0.19300001 305429.56871333 9776.80095649
0.19400001 300792.34726313 9677.99423051
0.19500001 296222.08015175 12192.50139520
0.19600001 291715.96503290 11206.26932631
0.19700001 287276.73630962 11944.96726024
0.19800001 282900.66732760 11822.41944633
0.19900001 278588.85793518 12536.49919956
0.20000001 274339.13325160 8271.32525845
0.20100001 270153.48859742 9822.78130965
0.20200001 266028.86653337 9720.69524256
0.20300001 261966.27991729 9619.40225322
0.20400001 257964.85109873 8725.66150084
0.20500001 254023.20167632 9419.18076337
0.20600001 250141.00372690 10873.62994598
0.20700001 246318.31404526 8453.64493763
0.20800001 242553.39832010 10645.66915549
0.20900001 238848.87428421 9028.48787473
0.21000001 235198.37393399 10421.64044167
0.21100001 231606.00638462 7365.07135120
0.21200001 228068.40576458 10201.50027212
0.21300001 224586.03465836 10813.81808003
0.21400001 221158.37230449 9272.06519722
0.21500001 217785.91418826 11290.02232528
0.21600001 214464.71581957 11169.32292795
0.21700001 211196.96066847 8287.36912845
0.21800001 207981.01583392 9565.04737044
0.21900001 204815.53379166 7434.80422817
0.22000001 201699.84463249 6686.35016571
0.22100001 198635.79146357 8598.94381905
0.22200001 195619.98323619 12432.62862245
0.22300001 192652.37752394 8415.05624816
0.22400001 189731.83386931 7684.13963506
0.22500001 186860.53429952 7601.48689476
0.22600001 184033.57829753 7519.61236483
0.22700001 181253.43351655 8058.52803523
0.22800001 178517.58736817 8584.91118252
0.22900001 175825.51497813 7279.17666433
0.23000001 173177.78308564 6600.67151447
0.23100001 170574.05935895 7123.17305570
0.23200001 168010.96560117 8807.97528820
0.23300001 165490.61607635 6389.59298890
0.23400001 163010.31333551 7469.94796189
0.23500001 160569.98228814 6821.01317021
0.23600001 158169.95374841 6747.53054605
0.23700001 155808.90907410 6118.61614874
0.23800001 153485.70617406 8253.69423990
0.23900001 151200.48644251 5987.53954633
0.24000001 148951.74205054 6461.52687579
0.24100001 146740.58092989 5859.35167368
0.24200001 144565.19282030 6850.22198582
0.24300001 142424.21240222 6776.54434665
0.24400001 140318.06041104 5672.35786044
0.24500001 138245.27177540 6631.62600077
0.24600001 136206.23430982 8578.95007383
0.24700001 134200.31062839 5990.70214985
0.24800001 132226.35361796 5926.38544951
0.24900001 130282.67697786 7328.40092669
0.25000001 128371.47865733 6283.14232013
0.25100001 126489.73910266 8606.36225570
0.25200001 124639.58577135 5203.07975418
0.25300001 122817.31088670 6083.14169601
0.25400001 121024.87750890 5555.04214047
0.25500001 119259.06091140 6411.36741793
0.25600001 117522.26453840 5436.58021477
0.25700001 115811.71958605 4481.91376003
0.25800001 114127.99849288 4877.26024636
0.25900001 112471.30344342 5263.65725020
0.26000001 110839.43377436 5207.23684510
0.26100001 109232.30061854 5580.67850266
0.26200001 107651.30876585 6370.26649764
0.26300001 106092.97432111 5041.53837829
0.26400001 104559.38536239 4156.23576482
0.26500001 103049.09265034 6167.48848696
0.26600001 101561.19778596 5287.78401294
0.26700001 100096.14578866 5633.41135156
0.26800001 98653.35717039  5174.86209525
0.26900001 97231.25852522  4331.65277228
0.27000001 95831.21921649  5453.75494369
0.27100001 94451.47693381  5395.06861777
0.27200001 93092.80750890  4574.58077747
0.27300001 91754.05379118  4148.20096821
0.27400001 90433.50468540  5222.53514274
0.27500001 89134.33938643  5166.22655533
0.27600001 87851.72214048  5840.38276430
0.27700001 86589.80692571  4694.03365560
0.27800001 85344.91235965  6429.03255232
0.27900001 84118.48925495  4592.86973069
0.28000001 82909.13290292  4193.54414070
0.28100001 81717.33036299  4147.97188554
0.28200001 80542.79752574  3760.94610847
0.28300001 79384.77261035  4734.50806257
0.28400001 78242.53995498  5686.27686036
0.28500001 77117.06527752  4300.81893409
0.28600001 76007.17287263  3599.31984175
0.28700001 74913.54841598  3559.89198923
0.28800001 73833.54068962  3520.75255443
0.28900001 72770.48503516  3482.06787375
0.29000001 71721.23775476  3443.69539380
0.29100001 70687.34881191  4024.93783187
0.29200001 69667.23051168  3368.06241852
0.29300001 68661.74204887  4239.17615476
0.29400001 67669.33096155  3593.24164415
0.29500001 66691.93803956  4145.57106478
0.29600001 65726.86243970  4685.01097648
0.29700001 64775.71851616  4343.21213211
0.29800001 63837.86132203  3149.44103741
0.29900001 62913.31962668  3397.31942067
0.30000001 62000.51315658  3919.05262215
0.30100001 61101.62590404  3044.69416293
0.30200001 60214.10378486  3831.42360521
0.30300001 59339.79107934  4058.84190198
0.30400001 58477.44987974  2675.34345865
0.30500001 57627.46642034  3174.12100070
0.30600001 56788.37873785  5753.23092231
0.30700001 55961.88969614  3102.52731164
0.30800001 55146.81146954  2811.66031589
0.30900001 54343.52202195  3537.76345112
0.31000001 53551.53012143  4246.90429735
0.31100001 52770.41158241  3210.55199268
0.31200001 52001.37410279  3173.90401863
0.31300001 51242.59203344  2654.87881895
0.31400001 50496.26429824  2863.13832127
0.31500001 49759.34556860  2594.45240079
0.31600002 49034.62047996  3031.07520848
0.31700002 48319.67823892  2765.81851335
0.31800002 47615.47270061  2961.92061958
0.31900002 46922.50685104  3153.19260969
0.32000002 46240.00544431  2671.74764108
0.32100002 45567.34324126  2420.99306104
0.32200002 44906.29865510  3263.56540929
0.32300002 44253.73911536  3441.17091655
0.32400002 43612.77916097  2763.96001020
0.32500002 42981.64048806  2522.16278327
0.32600002 42360.73503192  2285.57356687
0.32700002 41750.01162173  2259.51073596
0.32800002 41150.15117554  2639.98807368
0.32900002 40558.24189450  2007.63306885
0.33000002 39977.74327244  2183.38455222
0.33100002 39406.09112717  3139.87748970
0.33200002 38845.76976703  2134.38092092
0.33300002 38294.36140948  2494.11187671
0.33400002 37753.30164506  2276.52419700
0.33500002 37221.48567147  2251.15556002
0.33600002 36699.10394423  2040.65377146
0.33700002 36186.27580649  2201.57312433
0.33800002 35683.94806587  2177.43461410
0.33900002 35190.14643076  1974.16730826
0.34000002 34706.17349376  3195.39754490
0.34100002 34231.64939973  2809.73391579
0.34200002 33767.27543593  2432.25696484
0.34300002 33311.51034113  2578.31102251
0.34400002 32865.91884299  2040.97365681
0.34500002 32429.05920857  2019.68190316
0.34600002 32002.09873600  1665.70931810
0.34700002 31583.34303662  1978.38070151
0.34800002 31174.51464634  1795.18451093
0.34900002 30774.49324109  1938.79316601
0.35000002 30383.93866280  2079.62878027
0.35100002 30003.15208183  1584.16650495
0.35200002 29629.80534597  2196.45757433
0.35300002 29266.66837446  1554.06016429
0.35400002 28911.99076437  2463.30172980
0.35500002 28566.55166598  1830.54471746
0.35600002 28229.43192420  1814.02338137
0.35700002 27901.20814786  1797.95393821
0.35800002 27582.05639026  1633.82318766
0.35900002 27272.16162608  1767.23615708
0.36000002 26970.61889490  1460.45908233
0.36100002 26677.00679066  1448.56153735
0.36200002 26393.55296607  1868.26773520
0.36300002 26117.20296734  1711.19921947
0.36400002 25849.83713395  1556.80651513
0.36500002 25590.09474015  1685.87552134
0.36600002 25339.71761305  1534.44667274
0.36700002 25096.95548645  1523.88720932
0.36800002 24863.21750985  1926.65081610
0.36900002 24637.50498076  1777.59606857
0.37000002 24419.22685795  1358.93003902
0.37100002 24208.99080050  1621.03410079
0.37200002 24007.43319414  1611.85914101
0.37300002 23813.38067922  2003.89607908
0.37400002 23627.01743379  1993.52969041
0.37500002 23448.58449782  1851.50031966
0.37600002 23278.07763856  1448.01288810
0.37700002 23114.88914105  1441.67570402
0.37800002 22959.21847150  1827.32428471
0.37900002 22811.85294617  1560.33081543
0.38000002 22670.97069034  1554.77524360
0.38100002 22536.80904902  1549.63106362
0.38200002 22411.00742935  1673.76616915
0.38300002 22291.53724217  1797.58964837
0.38400002 22179.53598874  1793.21556964
0.38500002 22073.82932422  1917.11216763
0.38600002 21975.99139854  1530.84763335
0.38700002 21883.81764954  1528.36589705
0.38800002 21798.52672806  1526.33291381
0.38900002 21719.78881361  1651.79001753
0.39000002 21648.06422555  1650.55673507
0.39100002 21581.78962129  1649.71207681
0.39200002 21522.47255615  1522.49978075
0.39300002 21468.66907437  1395.67824265
0.39400002 21422.22928073  1523.12057402
0.39500002 21380.28575311  1269.98903390
0.39600002 21344.54164235  1398.17426652
0.39700002 21313.96958016  1526.93285307
0.39800002 21290.04635009  1401.63026787
0.39900002 21270.70961589  1403.86690116
0.40000002 21257.01526092  1662.19238708
0.40100002 21248.35293016  1537.53089087
0.40200002 21245.27842607  1926.41571256
0.40300002 21246.92786325  1673.83305637
0.40400002 21253.51468253  1549.38129377
0.40500002 21264.43509631  1683.50540634
0.40600002 21281.03455826  2078.73155414
0.40700002 21301.48370358  1694.74612376
0.40800002 21326.39284660  1570.04911576
0.40900002 21355.15163012  2495.34958621
0.41000002 21388.80208697  1582.34365337
0.41100002 21426.24675696  1588.97053479
0.41200002 21466.85964946  1462.85922013
0.41300002 21512.56765589  1469.52356620
0.41400002 21561.11015222  2013.26875586
0.41500002 21613.33584853  1483.53944294
0.41600002 21667.94391992  1626.39594769
0.41700002 21727.43097370  1634.77198392
0.41800002 21790.28126996  1780.37501552
0.41900002 21854.49346465  1514.51646886
0.42000002 21922.17893807  1938.13993175
0.42100002 21993.32083856  1670.61273006
0.42200002 22066.90973514  1680.17458685
0.42300002 22142.61742962  1971.57874936
0.42400002 22220.63404599  2549.81787760
0.42500002 22301.52509399  1995.09452945
0.42600002 22383.35618228  2007.11564398
0.42700002 22468.45270797  1442.47473221
0.42800002 22554.73089109  1596.53670178
0.42900002 22643.72621678  1606.57245121
0.43000002 22734.07397294  1616.73374720
0.43100002 22824.52923325  1626.93252084
0.43200002 22917.79818834  1786.21327544
0.43300002 23011.57228400  2097.27479735
0.43400002 23107.07905651  1809.28437586
0.43500002 23203.05880248  1669.22812935
0.43600002 23300.77125903  2138.31187977
0.43700002 23398.54972474  2152.19870567
0.43800002 23496.56870165  1547.24912233
0.43900002 23596.28925640  2180.29723061
0.44000002 23695.74802147  1880.96856708
0.44100002 23795.98993328  2050.97646954
0.44200002 23896.22405013  2223.06582874
0.44300002 23996.83927273  2557.10331408
0.44400002 24097.26207844  2573.58771194
0.44500002 24197.08742095  2590.05636028
0.44600002 24296.69857382  2280.73120321
0.44700002 24397.08829156  2295.27817525
0.44800002 24495.89216359  1979.75809849
0.44900002 24594.83133700  1660.15119393
0.45000002 24693.42223860  1837.56110297
0.45100002 24790.53842418  1680.79858482
0.45200002 24887.32040636  2367.53090246
0.45300002 24982.80490051  2551.99364153
0.45400002 25077.57388302  2225.00784822
0.45500002 25171.50123084  2066.07691895
0.45600002 25263.83512890  1905.01957818
0.45700002 25355.29529799  2961.24507820
0.45800002 25445.03594119  1751.89080758
0.45900002 25533.30490124  1937.97793385
0.46000002 25620.66084421  2657.50317202
0.46100002 25705.49339969  2137.66893243
0.46200002 25789.43192070  2149.29135814
0.46300002 25871.51861254  2700.98667116
0.46400002 25951.23309179  2534.13803152
0.46500002 26030.24890010  1819.51448435
0.46600002 26106.19621437  2377.36087094
0.46700002 26180.20134009  2021.63524330
0.46800002 26252.92757556  2955.02966796
0.46900002 26322.74538743  3340.35654799
0.47000002 26390.51894014  1864.49025149
0.47100002 26456.35709861  2060.42118850
0.47200002 26519.92488933  1881.58876008
0.47300002 26581.04622259  2078.90372360
0.47400002 26639.20603327  2277.65222380
0.47500002 26695.42775305  2287.26435829
0.47600002 26749.79233671  2488.13205213
0.47700002 26800.50494827  2113.75592546
