# SAXS profile: number of points = 501, q_min = 0, q_max = 0.5, delta_q = 0.001
#    q    intensity    error
0.00000000 1646666.22097350 296.39991978
0.00100000 1646585.07757533 543.37308850
0.00200000 1646341.57776097 740.85373345
0.00300000 1645935.95456414 1086.31776871
0.00400000 1645368.07606428 1727.63654551
0.00500000 1644638.44036746 1776.20958590
0.00600000 1643746.96325286 2071.12125802
0.00700000 1642694.19897537 1971.23312070
0.00800000 1641479.98401311 2437.59787917
0.00900000 1640105.50361794 2706.17419665
0.01000000 1638570.21933825 3244.36917438
0.01100000 1636875.34547497 4714.20120022
0.01200000 1635020.79547896 3507.11976007
0.01300000 1633007.77924370 3429.31648766
0.01400000 1630836.22853918 4403.25801226
0.01500000 1628507.68076204 4690.10232944
0.01600000 1626021.42528926 4975.62578381
0.01700000 1623379.81563686 5259.75083861
0.01800000 1620582.65621251 6004.25901144
0.01900000 1617630.76672048 7764.62803062
0.02000000 1614525.31822958 5594.33048073
0.02100000 1611268.13953670 7975.77765232
0.02200000 1607857.95472870 6101.82121542
0.02300000 1604297.95164490 5775.47288881
0.02400000 1600587.63933717 9003.30588180
0.02500000 1596729.53565408 7472.69456814
0.02600000 1592723.65413299 8385.69042256
0.02700000 1588572.15904801 9340.80472302
0.02800000 1584274.86191228 7580.75556190
0.02900000 1579834.24125228 11374.80705928
0.03000000 1575251.85021025 8057.41358419
0.03100000 1570527.72757993 7538.53343926
0.03200000 1565663.43957312 9300.04125941
0.03300000 1560662.77300289 11143.13271294
0.03400000 1555524.11718536 12249.75298804
0.03500000 1550250.36735560 10882.75808138
0.03600000 1544842.86187187 11146.04176351
0.03700000 1539303.35778280 8774.02954514
0.03800000 1533633.43547179 8971.75601272
0.03900000 1527835.20760900 12833.81633825
0.04000000 1521908.48993632 11231.68517619
0.04100000 1515857.10611051 10504.89023242
0.04200000 1509682.12159858 14606.17520409
0.04300000 1503384.22460788 11906.80361158
0.04400000 1496967.25173879 13135.88824406
0.04500000 1490432.31716400 10283.98346628
0.04600000 1483779.39287438 10460.64520605
0.04700000 1477012.77654652 14888.28948001
0.04800000 1470132.86137023 12966.57244060
0.04900000 1463143.56068355 16460.36582388
0.05000000 1456044.27275215 11138.73920524
0.05100000 1448839.64037816 15821.32960995
0.05200000 1441527.90510112 14898.19159349
0.05300000 1434115.21919928 15101.23396216
0.05400000 1426601.50070540 14123.35551561
0.05500000 1418989.13038275 15495.36202663
0.05600000 1411279.25754486 13273.08203659
0.05700000 1403477.02871291 13431.27579173
0.05800000 1395581.56701609 17291.25642270
0.05900000 1387595.00446457 12488.35562346
0.06000000 1379521.46650109 15147.14640984
0.06100000 1371362.30829765 14029.03706948
0.06200000 1363119.33798130 15457.77401526
0.06300000 1354796.44795782 15607.25581020
0.06400000 1346391.65057472 13127.31920703
0.06500000 1337911.24835381 18543.45076961
0.06600000 1329356.50534619 18704.04690536
0.06700000 1320728.28725461 18860.00082462
0.06800000 1312030.58945772 19011.32413114
0.06900000 1303265.46716204 13684.28804588
0.07000000 1294433.91478533 16542.86620563
0.07100000 1285539.08876059 18048.96965157
0.07200000 1276583.19313207 13978.58661965
0.07300000 1267568.64529187 19698.01767080
0.07400000 1258498.16588074 14158.10502967
0.07500000 1249373.09540629 14242.85395523
0.07600000 1240195.11410352 22918.80678308
0.07700000 1230968.84708272 18723.03704202
0.07800000 1221694.53848031 17372.49715189
0.07900000 1212374.51867595 16003.34439714
0.08000000 1203013.25521867 21924.91760488
0.08100000 1193610.97254534 20553.98191159
0.08200000 1184169.58011318 17691.49435707
0.08300000 1174693.06879680 17761.36003378
0.08400000 1165182.28252372 20798.50471930
0.08500000 1155640.29623321 16398.53657338
0.08600000 1146068.78039424 20938.67760091
0.08700000 1136471.08288327 15001.41899849
0.08800000 1126847.15445929 22565.11532779
0.08900000 1117202.59827555 25639.80083472
0.09000000 1107536.40168451 16629.65985248
0.09100000 1097852.23127094 21210.50610465
0.09200000 1088151.29831915 19733.62472224
0.09300000 1078439.17417623 16726.59237749
0.09400000 1068712.27592840 18274.98077725
0.09500000 1058976.26358366 22873.88836854
0.09600000 1049232.55522198 18319.60127534
0.09700000 1039485.16179153 19864.56237572
0.09800000 1029734.29003668 16820.71041862
0.09900000 1019982.77099053 16829.71651272
0.10000000 1010230.78031466 19896.49615397
0.10100000 1000481.58335434 21430.31652336
0.10200000 990737.46246624 15306.89451508
0.10300000 980999.83415673 19894.67757256
0.10400000 971271.54350302 16827.28028283
0.10500000 961555.45957500 24461.97204251
0.10600001 951848.85463667 16804.89231934
0.10700001 942159.07213511 19841.87099288
0.10800001 932484.48887629 21344.57095489
0.10900001 922829.47370545 15226.68703279
0.11000001 913193.24989493 19766.06882436
0.11100001 903579.26150921 16698.14553873
0.11200001 893988.68032822 16668.41972942
0.11300001 884423.18393359 21173.09202022
0.11400001 874885.41658617 19619.30639071
0.11500001 865376.49416116 16563.30687818
0.11600001 855897.75797150 18025.20763171
0.11700001 846451.77087276 17978.63646004
0.11800001 837038.13252033 17929.35764303
0.11900001 827659.22969569 19367.22688711
0.12000001 818316.22773522 19308.17230292
0.12100001 809013.92781322 17765.94669170
0.12200001 799750.03653150 19182.00552990
0.12300001 790527.92678635 17644.58415719
0.12400001 781347.58362294 19045.34824818
0.12500001 772210.22776108 21892.16098860
0.12600001 763120.04307468 20352.41250788
0.12700001 754075.71865736 17373.90537663
0.12800001 745078.86019575 17300.73194912
0.12900001 736131.52699563 17225.47854357
0.13000001 727234.87690435 24293.28220805
0.13100001 718388.81272515 18491.32891118
0.13200001 709595.68806467 18403.36503750
0.13300001 700856.72318157 15495.94288007
0.13400001 692171.98580942 21024.72506018
0.13500001 683544.02306379 19522.01821913
0.13600001 674972.84246216 13870.69256661
0.13700001 666459.67990848 15175.28762708
0.13800001 658004.31285423 21951.02491193
0.13900001 649609.69616953 15005.98468917
0.14000001 641275.41386639 14919.27320720
0.14100001 633003.62918097 18876.16911243
0.14200001 624793.76718081 17422.37501957
0.14300001 616647.83313134 18647.43135345
0.14400001 608563.43959715 17207.13206627
0.14500001 600546.32493390 14467.16165010
0.14600001 592594.00907415 20906.71762640
0.14700001 584708.62068907 14278.58519084
0.14800001 576887.61157547 14182.78259971
0.14900001 569135.28486244 17927.76231901
0.15000001 561450.67822466 16531.91600035
0.15100001 553834.17308309 16415.64566475
0.15200001 546287.69356457 12537.30315890
0.15300001 538810.61147521 13691.17828366
0.15400001 531401.69037557 14826.10786114
0.15500001 524064.62383183 12263.11277640
0.15600001 516796.48549902 14604.66936947
0.15700001 509602.33610302 13285.33352923
0.15800001 502476.27217974 20372.90141710
0.15900001 495424.05344362 14268.21341264
0.16000001 488441.09477005 14155.02359459
0.16100001 481533.18205976 16381.75962696
0.16200001 474696.66286077 11606.33395484
0.16300001 467932.22784915 13813.36001821
0.16400001 461241.09111030 20548.29157904
0.16500001 454621.68409238 14716.10460884
0.16600001 448075.58767726 14591.58220162
0.16700001 441602.12718709 11128.37413054
0.16800001 435201.91347015 12135.60593011
0.16900001 428875.37369118 12029.95480007
0.17000001 422620.52744498 13008.26044900
0.17100001 416439.10933628 19339.43315081
0.17200001 410330.75159556 14907.31690943
0.17300001 404294.47948164 11607.29505407
0.17400001 398332.43318501 11501.84955140
0.17500001 392441.26810280 10360.44996721
0.17600001 386621.72369899 14370.73014861
0.17700001 380876.98620812 14237.18241689
0.17800001 375202.29894348 13096.43686319
0.17900001 369599.67459627 11975.03002254
0.18000001 364069.30011280 13838.27475094
0.18100001 358610.77221419 10769.08199829
0.18200001 353221.21754308 11635.10745549
0.18300001 347903.02417903 12482.76109722
0.18400001 342655.24134768 13312.15675523
0.18500001 337477.84125058 13181.88510199
0.18600001 332370.14062186 13052.17603885
0.18700001 327331.24482264 14769.18646416
0.18800001 322359.81857133 11880.57167476
0.18900001 317460.18996020 11761.90059375
0.19000001 312624.48556116 13435.03790178
0.19100001 307859.14250457 8866.34372307
0.19200001 303159.41912227 9654.11215812
0.19300001 298528.05750604 10424.60026070
0.19400001 293961.00843636 9458.19589338
0.19500001 289460.42930038 11063.17813065
0.19600001 285024.01556994 11791.44408135
0.19700001 280653.85415556 10002.50383480
0.19800001 276346.48858807 9898.73168903
0.19900001 272103.25437997 11428.33722406
0.20000001 267921.53727083 8885.61820353
0.20100001 263803.65070814 11989.87649135
0.20200001 259746.27119986 12654.83893097
0.20300001 255750.78077480 12521.55881856
0.20400001 251816.28447607 11615.02667045
0.20500001 247940.82401195 9193.64618892
0.20600001 244124.49651389 11370.09896258
0.20700001 240367.30036876 9749.29816380
0.20800001 236667.58021825 8161.48188962
0.20900001 233027.88558589 11744.60598871
0.21000001 229441.76760656 8714.19874564
0.21100001 225913.33961943 7184.04453951
0.21200001 222439.45339890 7817.63495928
0.21300001 219020.27333937 10545.82665985
0.21400001 215655.47151387 10432.33392769
0.21500001 212345.29682672 8943.98432519
0.21600001 209086.21451781 8166.90792519
0.21700001 205879.91111575 8078.72809414
0.21800001 202725.10968993 9323.32823545
0.21900001 199620.50457398 8563.72005113
0.22000001 196565.27162892 7819.36687512
0.22100001 193561.15232553 7090.14534493
0.22200001 190604.77945502 8926.02224394
0.22300001 187696.28484120 8198.57410954
0.22400001 184834.48707891 6861.98065728
0.22500001 182021.42148138 8638.73707201
0.22600001 179252.25053143 6713.89336114
0.22700001 176529.41472493 6641.03689600
0.22800001 173850.59877954 7763.29885563
0.22900001 171215.03077282 8269.68637741
0.23000001 168623.37495939 6427.08024053
0.23100001 166075.45014699 6357.36853228
0.23200001 163567.33975521 5716.67879481
0.23300001 161101.69272249 6785.60361839
0.23400001 158675.88441480 6711.99022819
0.23500001 156289.35094142 8852.22925600
0.23600001 153942.73577208 6019.93096709
0.23700001 151634.78606980 8120.04317810
0.23800001 149364.22170891 5890.17836169
0.23900001 147130.99970163 5826.38786377
0.24000001 144933.99863561 5239.36429850
0.24100001 142773.97608914 8292.31292349
0.24200001 140649.34831539 7690.00348290
0.24300001 138558.63875813 5578.37106027
0.24400001 136502.45788621 7023.05179046
0.24500001 134479.03727852 5954.73205238
0.24600001 132488.98458999 5890.46053352
0.24700001 130531.57694033 4855.77489189
0.24800001 128605.64407532 5764.10524014
0.24900001 126709.83721358 5226.78103233
0.25000001 124845.68516942 7050.66040350
0.25100001 123010.61598773 6509.72210604
0.25200001 121206.80391964 7819.65732482
0.25300001 119430.33345808 5460.35510404
0.25400001 117683.25919066 4951.52336471
0.25500001 115962.47032405 6234.14269957
0.25600001 114270.08883294 5286.13455951
0.25700001 112603.53724836 4793.53280746
0.25800001 110963.50325977 5173.11876673
0.25900001 109349.81168695 5117.57142909
0.26000001 107760.76063720 7172.01776356
0.26100001 106195.75965612 5842.89097274
0.26200001 104656.70503140 5780.19009238
0.26300001 103139.55255988 6126.48971195
0.26400001 101647.06262262 4040.47093044
0.26500001 100177.15448736 4396.77551850
0.26600001 98729.44141902  3954.11431594
0.26700001 97303.81293080  4693.93615790
0.26800001 95900.16216830  4256.52889926
0.26900001 94516.87461467  5741.90040456
0.27000001 93155.11974838  4165.43137667
0.27100001 91813.20294330  5618.96828604
0.27200001 90492.01137970  5187.90725791
0.27300001 89190.21840731  4032.28996502
0.27400001 87906.22220715  3988.74502142
0.27500001 86643.29571566  5021.84565734
0.27600001 85396.33488783  3548.21788251
0.27700001 84169.63123533  3860.86116749
0.27800001 82959.66460275  4860.60697911
0.27900001 81767.64549735  4121.08952811
0.28000001 80592.38796105  3396.96931333
0.28100001 79434.13982189  3696.07070084
0.28200001 78292.88856847  3988.23993244
0.28300001 77167.58422636  3616.07316800
0.28400001 76057.79066792  4226.91191643
0.28500001 74964.22926416  3537.56214641
0.28600001 73885.93533205  3816.94759992
0.28700001 72823.40170223  3145.97110244
0.28800001 71774.21681722  4978.25991408
0.28900001 70741.38950769  3384.97564817
0.29000001 69722.27809794  4260.72861624
0.29100001 68717.90741034  3912.79783316
0.29200001 67727.04441334  3571.92449144
0.29300001 66750.25705059  2943.68647527
0.29400001 65786.25799318  3202.14625940
0.29500001 64836.98955034  4030.26746123
0.29600001 63899.46644936  3416.06563809
0.29700001 62975.66828695  3941.01750796
0.29800001 62064.67142432  2783.60064515
0.29900001 61166.58768021  3302.99589109
0.30000001 60279.97888217  3538.13352798
0.30100001 59406.86364650  4305.80968094
0.30200001 58544.70875555  3193.02856669
0.30300001 57695.47431487  3157.09650397
0.30400001 56857.82671947  2601.24569556
0.30500001 56032.23143794  2829.06749924
0.30600001 55217.08732421  3051.29638999
0.30700001 54414.23302434  3268.11899017
0.30800001 53622.43360032  2982.47989805
0.30900001 52842.03841372  3194.30137334
0.31000001 52072.62557394  2915.02571764
0.31100001 51313.80011688  3121.93174692
0.31200001 50566.72463361  2848.92940074
0.31300001 49829.57394775  3051.06495728
0.31400001 49104.47416896  2552.20516577
0.31500001 48388.68722994  3440.43582494
0.31600002 47684.49609329  3401.09684489
0.31700002 46989.92632047  2465.56155077
0.31800002 46305.58330104  4431.44453173
0.31900002 45632.27697129  2847.45421783
0.32000002 44969.15160980  2598.31770304
0.32100002 44315.69895009  2354.49319670
0.32200002 43673.28200150  3385.55298106
0.32300002 43039.17974120  2510.04508136
0.32400002 42416.25689420  2894.90967011
0.32500002 41803.04059731  3475.08692941
0.32600002 41199.77858284  2627.10400573
0.32700002 40606.30890177  1997.83049257
0.32800002 40023.44549496  2370.18855445
0.32900002 39448.26727766  1952.68932271
0.33000002 38884.26233752  2316.72445978
0.33100002 38328.82527565  2672.28582476
0.33200002 37784.36669068  2453.52796725
0.33300002 37248.59508193  2612.61658277
0.33400002 36723.00523300  2214.39732041
0.33500002 36206.25440883  2007.27483948
0.33600002 35698.71797589  2706.85541871
0.33700002 35200.47359738  2498.52973426
0.33800002 34712.52101188  1941.64495475
0.33900002 34232.93101788  2269.64343397
0.34000002 33762.78100035  1899.66296295
0.34100002 33301.78869274  2391.73457718
0.34200002 32850.86479595  1859.19478118
0.34300002 32408.38880749  2341.18211833
0.34400002 31975.69968820  2482.11380585
0.34500002 31551.51543734  1637.52372875
0.34600002 31136.98487184  1944.81616720
0.34700002 30730.51298819  1604.13285396
0.34800002 30333.78746982  1746.77123418
0.34900002 29945.58646372  1729.35770019
0.35000002 29566.62419237  1556.68283746
0.35100002 29197.29620877  1695.77904412
0.35200002 28835.11272965  1679.50122048
0.35300002 28482.99436414  1814.93648684
0.35400002 28139.23087590  1648.25552662
0.35500002 27804.48465021  2375.61528103
0.35600002 27477.79528646  2207.15401093
0.35700002 27159.81434285  1750.17851915
0.35800002 26850.72506687  1735.09393600
0.35900002 26550.70099083  1577.11171356
0.36000002 26258.80742168  1564.10593816
0.36100002 25974.74712650  1551.47171935
0.36200002 25700.58828072  1399.39709817
0.36300002 25433.50928370  1666.40360720
0.36400002 25175.14157380  1378.33906645
0.36500002 24924.29387401  1505.17817835
0.36600002 24682.58768300  1766.40947121
0.36700002 24448.38451749  1754.41615608
0.36800002 24223.06380081  2145.19463181
0.36900002 24005.59420072  1598.77264950
0.37000002 23795.47201550  1456.63988843
0.37100002 23593.11477071  1843.09421320
0.37200002 23399.38786796  1571.03497588
0.37300002 23212.97758699  1562.69772518
0.37400002 23034.21146472  1943.51168440
0.37500002 22863.22290995  1418.43441653
0.37600002 22699.95432486  1925.52371682
0.37700002 22543.88796218  2045.18161281
0.37800002 22395.31093894  1782.44288207
0.37900002 22254.82199819  1522.22989679
0.38000002 22120.76071844  1643.46199543
0.38100002 21993.23242090  1386.23350516
0.38200002 21874.05245366  1759.33012219
0.38300002 21760.91936261  1629.45771907
0.38400002 21655.25062620  1500.70893949
0.38500002 21555.87561533  1248.08525725
0.38600002 21464.08716845  1993.58451065
0.38700002 21378.01605847  1617.46077161
0.38800002 21298.65343959  1615.60943320
0.38900002 21225.73775641  1365.87628933
0.39000002 21159.74632839  1737.42685334
0.39100002 21099.23949075  1488.76240900
0.39200002 21045.36773175  1364.68693522
0.39300002 20997.08258554  1613.20593148
0.39400002 20955.99372778  1365.80695592
0.39500002 20919.39099908  1491.13426106
0.39600002 20888.98868029  1368.33326833
0.39700002 20863.47847150  1370.10469614
0.39800002 20844.63740469  1247.55160778
0.39900002 20830.36201342  1249.82178002
0.40000002 20821.59952242  1628.14505180
0.40100002 20817.83453435  1882.97322285
0.40200002 20819.61097508  1384.40009738
0.40300002 20825.99336347  1388.26078338
0.40400002 20837.18917747  1645.61709326
0.40500002 20852.77390701  1650.91418844
0.40600002 20873.92983013  1401.78882416
0.40700002 20898.97599998  1534.82087016
0.40800002 20928.29510408  1412.34606202
0.40900002 20961.44489381  1675.86759867
0.41000002 20999.48535713  1294.61833361
0.41100002 21041.18669615  1820.48355921
0.41200002 21086.04413283  1567.53659511
0.41300002 21135.99225089  1575.05421717
0.41400002 21188.69450351  1318.99629534
0.41500002 21245.02134251  1590.82727351
0.41600002 21303.87818171  2531.85952247
0.41700002 21367.42018287  1607.68477074
0.41800002 21434.24628512  1751.28517571
0.41900002 21502.44798713  1354.65428738
0.42000002 21574.07120845  1498.64292751
0.42100002 21649.12522630  2329.66247599
0.42200002 21726.62196309  1792.12049755
0.42300002 21806.19755684  1386.87423033
0.42400002 21888.11870168  2093.05145003
0.42500002 21972.73967047  1684.86975777
0.42600002 22058.32662641  1836.68665358
0.42700002 22147.21968375  1848.40704240
0.42800002 22237.24365435  1430.96669697
0.42900002 22329.98396994  1584.31243774
0.43000002 22423.97502439  1594.68105943
0.43100002 22518.12169563  1896.92666153
0.43200002 22615.06064663  1615.73308446
0.43300002 22712.50902259  1626.44284818
0.43400002 22811.59994443  1637.30266360
0.43500002 22911.24139866  1648.23478433
0.43600002 23012.47594359  1659.31465655
0.43700002 23113.89047425  1670.44094373
0.43800002 23215.47266082  1987.36063131
0.43900002 23318.77003298  1692.94278462
0.44000002 23421.78108656  2324.02633845
0.44100002 23525.60436973  1871.69717236
0.44200002 23629.40061054  1570.17374498
0.44300002 23733.51884430  2529.04388790
0.44400002 23837.47012752  1909.38144770
0.44500002 23940.82039320  2082.13324827
0.44600002 24043.99130401  1612.14969334
0.44700002 24147.81564462  2109.55327469
0.44800002 24250.19719429  1796.57594428
0.44900002 24352.64100026  1808.18367996
0.45000002 24454.77692750  2316.11203257
0.45100002 24555.31032311  2164.30515445
0.45200002 24655.55927434  1842.87986530
0.45300002 24754.62014411  2191.52662522
0.45400002 24852.81145873  1865.82490869
0.45500002 24950.26085460  1877.25771567
0.45600002 25046.10810261  1716.91079180
0.45700002 25141.06066899  2072.62913978
0.45800002 25234.28756840  1911.11885957
0.45900002 25326.12142913  2446.50344600
0.46000002 25416.96742170  2284.85839466
0.46100002 25505.38201172  2121.02766862
0.46200002 25592.81600738  1955.16327155
0.46300002 25678.35403188  1787.21352532
0.46400002 25761.57314327  3234.36566143
0.46500002 25844.15543696  1806.50655066
0.46600002 25923.55236302  1997.53942201
0.46700002 26001.15854166  2007.80955775
0.46800002 26077.36640853  3302.17706482
0.46900002 26150.75398651  1843.62824343
0.47000002 26222.10506984  2037.85099209
0.47100002 26291.46423911  2419.86648326
0.47200002 26358.55103698  2618.19499860
0.47300002 26423.20129182  2818.03455134
0.47400002 26484.97483204  2264.46545547
0.47500002 26544.75385784  2274.35461834
0.47600002 26602.65848367  2474.44639614
0.47700002 26656.95180322  2484.69459535
