# SAXS profile: number of points = 501, q_min = 0, q_max = 0.5, delta_q = 0.001
#    q    intensity    error
0.00000000 1682732.95097188 277.65093691
0.00100000 1682650.83811061 504.79526342
0.00200000 1682404.44483503 908.49842898
0.00300000 1681993.98685790 1513.79464210
0.00400000 1681419.32778662 1261.06454376
0.00500000 1680681.00301209 1966.39685136
0.00600000 1679778.90163927 2292.89829409
0.00700000 1678713.57475210 2820.23892279
0.00800000 1677484.88030520 2264.60468402
0.00900000 1676094.00244794 3519.79755560
0.01000000 1674540.37828909 2762.99174348
0.01100000 1672825.26106078 4516.62840152
0.01200000 1670948.54992486 4235.85475978
0.01300000 1668911.43491237 5607.54266862
0.01400000 1666713.93212523 7125.20237570
0.01500000 1664357.46105518 4393.90389284
0.01600000 1661841.42793665 6780.31332909
0.01700000 1659168.15774791 5375.70507225
0.01800000 1656337.40932317 6136.73037768
0.01900000 1653350.08541993 5952.06057608
0.02000000 1650207.29642914 5717.96854078
0.02100000 1646910.92088857 5434.80628534
0.02200000 1643459.68269580 7370.91701177
0.02300000 1639856.75087223 8264.87840060
0.02400000 1636101.59455442 7362.45751120
0.02500000 1632196.94655542 8275.23889697
0.02600000 1628142.52862052 8572.17080526
0.02700000 1623940.72050086 8184.66160619
0.02800000 1619591.30088541 7749.74473014
0.02900000 1615096.76971142 7267.93579740
0.03000000 1610458.56922179 8237.49596021
0.03100000 1605676.91448072 10019.42440738
0.03200000 1600753.34349797 7923.72941527
0.03300000 1595691.68878634 8951.83078677
0.03400000 1590489.91492638 10855.09417023
0.03500000 1585151.50434451 8559.81851874
0.03600000 1579677.67819180 11397.37497487
0.03700000 1574069.97594900 12561.07898899
0.03800000 1568330.18020040 10092.20517665
0.03900000 1562460.40297722 12187.19170761
0.04000000 1556460.38094980 10529.45496505
0.04100000 1550333.98894301 14650.65687481
0.04200000 1544082.38860534 12947.13142911
0.04300000 1537706.18411522 14208.40580075
0.04400000 1531209.15769299 11369.22852388
0.04500000 1524592.47709841 16831.50172924
0.04600000 1517856.29554066 10700.88738101
0.04700000 1511004.79647175 13055.08204868
0.04800000 1504038.43072585 11054.68298019
0.04900000 1496960.94616580 13472.64914261
0.05000000 1489771.99011833 14815.78313164
0.05100000 1482476.10865958 16188.63986069
0.05200000 1475071.57826062 12899.50155302
0.05300000 1467564.39727329 14264.72660649
0.05400000 1459954.72321773 18066.94054235
0.05500000 1452244.92481807 13418.74373129
0.05600000 1444436.27576855 18524.89610118
0.05700000 1436533.78426187 17496.98230904
0.05800000 1428536.17375469 12642.54572804
0.05900000 1420446.47277390 15340.82262246
0.06000000 1412268.20715372 12922.25469917
0.06100000 1404002.85142714 16974.39526699
0.06200000 1395652.43361973 15826.69933704
0.06300000 1387220.32442246 15980.77888453
0.06400000 1378705.12111126 20163.56333924
0.06500000 1370113.29097315 17633.35887967
0.06600000 1361445.29631417 15050.77845496
0.06700000 1352703.05642993 13797.57182130
0.06800000 1343889.57702016 15300.18355056
0.06900000 1335007.65003230 19624.61337428
0.07000000 1326057.83202374 19771.52320134
0.07100000 1317043.51456529 15646.47768588
0.07200000 1307966.72712605 22915.57813277
0.07300000 1298830.48147792 21625.52852988
0.07400000 1289636.81045801 15959.25627733
0.07500000 1280387.55100218 18975.34439527
0.07600000 1271083.92581690 19085.32604087
0.07700000 1261731.01867341 19190.92969386
0.07800000 1252329.07256018 19292.13026752
0.07900000 1242880.15523010 22371.84384346
0.08000000 1233388.88380778 17982.81076951
0.08100000 1223855.70220712 21074.79618080
0.08200000 1214282.45996248 22676.72600391
0.08300000 1204672.47648908 24286.19826582
0.08400000 1195027.74870369 18283.92541339
0.08500000 1185350.43067664 15291.02127357
0.08600000 1175642.96418366 19944.78382381
0.08700000 1165908.45622690 20006.99004834
0.08800000 1156146.53839460 16978.01271368
0.08900000 1146362.82749873 23213.84834720
0.09000000 1136557.04365315 21719.60612450
0.09100000 1126732.22410523 23323.35813474
0.09200000 1116889.81708849 18696.73641656
0.09300000 1107035.20541146 23413.79569472
0.09400000 1097164.87610470 20324.98028506
0.09500000 1087284.99586294 18788.28561161
0.09600000 1077396.47740543 20378.95532809
0.09700000 1067503.68440231 15692.30489845
0.09800000 1057606.66600507 15705.45972861
0.09900000 1047708.05968561 17287.18379770
0.10000000 1037808.32959018 22011.91570577
0.10100000 1027910.70834038 18872.44149273
0.10200000 1018017.54240296 25165.39483189
0.10300000 1008130.03079704 26735.60967440
0.10400000 998251.71191190 15722.46520228
0.10500000 988384.71682376 23572.97660534
0.10600001 978526.44871057 17275.88526488
0.10700001 968684.79228811 25108.31099765
0.10800001 958857.74938400 17245.05743425
0.10900001 949049.27462741 17225.24514520
0.11000001 939259.63733377 23458.01054657
0.11100001 929491.68095845 15615.46097517
0.11200001 919746.50738546 28061.46726138
0.11300001 910026.22019243 17117.59400773
0.11400001 900332.67085353 15530.73930348
0.11500001 890668.40215690 21696.68329820
0.11600001 881033.34086720 18554.56303243
0.11700001 871430.95036799 18509.19425751
0.11800001 861860.12058321 21537.88542777
0.11900001 852323.96909484 19944.38181623
0.12000001 842823.48561904 15297.24698456
0.12100001 833363.46593916 18300.66257413
0.12200001 823941.39680130 16721.89143587
0.12300001 814561.33090941 15150.84146874
0.12400001 805222.02231118 15097.91362971
0.12500001 795926.03430326 16547.30303288
0.12600001 786676.95461808 19482.05569918
0.12700001 777473.52292671 19405.74004677
0.12800001 768317.45430643 16353.63778565
0.12900001 759210.69105899 17765.53100811
0.13000001 750154.50817899 17688.64413661
0.13100001 741148.66158859 16142.21861031
0.13200001 732196.11520070 17528.77582422
0.13300001 723297.53934163 14538.28122614
0.13400001 714452.77885527 17361.20334469
0.13500001 705665.08487779 20153.79577432
0.13600001 696934.14957132 15754.19719388
0.13700001 688261.24095101 21370.51253922
0.13800001 679645.76139381 15587.67627262
0.13900001 671092.12742194 19730.10947664
0.14000001 662597.98806029 14013.94810838
0.14100001 654166.64521275 25080.75036034
0.14200001 645797.17612139 19393.29011362
0.14300001 637492.39896184 22031.73834731
0.14400001 629248.54528088 16423.38780652
0.14500001 621072.62236458 13601.49107140
0.14600001 612961.23773425 14867.37552260
0.14700001 604917.35774557 14772.08257304
0.14800001 596938.22572902 17344.04096683
0.14900001 589027.58032919 15903.74541924
0.15000001 581184.69446908 17112.98413608
0.15100001 573410.92643563 16995.90066150
0.15200001 565707.12875256 16877.87298275
0.15300001 558073.06329069 18048.08371849
0.15400001 550507.19156025 17919.00993090
0.15500001 543013.76069417 13977.17485989
0.15600001 535589.31133716 13874.44176499
0.15700001 528239.34963613 12519.27317725
0.15800001 520957.74546459 13667.32709734
0.15900001 513750.44380338 17262.01572657
0.16000001 506613.01068008 17128.58669960
0.16100001 499550.46612615 13352.98458987
0.16200001 492560.01503418 14451.71152331
0.16300001 485642.20010860 15530.83829265
0.16400001 478798.22992158 17775.38512501
0.16500001 472026.35982590 12928.80260602
0.16600001 465328.73228714 12822.13382354
0.16700001 458703.44217086 12715.26001732
0.16800001 452151.87261760 19485.48587049
0.16900001 445675.03177358 14774.12800090
0.17000001 439270.30335001 16900.92571945
0.17100001 432939.65041759 14520.79656070
0.17200001 426681.99657379 16608.59750094
0.17300001 420497.85854124 16462.49193932
0.17400001 414387.86138968 14140.98643775
0.17500001 408349.72407370 15092.60651455
0.17600001 402383.64382299 10683.28624806
0.17700001 396493.02384111 12703.63708387
0.17800001 390673.04980017 11538.52907084
0.17900001 384925.46694069 11432.28690813
0.18000001 379251.48714355 13385.68187100
0.18100001 373649.62097551 12240.76216137
0.18200001 368117.19827057 13136.26284081
0.18300001 362657.25391456 11010.27474896
0.18400001 357267.85654828 9914.18348757
0.18500001 351949.86659028 12765.22226429
0.18600001 346702.50138282 9725.00562323
0.18700001 341524.14333402 10594.07942674
0.18800001 336414.04766401 10491.07257206
0.18900001 331376.68745060 11333.08324627
0.19000001 326404.15271340 13092.07118392
0.19100001 321502.48266212 11111.12632580
0.19200001 316667.03274970 9167.51103128
0.19300001 311901.19708892 9983.95779058
0.19400001 307200.18777222 11681.28769202
0.19500001 302566.51328363 11564.09268416
0.19600001 297997.55716975 10566.99387660
0.19700001 293495.84262413 12203.55771302
0.19800001 289057.85971634 11216.89077639
0.19900001 284684.50317576 10248.64259868
0.20000001 280373.63963990 10143.91876158
0.20100001 276127.45845566 9203.32862530
0.20200001 271942.62716254 8280.65338847
0.20300001 267820.50877949 9014.83875160
0.20400001 263759.76979880 11354.85862653
0.20500001 259759.36488248 11237.19065596
0.20600001 255818.99506841 10326.13422403
0.20700001 251938.38743948 10218.62147757
0.20800001 248116.30836698 10889.82528899
0.20900001 244354.85474984 10006.33177502
0.21000001 240648.06532222 7616.51162750
0.21100001 236999.89254304 13565.87449047
0.21200001 233406.90610126 9694.55630322
0.21300001 229869.55452207 13281.86348819
0.21400001 226387.54293186 8031.09846519
0.21500001 222961.08135787 8668.72725303
0.21600001 219586.55628842 8577.05129414
0.21700001 216265.78988371 7779.08082991
0.21800001 212997.43217052 9795.75236867
0.21900001 209779.79049321 11768.64680311
0.22000001 206612.64509317 8219.05141042
0.22100001 203497.49443171 8809.40695049
0.22200001 200431.23965387 8045.31034012
0.22300001 197413.42529028 7296.40054374
0.22400001 194443.33091239 9187.44782005
0.22500001 191522.97611340 9738.94379589
0.22600001 188647.33370609 8350.47462138
0.22700001 185819.02554807 10168.01755883
0.22800001 183035.35342669 6915.99115628
0.22900001 180296.18237134 6842.24044457
0.23000001 177601.86037897 7384.68570379
0.23100001 174951.83841872 7305.98911789
0.23200001 172342.98010739 6625.72618358
0.23300001 169777.35096880 6555.10383093
0.23400001 167252.03861478 8253.88849601
0.23500001 164767.40836810 6416.04318531
0.23600001 162323.54485162 8078.84320937
0.23700001 159918.85620988 6850.92412407
0.23800001 157552.78759366 7907.57478334
0.23900001 155225.01670348 6146.91095220
0.24000001 152934.24848903 5528.57334438
0.24100001 150681.41995028 8204.60370438
0.24200001 148464.90644168 5411.54609578
0.24300001 146283.28516554 5889.36533935
0.24400001 144136.68629521 5826.72581911
0.24500001 142024.09695799 6812.89625335
0.24600001 139945.60376016 5184.98486459
0.24700001 137900.86326229 5129.91235603
0.24800001 135888.38496559 5582.97456042
0.24900001 133906.61970730 7030.09786721
0.25000001 131957.69917275 5465.02836978
0.25100001 130038.79554553 7373.20005625
0.25200001 128151.93096216 5349.70261111
0.25300001 126293.14985394 6255.30000821
0.25400001 124464.70896969 6189.00794633
0.25500001 122663.29782168 5652.32503105
0.25600001 120891.51162544 7922.62558921
0.25700001 119146.23246394 5072.05535597
0.25800001 117428.18354181 7299.33623432
0.25900001 115737.71677010 8576.16521844
0.26000001 114072.22226058 4912.52048409
0.26100001 112432.10073787 4860.43994488
0.26200001 110818.19445811 4371.77797823
0.26300001 109227.64456116 6488.12239394
0.26400001 107662.04049395 4707.52294335
0.26500001 106120.11741237 5504.45075064
0.26600001 104601.15573229 6283.91472797
0.26700001 103105.20455397 4973.79530304
0.26800001 101632.02324643 5741.19326487
0.26900001 100179.80260550 4463.01041727
0.27000001 98749.94997236  4817.02278760
0.27100001 97340.85521582  4765.80849690
0.27200001 95953.27687829  5501.00162376
0.27300001 94585.77773581  3887.47564891
0.27400001 93236.89932889  4999.82896313
0.27500001 91909.66669093  4566.07245730
0.27600001 90599.56690413  4517.29461963
0.27700001 89310.31020957  3724.24011199
0.27800001 88038.49071812  3684.41101093
0.27900001 86785.31051048  4373.97985674
0.28000001 85549.59837347  4687.69046474
0.28100001 84331.78760909  3567.23478470
0.28200001 83131.56787064  5293.40283470
0.28300001 81948.13463669  3840.08977083
0.28400001 80780.80516246  4144.05550098
0.28500001 79630.55020328  4099.38091849
0.28600001 78496.17392551  4055.11253693
0.28700001 77378.26474402  3677.01531468
0.28800001 76274.36806854  3637.14341351
0.28900001 75187.74175692  3924.80030549
0.29000001 74115.02263384  3882.14506932
0.29100001 73058.07585570  3839.93264874
0.29200001 72015.13634813  4114.58501002
0.29300001 70987.11491443  3443.58510750
0.29400001 69972.43619885  4644.42067255
0.29500001 68973.01995688  4287.36312347
0.29600001 67986.16434727  3028.78376505
0.29700001 67013.37117626  4193.69696673
0.29800001 66054.27086287  4443.80128266
0.29900001 65108.73192997  3515.87169066
0.30000001 64175.02897415  2897.50269535
0.30100001 63255.57307589  3438.57311519
0.30200001 62347.65056912  3400.44102302
0.30300001 61453.20770773  3362.71968496
0.30400001 60570.95370046  2771.12126299
0.30500001 59701.38162713  2740.29354642
0.30600001 58842.76263052  4064.56402113
0.30700001 57996.92705017  3215.34978789
0.30800001 57162.80397735  2914.44569877
0.30900001 56340.58736875  3405.78866769
0.31000001 55530.03038141  3626.66645591
0.31100001 54730.36352518  3329.79547452
0.31200001 53943.01944953  3292.41234798
0.31300001 53166.10770328  2504.12379139
0.31400001 52401.81340194  2971.18296057
0.31500001 51647.02027409  4161.71709073
0.31600002 50904.74497665  3146.67695972
0.31700002 50172.47503160  3829.16347572
0.31800002 49450.84674717  2839.46775467
0.31900002 48740.74928640  2339.55607652
0.32000002 48041.36764507  2313.19196164
0.32100002 47351.95031630  2287.09930857
0.32200002 46674.24498478  3165.91418722
0.32300002 46005.28102807  3130.19946937
0.32400002 45348.00897101  2431.78709622
0.32500002 44700.44523830  2185.85187566
0.32600002 44063.46830363  2809.70718943
0.32700002 43436.88363856  2564.51373146
0.32800002 42821.14527961  2535.86834354
0.32900002 42213.60720382  2298.53102109
0.33000002 41617.53523555  2479.57286675
0.33100002 41030.35363286  2043.31170768
0.33200002 40454.69286150  2424.85440495
0.33300002 39888.00797163  2797.74501162
0.33400002 39331.83809571  2371.70994949
0.33500002 38785.06363741  2736.67421985
0.33600002 38247.75430115  1933.42407148
0.33700002 37720.07155138  3251.09312098
0.33800002 37202.96827821  2837.65653980
0.33900002 36694.64097650  2432.85481196
0.34000002 36195.96181285  2221.70824129
0.34100002 35707.16345514  2198.13308640
0.34200002 35228.34687770  2537.49794577
0.34300002 34758.25435851  2152.23121181
0.34400002 34298.44628775  2662.41701918
0.34500002 33847.49455143  1932.35355546
0.34600002 33406.60042750  2086.57636152
0.34700002 32973.74347597  1893.35244006
0.34800002 32551.16073370  2385.67468316
0.34900002 32137.16444048  2024.64145564
0.35000002 31732.88862216  2004.88399810
0.35100002 31338.40028353  1820.13437467
0.35200002 30951.39977132  1802.76436506
0.35300002 30574.71520857  2272.92443626
0.35400002 30206.40708882  1769.34037903
0.35500002 29847.51913289  2072.01487634
0.35600002 29497.02304462  2369.34848828
0.35700002 29155.46266817  1722.21326138
0.35800002 28822.99923832  1707.33044075
0.35900002 28499.75780678  2000.68309280
0.36000002 28185.02775464  1984.08512277
0.36100002 27878.21355991  2270.68060201
0.36200002 27581.72410709  1501.82494877
0.36300002 27292.16716963  2086.21335726
0.36400002 27011.80841233  1478.89658063
0.36500002 26739.08188133  1908.36836427
0.36600002 26475.66968099  1748.98282197
0.36700002 26219.99906251  1881.54722185
0.36800002 25973.38849579  2012.67796988
0.36900002 25734.79810042  1713.93763468
0.37000002 25503.59434121  1845.05762001
0.37100002 25280.52441498  1551.71866210
0.37200002 25066.15929747  1542.69684704
0.37300002 24859.39207157  2510.30153030
0.37400002 24660.29563168  1664.57003399
0.37500002 24469.15741980  1518.06659824
0.37600002 24285.93724704  1785.38076129
0.37700002 24110.19001066  1777.16218987
0.37800002 23941.79614457  1633.30941036
0.37900002 23781.86579941  1762.23633922
0.38000002 23628.35208021  1755.46850096
0.38100002 23481.62840406  1480.04710842
0.38200002 23343.26683755  1475.17781768
0.38300002 23211.36281192  1738.06692970
0.38400002 23086.80002029  1733.24159363
0.38500002 22968.61469733  1728.84771017
0.38600002 22858.25624544  1857.69057307
0.38700002 22753.74727230  2251.25586178
0.38800002 22655.94260172  1586.36917613
0.38900002 22564.78211791  1584.04777972
0.39000002 22480.62092725  1450.33732783
0.39100002 22401.94903866  2107.57546541
0.39200002 22330.44888085  1316.38002389
0.39300002 22264.24528537  1710.56204632
0.39400002 22205.47611582  1710.37687885
0.39500002 22151.23502411  1710.51844960
0.39600002 22103.18871485  1711.11843543
0.39700002 22060.34344589  1317.00256612
0.39800002 22024.19227349  1318.14797002
0.39900002 21992.59584170  1583.46697562
0.40000002 21966.70521331  1717.68659554
0.40100002 21945.78531147  1984.99637547
0.40200002 21930.54169702  1458.27143924
0.40300002 21920.06195837  1726.86256290
0.40400002 21914.55179500  1996.96362694
0.40500002 21913.34583051  1734.87967160
0.40600002 21917.81037841  1471.89062570
0.40700002 21926.19913281  1476.07179556
0.40800002 21938.99998874  1480.55348439
0.40900002 21955.86172910  1350.28556032
0.41000002 21977.48765150  1354.91217791
0.41100002 22002.98883887  1495.76325214
0.41200002 22031.52434822  2320.25009667
0.41300002 22065.39003892  1370.26078634
0.41400002 22102.00358150  1926.18970340
0.41500002 22142.31618066  1519.84865466
0.41600002 22185.09023848  1665.21295220
0.41700002 22232.68472829  1533.38833837
0.41800002 22283.80193156  1540.59071954
0.41900002 22336.19955332  1829.33483010
0.42000002 22392.17750890  1696.87929203
0.42100002 22451.73697989  1563.31451999
0.42200002 22513.49016950  1714.17722273
0.42300002 22577.56489981  1866.71315437
0.42400002 22644.02645819  1876.62378165
0.42500002 22713.38393971  1596.52383277
0.42600002 22783.68978659  1897.08401998
0.42700002 22857.27010842  1614.18049155
0.42800002 22932.03877885  1623.24444188
0.42900002 23009.58655055  1484.11840284
0.43000002 23088.57756545  1791.21193241
0.43100002 23167.73486715  1801.52314864
0.43200002 23249.66495210  1963.08555326
0.43300002 23332.23293212  1822.71412303
0.43400002 23416.50651348  1680.71983465
0.43500002 23501.40314840  2459.18694199
0.43600002 23588.00157806  2319.29036507
0.43700002 23674.65910947  2333.13776580
0.43800002 23761.76938640  1721.18384707
0.43900002 23850.45777611  1888.95634538
0.44000002 23939.02224410  2216.99295509
0.44100002 24028.40799142  1752.39187786
0.44200002 24117.86682041  1923.15879140
0.44300002 24207.66816077  1773.45385350
0.44400002 24297.42289780  1946.22366635
0.44500002 24386.62891644  2610.34488292
0.44600002 24475.64548696  1805.20131844
0.44700002 24565.55579339  1815.88597030
0.44800002 24653.87080617  1992.52593298
0.44900002 24742.54116508  1670.12160779
0.45000002 24830.80966891  1847.78478908
0.45100002 24917.66869837  1858.35981960
0.45200002 25004.30903088  1699.04287917
0.45300002 25089.62947898  2050.32461819
0.45400002 25174.31668101  2233.59135338
0.45500002 25258.39491200  1727.67429386
0.45600002 25340.83150525  1910.82549021
0.45700002 25422.51749716  2270.48514528
0.45800002 25502.45742627  2107.01313242
0.45900002 25581.07797446  2294.62280306
0.46000002 25658.82545797  1774.30786451
0.46100002 25734.15275007  2140.05224412
0.46200002 25808.61942749  2509.37218587
0.46300002 25881.43713420  2161.61773190
0.46400002 25951.86404965  1991.15686358
0.46500002 26021.67248800  2546.48099037
0.46600002 26088.54507035  1827.50266879
0.46700002 26153.56349171  2019.57826855
0.46800002 26217.40031400  1844.39419951
0.46900002 26278.32648181  2408.40873621
0.47000002 26337.38451864  2418.95719577
0.47100002 26394.60470000  2616.23334187
0.47200002 26449.60058244  2064.25917530
0.47300002 26502.29146676  3014.90082016
0.47400002 26552.09076742  2270.20386822
0.47500002 26600.00064374  2279.08816318
0.47600002 26646.20825885  1906.53629129
0.47700002 26688.83613880  1913.58964185
