# SAXS profile: number of points = 501, q_min = 0, q_max = 0.5, delta_q = 0.001
#    q    intensity    error
0.00000000 1682732.95097188 302.89193117
0.00100000 1682650.82694464 504.79526007
0.00200000 1682404.40191695 832.79020532
0.00300000 1681993.88368830 1311.95527601
0.00400000 1681419.13525547 1513.27727923
0.00500000 1680680.71809177 1966.39651800
0.00600000 1679778.48827361 1763.76748449
0.00700000 1678712.99529615 2618.79238150
0.00800000 1677484.12066505 3170.44512191
0.00900000 1676093.05496732 3268.38159690
0.01000000 1674539.19443095 3039.28876913
0.01100000 1672823.84262325 3312.19135260
0.01200000 1670946.83972157 4235.85042441
0.01300000 1668909.45003188 5607.53599943
0.01400000 1666711.64911451 4875.13178978
0.01500000 1664354.84206888 5991.67769825
0.01600000 1661838.41478516 5508.99459128
0.01700000 1659164.76329682 7167.59209897
0.01800000 1656333.62306210 5192.60614195
0.01900000 1653345.87444638 4960.03784715
0.02000000 1650202.61558129 6757.58001649
0.02100000 1646905.76528068 5434.78927183
0.02200000 1643454.02908543 7937.88332112
0.02300000 1639850.55507925 7084.15472040
0.02400000 1636094.90817518 6748.89180396
0.02500000 1632189.72344590 9548.31031824
0.02600000 1628134.69400523 9890.91871848
0.02700000 1623932.27048375 8184.61901810
0.02800000 1619582.21400284 9863.25613560
0.02900000 1615087.04840555 7267.89205152
0.03000000 1610448.14698359 8986.30107323
0.03100000 1605665.84260982 9248.63567899
0.03200000 1600741.57056261 7923.67113923
0.03300000 1595679.16147394 10579.35332829
0.03400000 1590476.68349832 13360.00475782
0.03500000 1585137.47211417 13695.58839150
0.03600000 1579662.79827274 9643.84182913
0.03700000 1574054.36197856 9869.32130604
0.03800000 1568313.76939521 10092.09957312
0.03900000 1562443.10184286 11249.59085424
0.04000000 1556442.25696783 12443.75642109
0.04100000 1550314.92320623 11720.38136287
0.04200000 1544062.36472406 9959.20271451
0.04300000 1537685.29833467 15223.08516014
0.04400000 1531187.33469301 15503.27248377
0.04500000 1524569.74482529 15779.29759213
0.04600000 1517832.54423918 13910.93591463
0.04700000 1510980.10112431 13054.86868087
0.04800000 1504012.57142107 12159.94220572
0.04900000 1496934.17904865 14595.10892509
0.05000000 1489744.18505149 14815.50661024
0.05100000 1482447.28620915 16188.32511952
0.05200000 1475041.61916563 11726.58141884
0.05300000 1467533.40404149 13075.72323957
0.05400000 1459922.64415768 18066.54356396
0.05500000 1452211.69913364 12198.57884178
0.05600000 1444401.93241199 12349.63709841
0.05700000 1436498.23137919 12497.53519637
0.05800000 1428499.59515134 18963.33301108
0.05900000 1420408.60143052 12783.67800995
0.06000000 1412229.26230656 12921.89835380
0.06100000 1403962.67149608 15668.22414609
0.06200000 1395611.05080646 14507.37755126
0.06300000 1387177.64306501 13316.90599606
0.06400000 1378661.20290725 16130.33682838
0.06500000 1370068.25006100 14920.04394109
0.06600000 1361398.92757190 19154.88380717
0.06700000 1352655.46206872 15176.79499467
0.06800000 1343840.68292790 18081.37723517
0.06900000 1334957.52151904 15418.76009543
0.07000000 1326006.37556414 18358.55912939
0.07100000 1316990.76593142 14223.50093826
0.07200000 1307912.65354218 14321.64422721
0.07300000 1298775.15485819 20182.96685218
0.07400000 1289580.10640869 20310.88762779
0.07500000 1280329.59067422 14595.75801783
0.07600000 1271024.46239566 20552.46652045
0.07700000 1261670.36800922 16237.69839764
0.07800000 1252267.01574532 14839.36483249
0.07900000 1242816.83102326 17896.56320615
0.08000000 1233324.05942168 20978.84323490
0.08100000 1223789.60683547 18063.13544438
0.08200000 1214215.00849971 16628.67532171
0.08300000 1204603.58246009 16695.80643646
0.08400000 1194957.55280439 22853.56427010
0.08500000 1185278.95176726 16819.10911515
0.08600000 1175569.99607330 16875.30808595
0.08700000 1165834.03555881 16927.91099121
0.08800000 1156070.75609124 16976.89985050
0.08900000 1146285.65037870 20117.31410905
0.09000000 1136478.45139209 18615.51790828
0.09100000 1126652.29343709 15547.80237989
0.09200000 1116808.48896716 23369.21872968
0.09300000 1106952.54085782 24972.85049528
0.09400000 1097080.85835357 15633.40296627
0.09500000 1087199.50250676 28180.21242952
0.09600000 1077309.71200502 20377.31416047
0.09700000 1067415.49345174 17260.10934056
0.09800000 1057517.14807193 25126.60861958
0.09900000 1047617.12134137 17285.68331495
0.10000000 1037715.99718358 17293.53790633
0.10100000 1027816.95533332 18870.72018744
0.10200000 1017922.47561045 18872.28358550
0.10300000 1008033.73011302 15725.32692949
0.10400000 998153.82939069 18865.10826299
0.10500000 988285.61437798 20427.86461031
0.10600001 978426.04462425 26696.35588373
0.10700001 968582.99646253 17260.14980918
0.10800001 958754.66730839 20378.33141268
0.10900001 948944.94729084 18789.11084068
0.11000001 939153.99737885 17200.60627162
0.11100001 929384.81400521 20297.76529336
0.11200001 919638.24300997 21823.01653399
0.11300001 909916.73316524 20227.44993059
0.11400001 900221.96657447 24846.12744732
0.11500001 890556.40139657 23243.52317094
0.11600001 880920.02957091 18552.17669641
0.11700001 871316.38516529 16964.53081811
0.11800001 861744.47092207 24611.42324869
0.11900001 852207.17094810 16873.70277955
0.12000001 842705.44113322 22942.65671556
0.12100001 833244.28188185 15248.37107676
0.12200001 823820.87538959 16719.44545371
0.12300001 814439.67548115 18178.29441320
0.12400001 805099.39031838 16605.17570771
0.12500001 795802.32653713 19552.86408436
0.12600001 786552.03554047 16482.19868145
0.12700001 777347.46351227 17910.08640336
0.12800001 768190.60041187 14864.48881852
0.12900001 759082.72033479 16282.32511860
0.13000001 750025.32453238 25054.59714695
0.13100001 741018.54592471 20541.03506129
0.13200001 732064.99705186 18986.10659355
0.13300001 723165.63167793 18896.31884657
0.13400001 714319.76016772 23143.96132057
0.13500001 705531.15542490 21589.25437390
0.13600001 696799.34482972 17183.07265370
0.13700001 688125.44714591 19941.87639861
0.13800001 679509.16292142 19834.87340100
0.13900001 670954.58978474 15499.05175493
0.14000001 662459.79281422 15412.12780667
0.14100001 654027.63927197 16716.94724821
0.14200001 645657.48226523 16619.22437736
0.14300001 637351.69992342 16520.15684123
0.14400001 629107.13091956 16419.69689152
0.14500001 620930.50326434 23117.24372702
0.14600001 612818.36342462 17566.43921625
0.14700001 604773.97017693 17453.77760271
0.14800001 596794.15445599 14672.18497951
0.14900001 588882.85610078 14574.85137615
0.15000001 581039.52774338 14476.60051677
0.15100001 573265.02917724 20912.70925115
0.15200001 565560.82632656 14277.58373433
0.15300001 557926.21986108 16754.52517306
0.15400001 550359.90517958 16634.62891906
0.15500001 542865.92906468 15243.67600753
0.15600001 535441.09926992 18914.45772438
0.15700001 528090.67871035 16270.47457898
0.15800001 520808.57361568 18631.92760050
0.15900001 513601.11457547 16024.35553111
0.16000001 506463.26099645 17123.52366256
0.16100001 499400.51731886 15776.06308680
0.16200001 492409.83546705 18059.13156825
0.16300001 485491.82796144 17914.64929749
0.16400001 478647.63980264 16585.14150214
0.16500001 471875.60161563 11749.70303495
0.16600001 465177.73048759 15148.51350854
0.16700001 458552.39164146 12711.07289645
0.16800001 452000.71557603 17187.32802130
0.16900001 445523.76089974 15905.19901513
0.17000001 439118.94772568 18021.44246563
0.17100001 432788.34078534 13399.12766344
0.17200001 426530.75497856 16602.71042157
0.17300001 420346.79339751 12068.15700835
0.17400001 414236.81510346 10873.71690999
0.17500001 408198.80284846 14009.38357539
0.17600001 402232.91155575 17086.85488989
0.17700001 396342.36009915 10582.34151446
0.17800001 390522.74483827 11534.08981358
0.17900001 384775.26750050 12466.71925586
0.18000001 379101.54248849 12351.12883768
0.18100001 373500.09937882 11216.20851416
0.18200001 367967.97052777 10100.72126812
0.18300001 362508.32610615 17008.89146439
0.18400001 357119.50113729 13874.09327461
0.18500001 351801.92264614 12759.85633718
0.18600001 346554.97388752 10692.95422447
0.18700001 341377.08738146 10589.51775087
0.18800001 336267.52815363 9533.18487356
0.18900001 331230.71054856 10384.08326632
0.19000001 326258.76872785 11216.77699884
0.19100001 321357.76798854 12031.63540199
0.19200001 316522.98813067 10996.00912724
0.19300001 311757.77110085 13608.22735158
0.19400001 307057.47786748 11675.86114764
0.19500001 302424.58390004 9780.41150550
0.19600001 297856.24721444 13202.47878168
0.19700001 293355.40293821 10455.18705480
0.19800001 288918.24209272 10349.05192084
0.19900001 284545.76899531 11950.92286260
0.20000001 280235.76833783 10983.84145911
0.20100001 275990.51389900 9198.76426301
0.20200001 271806.68272530 10759.46804421
0.20300001 267685.43215176 13105.87937759
0.20400001 263625.65825938 8106.48937464
0.20500001 259626.35067994 8824.70007673
0.20600001 255687.01698761 7939.08225273
0.20700001 251807.57513761 8642.03638722
0.20800001 247986.56847852 10106.69307609
0.20900001 244226.28026671 9231.75383048
0.21000001 240520.56082570 9896.21894299
0.21100001 236873.64532241 10545.61518828
0.21200001 233281.87710702 8944.02759111
0.21300001 229745.76246147 8112.32325603
0.21400001 226265.01603278 9486.16124565
0.21500001 222839.87384980 7942.01347949
0.21600001 219466.55427718 9286.72768330
0.21700001 216147.26263173 7068.01582223
0.21800001 212880.19740309 8391.73777840
0.21900001 209663.88607081 8302.69028097
0.22000001 206498.19851651 7529.95716494
0.22100001 203384.45811835 7449.97305314
0.22200001 200319.65870390 6700.69290048
0.22300001 197303.40079981 9281.15241249
0.22400001 194334.80177376 8526.43983101
0.22500001 191415.93772923 11031.30101298
0.22600001 188541.84365265 7703.82009595
0.22700001 185715.11359277 6351.45718523
0.22800001 182933.05835932 8168.87610734
0.22900001 180195.49548627 6216.74488827
0.23000001 177502.68603105 7380.56203421
0.23100001 174854.29920123 7910.40886997
0.23200001 172247.14520313 6020.03800956
0.23300001 169683.16826909 8338.23128310
0.23400001 167159.54432460 7660.08648096
0.23500001 164676.66371188 5829.55417112
0.23600001 162234.49606904 6344.18026884
0.23700001 159831.64620754 6276.58904344
0.23800001 157467.15170457 7903.27671787
0.23900001 155141.22423225 8936.13493845
0.24000001 152852.20060576 7735.85023857
0.24100001 150601.19620316 6013.50604884
0.24200001 148386.52835778 7572.16490028
0.24300001 146206.62511225 8561.86037157
0.24400001 144061.96434865 5294.27744025
0.24500001 141951.22083811 5761.80032638
0.24600001 139874.50324689 5700.58564949
0.24700001 137831.62814074 5640.07049033
0.24800001 135821.07901439 7609.37631176
0.24900001 133841.13206943 6022.85122805
0.25000001 131894.08548210 5462.39380866
0.25100001 129977.07876256 7369.70071449
0.25200001 128092.05428754 5833.31242823
0.25300001 126235.27385280 5771.47699360
0.25400001 124408.73054851 5710.36100234
0.25500001 122609.23816078 7062.29245219
0.25600001 120839.32179296 5590.02729062
0.25700001 119096.00206868 5069.91704794
0.25800001 117379.78059424 5472.24563022
0.25900001 115691.25324551 6767.93863509
0.26000001 114027.70912074 4910.60352563
0.26100001 112389.52236700 4858.59928182
0.26200001 110777.60655244 4370.17678528
0.26300001 109188.92156591 4756.26964847
0.26400001 107625.22216878 5989.34389710
0.26500001 106085.27362643 5079.36314158
0.26600001 104568.13474649 4606.74939425
0.26700001 103074.12114133 4972.29583915
0.26800001 101602.91405802 6149.51666436
0.26900001 100152.58386286 5273.03378991
0.27000001 98724.59840486  4013.15511507
0.27100001 97317.43127543  4367.60652233
0.27200001 95931.74287274  6285.44809047
0.27300001 94566.13063419  3886.66815300
0.27400001 93219.07673038  4229.81580682
0.27500001 91893.72874440  6467.48093511
0.27600001 90585.49968523  4140.21045905
0.27700001 89298.09003494  4840.84968990
0.27800001 88028.03844042  3683.97358308
0.27900001 86776.75700390  4373.54875999
0.28000001 85542.86907543  4326.75852261
0.28100001 84326.86896724  5707.24276182
0.28200001 83128.34935463  3528.79859712
0.28300001 81946.78409733  5236.39975166
0.28400001 80781.19534152  4144.07551716
0.28500001 79632.71631172  4099.49242976
0.28600001 78500.05601043  4731.19859969
0.28700001 77383.88765399  4011.58092586
0.28800001 76281.69100244  3637.49260763
0.28900001 75196.72691336  3271.05777556
0.29000001 74125.67742576  3882.70316735
0.29100001 73070.38791419  3520.53145635
0.29200001 72029.12527967  3482.24822648
0.29300001 71002.69077786  3757.46257383
0.29400001 69989.59661271  4026.15173573
0.29500001 68991.79086302  4594.85348898
0.29600001 68006.44564443  3332.65602657
0.29700001 67035.21184791  2996.47411145
0.29800001 66077.63993939  3259.94052073
0.29900001 65133.59616976  3517.21435967
0.30000001 64201.32630822  4058.16602805
0.30100001 63283.34072784  3153.40901775
0.30200001 62376.82791385  3118.52965919
0.30300001 61483.79511041  3925.12566567
0.30400001 60602.90037804  3604.35767062
0.30500001 59734.69888229  3564.36965105
0.30600001 58877.35314574  2982.43246479
0.30700001 58032.92126108  2949.23319811
0.30800001 57200.03524463  3711.71046275
0.30900001 56379.12584395  3145.95537104
0.31000001 55569.77517364  3888.49520188
0.31100001 54771.34746116  2819.62910080
0.31200001 53985.12031517  2788.06167068
0.31300001 53209.36542188  3508.62572204
0.31400001 52446.20307711  2478.08321272
0.31500001 51692.52372096  2940.27088846
0.31600002 50951.27635579  2907.27996651
0.31700002 50220.08575640  3593.24730600
0.31800002 49499.47110364  2368.54980446
0.31900002 48790.35051215  2810.32432257
0.32000002 48091.91364514  2778.75090199
0.32100002 47403.39718621  2747.50103101
0.32200002 46726.56035773  2943.07254349
0.32300002 46058.49097003  2462.28704385
0.32400002 45402.07179455  3541.36176766
0.32500002 44755.31914594  2845.09577283
0.32600002 44119.08240403  3678.86986046
0.32700002 43493.25469247  3209.80234830
0.32800002 42878.26800915  2539.25115174
0.32900002 42271.37693034  2301.67658285
0.33000002 41675.95339129  2689.97453902
0.33100002 41089.37229930  2455.50100489
0.33200002 40514.32901730  2428.42899629
0.33300002 39948.24993263  2201.54815804
0.33400002 39392.53959345  2375.37024997
0.33500002 38846.30595774  1957.85391299
0.33600002 38309.46895051  2323.85249659
0.33700002 37782.19703103  2298.66897623
0.33800002 37265.49453882  3031.92077926
0.33900002 36757.54304283  1874.63478396
0.34000002 36259.29015808  1854.66277942
0.34100002 35770.74357019  2202.04707847
0.34200002 35292.18951958  2542.09653149
0.34300002 34822.41552600  1976.52039886
0.34400002 34362.75837688  2311.75467929
0.34500002 33912.05717271  2816.05736099
0.34600002 33471.24535458  1916.39624354
0.34700002 33038.57764755  2759.38213581
0.34800002 32616.03800058  1878.19463722
0.34900002 32202.21277963  2028.73950120
0.35000002 31797.95353795  2176.41103298
0.35100002 31403.47400756  1823.91385674
0.35200002 31016.41743163  2135.01519503
0.35300002 30639.71705929  1952.36286349
0.35400002 30271.33023233  1934.33809346
0.35500002 29912.31785378  2395.97677357
0.35600002 29561.73810852  2216.24361097
0.35700002 29219.94120279  1882.93310029
0.35800002 28887.34405005  2333.37532616
0.35900002 28563.93465069  1542.45254420
0.36000002 28248.89775736  1988.58125182
0.36100002 27941.89453589  1517.24494517
0.36200002 27645.04035114  1956.85427394
0.36300002 27355.16504003  1792.31049832
0.36400002 27074.44972154  1927.02405021
0.36500002 26801.36696240  1765.67413912
0.36600002 26537.54113912  1460.89170891
0.36700002 26281.47682972  1885.95886664
0.36800002 26034.41494044  1585.10542873
0.36900002 25795.28575917  1717.96611294
0.37000002 25563.65787745  2133.92644240
0.37100002 25340.06521323  1696.77084705
0.37200002 25125.19853423  1686.90590950
0.37300002 24917.85443036  2516.20505957
0.37400002 24718.14230599  1529.43512763
0.37500002 24526.42824433  1383.29061851
0.37600002 24342.53596094  1514.22752118
0.37700002 24166.15294605  1644.26512434
0.37800002 23997.11066695  1773.50654786
0.37900002 23836.45690623  1358.67810802
0.38000002 23682.35122517  1894.82501129
0.38100002 23534.85513171  1618.25671552
0.38200002 23395.72082258  1478.49264742
0.38300002 23263.05883801  1741.93792831
0.38400002 23137.74748648  1469.82547871
0.38500002 23018.71628071  1732.61885653
0.38600002 22907.59106315  1462.76429664
0.38700002 22802.23150442  1857.92591100
0.38800002 22703.60080140  2119.60827124
0.38900002 22611.60316486  1587.33461737
0.39000002 22526.57114477  1717.53849830
0.39100002 22447.01434825  1451.87295683
0.39200002 22374.61919413  2110.37418237
0.39300002 22307.50055676  1713.88534897
0.39400002 22247.82862633  1713.63908113
0.39500002 22192.68191162  1450.06990481
0.39600002 22143.66837662  1450.52106573
0.39700002 22099.90615731  1319.36446010
0.39800002 22062.82031081  1584.55182980
0.39900002 22030.26355382  1586.17905103
0.40000002 22003.38143719  1455.85380177
0.40100002 21981.49790431  1723.12970236
0.40200002 21965.25437742  1460.57965903
0.40300002 21953.80845434  1862.56119751
0.40400002 21947.29163434  1333.29802996
0.40500002 21945.12624068  1603.74990166
0.40600002 21948.57339903  1607.95256340
0.40700002 21955.90896351  1343.70169223
0.40800002 21967.69226975  1886.80517845
0.40900002 21983.52472239  1622.38420138
0.41000002 22004.15378789  1627.86737436
0.41100002 22028.64490520  1633.64438358
0.41200002 22056.18059910  1639.65654343
0.41300002 22089.03772928  1371.72930798
0.41400002 22124.61212149  1652.70860379
0.41500002 22163.94140490  1936.24201288
0.41600002 22205.66458371  1805.65370118
0.41700002 22252.31331511  2232.35217755
0.41800002 22302.38323822  1401.70485294
0.41900002 22353.78181772  1971.60364975
0.42000002 22408.73532814  1556.62287333
0.42100002 22467.28121996  1706.61476234
0.42200002 22528.12796205  2287.05565908
0.42300002 22591.20371428  1436.80062431
0.42400002 22656.66013389  1733.23458237
0.42500002 22725.02846147  2178.19408125
0.42600002 22794.36849966  1897.97318306
0.42700002 22866.98538508  1614.86658442
0.42800002 22940.81333181  1623.86554864
0.42900002 23017.44191363  1633.08758116
0.43000002 23095.47865082  1493.12276553
0.43100002 23173.70888394  2102.31896957
0.43200002 23254.73228507  1661.43442684
0.43300002 23336.38133579  2278.79774543
0.43400002 23419.79444286  1833.76999178
0.43500002 23503.78139684  1844.57685144
0.43600002 23589.51739932  2474.06870208
0.43700002 23675.34690658  1711.01740202
0.43800002 23761.54826327  2034.10743547
0.43900002 23849.45328485  2518.50238623
0.44000002 23937.20588386  2058.48011753
0.44100002 24025.76309594  2070.78061937
0.44200002 24114.44407228  1602.40488454
0.44300002 24203.50435347  1934.34415960
0.44400002 24292.44801433  1783.67307998
0.44500002 24380.95395932  1957.30307661
0.44600002 24469.23223651  1804.72830913
0.44700002 24558.44254412  1980.39290061
0.44800002 24646.07478161  2655.86114433
0.44900002 24734.02652721  1836.50155668
0.45000002 24821.66639475  1847.10439230
0.45100002 24907.88075816  2026.50527452
0.45200002 24993.87254494  2207.83383589
0.45300002 25078.56666396  2049.42056491
0.45400002 25162.71589084  2232.56207322
0.45500002 25246.19605069  2417.57584839
0.45600002 25328.03738199  2257.10815827
0.45700002 25409.16891770  1920.17098611
0.45800002 25488.60543340  2983.31396434
0.45900002 25566.73988191  2469.74718964
0.46000002 25644.02719037  1950.61302068
0.46100002 25718.90436464  2138.78418833
0.46200002 25792.92597254  1791.31879369
0.46300002 25865.27677219  1980.24568353
0.46400002 25935.36241134  1808.99161393
0.46500002 26004.77814882  2181.28089451
0.46600002 26071.27729516  2374.18097941
0.46700002 26135.96634868  2018.21941710
0.46800002 26199.46854206  3133.32558880
0.46900002 26260.11770614  2221.60606324
0.47000002 26318.87861615  2045.37174860
0.47100002 26375.81224460  2240.88911451
0.47200002 26430.58457487  2625.35009026
0.47300002 26483.06769102  2447.83006270
0.47400002 26532.61561801  2079.49384762
0.47500002 26580.34223019  2087.62017771
0.47600002 26626.40062176  2095.63096026
0.47700002 26668.88634170  2103.37516547
