# SAXS profile: number of points = 501, q_min = 0, q_max = 0.5, delta_q = 0.001
#    q    intensity    error
0.00000000 1664650.74656090 299.63713438
0.00100000 1664569.06945953 649.18195251
0.00200000 1664323.97987104 898.73497759
0.00300000 1663915.68952043 1397.68922899
0.00400000 1663344.06979627 1871.26214962
0.00500000 1662609.65609450 1945.25337463
0.00600000 1661712.32061860 1919.27780845
0.00700000 1660652.61936028 2989.17483908
0.00800000 1659430.42548285 2240.23116898
0.00900000 1658046.92889711 3233.19164956
0.01000000 1656501.51985444 3006.55038836
0.01100000 1654795.51582688 3574.35846981
0.01200000 1652928.73216236 3867.85340284
0.01300000 1650902.41331703 3466.89522087
0.01400000 1648716.62122357 5935.38009953
0.01500000 1646372.68930877 5531.81248240
0.01600000 1643870.01718172 5449.42935057
0.01700000 1641210.96822315 4431.26981298
0.01800000 1638395.32610504 7471.08302322
0.01900000 1635423.91321755 7359.40794155
0.02000000 1632297.93161948 6170.08646063
0.02100000 1629019.16863440 5913.33985024
0.02200000 1625586.38436073 7290.75526509
0.02300000 1622002.79307537 7590.97341712
0.02400000 1618267.81003526 6068.50456434
0.02500000 1614384.15244792 6925.70833030
0.02600000 1610351.54025953 11087.27086180
0.02700000 1606172.38113191 8769.70160264
0.02800000 1601846.44911158 10452.04855978
0.02900000 1597376.19730226 9344.65118327
0.03000000 1592763.07468187 8887.61836525
0.03100000 1588007.45242446 9909.16695908
0.03200000 1583110.54564696 8620.03731807
0.03300000 1578076.44396811 8048.19023526
0.03400000 1572903.16335915 12386.61298298
0.03500000 1567593.91557915 11004.50979553
0.03600000 1562150.00484072 12137.90609855
0.03700000 1556573.08626563 14195.94720327
0.03800000 1550864.92435181 12701.58431827
0.03900000 1545027.34831654 10197.18097112
0.04000000 1539060.58307113 16090.87914164
0.04100000 1532968.04545414 11589.23896099
0.04200000 1526751.03213189 11817.05353693
0.04300000 1520410.33641801 12041.65042338
0.04400000 1513949.49381073 11241.07551360
0.04500000 1507369.91167743 15601.27931077
0.04600000 1500671.38141214 12695.68047693
0.04700000 1493858.42668928 11831.35928963
0.04800000 1486931.21899500 13114.73396174
0.04900000 1479893.74083478 14428.96464477
0.05000000 1472745.44366176 13519.80380238
0.05100000 1465491.01239676 17146.24564378
0.05200000 1458128.69658913 17388.18551714
0.05300000 1450664.39378933 17625.57320621
0.05400000 1443098.40836595 19048.89987875
0.05500000 1435432.85018702 14469.16380486
0.05600000 1427669.19353631 14647.88660921
0.05700000 1419812.35815340 13587.60490178
0.05800000 1411861.36221229 12494.97363900
0.05900000 1403818.53965892 13897.80419173
0.06000000 1395688.20278716 14047.60241734
0.06100000 1387471.20320653 16774.52763066
0.06200000 1379169.89146451 18246.41851698
0.06300000 1370787.53206679 14475.51701543
0.06400000 1362322.82212223 17267.44257794
0.06500000 1353782.12553593 17423.17677067
0.06600000 1345165.79729087 27037.83379061
0.06700000 1336475.82940902 17721.67032732
0.06800000 1327715.40980618 15116.04064821
0.06900000 1318887.16333088 15233.14744967
0.07000000 1309991.50890657 18136.83329013
0.07100000 1301031.97113363 15456.26054100
0.07200000 1292010.71854409 16977.02163699
0.07300000 1282930.41993400 19936.73965992
0.07400000 1273793.43889159 18629.22991683
0.07500000 1264601.43189967 17299.74839927
0.07600000 1255355.55852526 17399.22885685
0.07700000 1246061.07842264 23326.26448181
0.07800000 1236718.03739429 20517.15320255
0.07900000 1227328.56362516 17673.53214516
0.08000000 1217897.26907857 14797.45251347
0.08100000 1208424.71120353 16349.98710970
0.08200000 1198912.49830397 22389.69195647
0.08300000 1189364.15706584 19481.78580706
0.08400000 1179781.58657827 19554.88071541
0.08500000 1170167.11631376 18114.18781091
0.08600000 1160522.50512202 18173.78328350
0.08700000 1150851.62685778 21267.73906302
0.08800000 1141153.84492437 16757.84499973
0.08900000 1131434.74961893 15274.36983729
0.09000000 1121693.99552659 19904.46088564
0.09100000 1111934.61099907 15344.69835270
0.09200000 1102158.17396149 19987.63942395
0.09300000 1092370.25631086 15402.42133778
0.09400000 1082566.77743932 21597.20822493
0.09500000 1072754.18544956 18537.19319587
0.09600000 1062933.43689015 15465.68223376
0.09700000 1053108.62239130 20124.90672003
0.09800000 1043280.22263173 18591.25444142
0.09900000 1033450.51766267 23252.63774081
0.10000000 1023620.26087898 15507.84768161
0.10100000 1013792.32703601 15511.02333316
0.10200000 1003969.35706930 18613.59275558
0.10300000 994152.31399154 21712.28755894
0.10400000 984344.60691231 18604.11394587
0.10500000 974548.94129040 23242.99334334
0.10600001 964762.35334828 18581.32379981
0.10700001 954992.41107916 20112.14112376
0.10800001 945237.61547035 18545.56288831
0.10900001 935501.76113371 18522.93574224
0.11000001 925784.88560852 16955.75097802
0.11100001 916090.05268590 18468.37633152
0.11200001 906418.27148471 16900.16946744
0.11300001 896771.67300276 16868.27596335
0.11400001 887152.23614535 21424.72751168
0.11500001 877562.01927723 16796.53783988
0.11600001 868001.55493079 19803.45640832
0.11700001 858473.79235441 18233.98420834
0.11800001 848978.22014436 19700.54052631
0.11900001 839517.34926096 18133.57559816
0.12000001 830092.30945010 22599.26418932
0.12100001 820708.04450032 19524.64529843
0.12200001 811361.77510320 22454.43818384
0.12300001 802057.64293976 16410.10014770
0.12400001 792794.96211953 17837.88748817
0.12500001 783575.36759472 19252.44768899
0.12600001 774402.92920762 17702.85179591
0.12700001 765276.24463006 17631.96550721
0.12800001 756197.35360403 14632.41948185
0.12900001 747167.77774173 18940.70405847
0.13000001 738188.79292419 27560.27988287
0.13100001 729260.71044548 15883.29902220
0.13200001 720385.48742719 18683.19849716
0.13300001 711564.83573807 15732.69925986
0.13400001 702797.77774720 25616.98020661
0.13500001 694087.96028970 15575.33456325
0.13600001 685435.09114770 22537.10685958
0.13700001 676840.23457334 23818.00897773
0.13800001 668303.18999736 16720.94660222
0.13900001 659827.63112878 15242.01899786
0.14000001 651411.89702808 16532.83472627
0.14100001 643059.07653213 15066.87487375
0.14200001 634768.19309241 20423.66757604
0.14300001 626541.49550875 16239.95632959
0.14400001 618376.34659547 20174.52925931
0.14500001 610278.82838397 18711.14976090
0.14600001 602246.17534884 13279.52879289
0.14700001 594280.94914848 15831.64523220
0.14800001 586380.29525148 19658.40032576
0.14900001 578548.21764155 15620.80261332
0.15000001 570784.17085803 23270.87174387
0.15100001 563088.55225973 16689.94547649
0.15200001 555463.54506670 14022.67785690
0.15300001 547907.77274941 20250.67223643
0.15400001 540420.52825208 16334.21123725
0.15500001 533005.44240792 14966.79352914
0.15600001 525659.37005316 13617.20662389
0.15700001 518387.54152813 14742.94237688
0.15800001 511184.24937539 17068.44289225
0.15900001 504055.07344941 15726.51903392
0.16000001 496995.69677691 14402.93597245
0.16100001 490011.27545832 14288.72946685
0.16200001 483098.77933133 16536.47199713
0.16300001 476258.78864842 11715.96675384
0.16400001 469492.30746819 16267.90922177
0.16500001 462798.02371974 13828.40560160
0.16600001 456177.53540270 15998.14692189
0.16700001 449629.77282406 11330.67081014
0.16800001 443155.38483678 15727.58535046
0.16900001 436755.35715232 14478.44077324
0.17000001 430427.26370817 13248.55180253
0.17100001 424173.44877975 17509.88079247
0.17200001 417992.46106360 11931.59536450
0.17300001 411884.50821274 15050.26064083
0.17400001 405850.74391633 13849.65729021
0.17500001 399888.54837796 11612.76399334
0.17600001 393998.16192810 13598.84720121
0.17700001 388183.15308712 14510.28694773
0.17800001 382438.71325848 11295.32792959
0.17900001 376766.19742728 14241.76293544
0.18000001 371166.95539628 12092.61997801
0.18100001 365639.90500652 10980.16686601
0.18200001 360182.12535138 11864.39976952
0.18300001 354796.15438425 13709.32405303
0.18400001 349481.21114010 11637.72488074
0.18500001 344236.87566974 11525.05114189
0.18600001 339063.00702204 12363.93313517
0.18700001 333957.91827081 11301.13648820
0.18800001 328920.91225945 11189.88996375
0.18900001 323956.28785540 12002.58103213
0.19000001 319056.20531494 11883.24892842
0.19100001 314226.79845867 10859.67866785
0.19200001 309463.38242407 10750.75841340
0.19300001 304769.01547661 11529.41240027
0.19400001 300139.42814110 14924.43376955
0.19500001 295576.83166938 8689.95926172
0.19600001 291078.53100216 9461.50809734
0.19700001 286647.34607850 9364.76923894
0.19800001 282279.42568261 8426.04125483
0.19900001 277975.94075007 10007.13433994
0.20000001 273734.45612894 8253.09424234
0.20100001 269557.48168092 9801.11049714
0.20200001 265441.53528147 8890.96464447
0.20300001 261387.78481327 8798.31325266
0.20400001 257395.34698841 10289.37948220
0.20500001 253462.85732063 9398.40319368
0.20600001 249589.78712898 7749.76325667
0.20700001 245776.50525102 9968.69552419
0.20800001 242021.21769798 8346.10208684
0.20900001 238326.14003436 9759.45589575
0.21000001 234685.37713191 7427.79253735
0.21100001 231102.91904544 8083.98049037
0.21200001 227575.20036338 7271.02799534
0.21300001 224102.86562239 7913.07255922
0.21400001 220685.42678123 9252.23695522
0.21500001 217323.21752301 7041.27258064
0.21600001 214012.37448754 7662.71343081
0.21700001 210755.09200299 8959.19938463
0.21800001 207549.69130867 12272.41382733
0.21900001 204394.78739789 9443.03962426
0.22000001 201289.99736447 8007.31647376
0.22100001 198236.65351979 7921.53704921
0.22200001 195231.73416342 9142.70254318
0.22300001 192274.99900635 9044.61638094
0.22400001 189365.64820740 7030.20002213
0.22500001 186505.50990156 8219.29821003
0.22600001 183689.68863816 8131.02445207
0.22700001 180920.73621115 8043.73631233
0.22800001 178196.26167232 7345.25025349
0.22900001 175515.56403048 7871.87341904
0.23000001 172879.31276507 5990.26847060
0.23100001 170287.01757232 8296.38388848
0.23200001 167735.41409142 9966.00009957
0.23300001 165226.59443919 8119.23523474
0.23400001 162757.92312561 8605.82559228
0.23500001 160329.26295784 6810.78741257
0.23600001 157940.86615167 6737.75766871
0.23700001 155591.55941435 8331.92840072
0.23800001 153280.12469858 6594.11127643
0.23900001 151006.68173105 7067.11303928
0.24000001 148769.64576291 6991.42983333
0.24100001 146570.26421724 5852.55092703
0.24200001 144406.69361677 6316.34907757
0.24300001 142277.48647321 6769.56312661
0.24400001 140183.20868975 5151.73316304
0.24500001 138122.21080441 5096.70981978
0.24600001 136094.93638491 6555.01292107
0.24700001 134100.83488054 6485.11668161
0.24800001 132138.68517124 7403.07018693
0.24900001 130206.78650128 5371.03019727
0.25000001 128307.23698104 6279.99801113
0.25100001 126437.33284957 6691.06397095
0.25200001 124598.81789000 5201.37789889
0.25300001 122788.19965211 6081.69981650
0.25400001 121007.34110922 5554.23721969
0.25500001 119253.19226101 5037.25507943
0.25600001 117527.92863441 5436.84223586
0.25700001 115828.95266891 5379.09681645
0.25800001 114156.70377107 5765.48459675
0.25900001 112511.45828771 5704.33120509
0.26000001 110890.93076420 6512.07021725
0.26100001 109295.20817157 6442.95282657
0.26200001 107725.53448902 4674.74979035
0.26300001 106178.31953334 4204.66165247
0.26400001 104655.91573234 4160.07284721
0.26500001 103156.59564491 7408.70704979
0.26600001 101679.76427702 4886.72970239
0.26700001 100225.50800475 4834.87873494
0.26800001 98793.63475041  4384.95568590
0.26900001 97382.27915723  4732.77899100
0.27000001 95992.87299984  4292.32151931
0.27100001 94623.71274721  4246.71242906
0.27200001 93275.70303994  6875.35239644
0.27300001 91947.11929633  4912.73481649
0.27400001 90636.95508721  5234.28440400
0.27500001 89347.84215369  4438.80100826
0.27600001 88075.33473522  4025.48336458
0.27700001 86823.39808840  5430.80380745
0.27800001 85588.43714635  3581.87626410
0.27900001 84371.72122892  4606.69619712
0.28000001 83171.91806951  3856.26616380
0.28100001 81989.76359794  5202.25074651
0.28200001 80824.53701127  4117.20211022
0.28300001 79675.85106487  5091.28712402
0.28400001 78542.77937199  5372.32636332
0.28500001 77426.27637619  4318.06363788
0.28600001 76325.31519174  3942.96596943
0.28700001 75240.38611989  4550.53876792
0.28800001 74168.98984030  3536.74844794
0.28900001 73114.41709598  3498.52502364
0.29000001 72073.47306075  3775.20869762
0.29100001 71047.77829187  3734.27140378
0.29200001 70035.71714714  3385.87690575
0.29300001 69038.10991943  3957.95502903
0.29400001 68053.46763716  3613.63930259
0.29500001 67083.74327183  3276.37017649
0.29600001 66126.03847928  3240.50666907
0.29700001 65182.06129613  4661.82124458
0.29800001 64251.36002608  2881.67363358
0.29900001 63333.74153797  2850.01850413
0.30000001 62427.73617955  3664.19614852
0.30100001 61535.45832189  3623.82331213
0.30200001 60654.34769945  3032.41425679
0.30300001 59786.37463137  3544.13645593
0.30400001 58930.03999035  3504.86429435
0.30500001 58086.18191814  3732.61822677
0.30600001 57252.79679520  3427.43884241
0.30700001 56432.00039452  2607.15854166
0.30800001 55622.30349911  2578.09388924
0.30900001 54824.26449411  3569.05978754
0.31000001 54037.29472405  3025.00790187
0.31100001 53261.14181612  2492.62155501
0.31200001 52496.79621607  3204.14210875
0.31300001 51742.58912588  2924.49127586
0.31400001 51000.63181029  3373.69195398
0.31500001 50267.89400788  3574.04743318
0.31600002 49547.13622272  2591.56308283
0.31700002 48836.09319932  2795.37810709
0.31800002 48135.41430805  2303.27968370
0.31900002 47445.85226975  2505.14111846
0.32000002 46766.60260763  3152.53683105
0.32100002 46097.07861014  2671.78680275
0.32200002 45438.85512959  3082.11768938
0.32300002 44789.03229671  2176.74707269
0.32400002 44150.50176236  2798.03818168
0.32500002 43521.63295190  2341.02874733
0.32600002 42902.90344272  2314.82626486
0.32700002 42294.18450910  2288.96137402
0.32800002 41696.04982383  3086.55023437
0.32900002 41105.74117967  2238.20771322
0.33000002 40526.64712603  2012.14812509
0.33100002 39956.16261887  2586.76209044
0.33200002 39396.81583174  2558.23235718
0.33300002 38846.22474387  1946.19595183
0.33400002 38305.77790271  2117.35197384
0.33500002 37774.50855620  3046.13651422
0.33600002 37252.34923632  1883.10634307
0.33700002 36739.55739049  1862.69564791
0.33800002 36237.10383282  2395.45386231
0.33900002 35743.05190854  2734.34360050
0.34000002 35258.57996070  2164.17174048
0.34100002 34783.33124660  2141.26197295
0.34200002 34318.09734916  2295.36604990
0.34300002 33861.35081231  2271.41952006
0.34400002 33414.52002479  2075.04179181
0.34500002 32976.31373281  2909.50029844
0.34600002 32547.74436418  2371.75424415
0.34700002 32127.28588171  2180.15772319
0.34800002 31716.54010792  2158.46923927
0.34900002 31314.45288305  1644.00885422
0.35000002 30921.61483646  1790.82540807
0.35100002 30538.38768962  2257.39772493
0.35200002 30162.44578118  1756.81173773
0.35300002 29796.57293848  2373.29714696
0.35400002 29438.90509668  1567.62177065
0.35500002 29090.42514136  2019.45740896
0.35600002 28750.05229131  2001.43498506
0.35700002 28418.39521113  1678.67468463
0.35800002 28095.66207052  1815.54176899
0.35900002 27781.99741943  1950.29631122
0.36000002 27476.48176574  2231.77733713
0.36100002 27178.86998716  1623.39398123
0.36200002 26891.19159843  1903.49308746
0.36300002 26610.42626620  2034.10108014
0.36400002 26338.61468334  1730.44706666
0.36500002 26074.19334656  1431.47328253
0.36600002 25818.96611837  1847.73439778
0.36700002 25571.26823493  1834.99429546
0.36800002 25332.52308967  1542.37074137
0.36900002 25101.49163114  2786.26570304
0.37000002 24877.92517604  1799.79358212
0.37100002 24662.15653862  1788.99292006
0.37200002 24454.98733020  1368.25660594
0.37300002 24255.17508070  2177.14461838
0.37400002 24062.93972073  1759.60255043
0.37500002 23878.58580985  1481.42753382
0.37600002 23701.80853888  1742.43853728
0.37700002 23532.42088561  1734.57482565
0.37800002 23370.36553873  1594.32641258
0.37900002 23216.59500302  1455.68057565
0.38000002 23069.17552262  1318.40344357
0.38100002 22928.28388817  1839.30702064
0.38200002 22795.67208000  1571.53370764
0.38300002 22669.31231850  1697.47818682
0.38400002 22550.28131520  1432.50668841
0.38500002 22437.43032671  2208.51637169
0.38600002 22332.42338551  2203.87530621
0.38700002 22232.99893194  1940.94089871
0.38800002 22140.31276402  2067.01969757
0.38900002 22054.10607820  1419.18179337
0.39000002 21974.82336811  1417.70579676
0.39100002 21900.89257886  1802.88156251
0.39200002 21833.97908880  1801.95837957
0.39300002 21772.38387971  1801.44712755
0.39400002 21718.11772620  1286.79853624
0.39500002 21668.30870628  1801.93663739
0.39600002 21624.51936806  1545.28822725
0.39700002 21585.90379750  1417.54636954
0.39800002 21553.93981479  1548.00403084
0.39900002 21526.42700160  1549.90281755
0.40000002 21504.51643739  1810.89541499
0.40100002 21487.61337432  1554.84377743
0.40200002 21476.21780108  1557.88491310
0.40300002 21469.58015840  1821.47926694
0.40400002 21467.73839682  1434.58168634
0.40500002 21470.26111901  1307.53896410
0.40600002 21478.39422537  1835.75844142
0.40700002 21490.28490509  1709.76714806
0.40800002 21506.67867229  1715.26523878
0.40900002 21526.91308368  1721.07678259
0.41000002 21552.02766089  1594.41908190
0.41100002 21580.88150621  1600.43824833
0.41200002 21612.79291290  1606.69510127
0.41300002 21649.98401417  1882.24969938
0.41400002 21689.89745855  1755.25503500
0.41500002 21733.46275651  1627.40176832
0.41600002 21779.48440692  1907.22953989
0.41700002 21830.31067989  1916.26476228
0.41800002 21884.49075880  1788.07240217
0.41900002 21940.13075060  2073.34245418
0.42000002 21999.22427691  1528.17618681
0.42100002 22061.70941756  1536.15689954
0.42200002 22126.73218999  1684.72946878
0.42300002 22193.80965261  1976.13690511
0.42400002 22263.27305786  1419.28372469
0.42500002 22335.63833398  1569.97209289
0.42600002 22408.93076418  1435.29208346
0.42700002 22485.61776163  2165.36509305
0.42800002 22563.40476741  1742.34619870
0.42900002 22643.87771321  1606.58319988
0.43000002 22725.84705700  1616.14869004
0.43100002 22807.95925475  1773.54699569
0.43200002 22892.93527530  2230.34432489
0.43300002 22978.42929124  2543.02289017
0.43400002 23065.72726494  1655.54265289
0.43500002 23153.52629423  1968.51289882
0.43600002 23243.15209067  1675.94756092
0.43700002 23332.83626062  1992.85763946
0.43800002 23422.86637141  2005.11457075
0.43900002 23514.63877905  2017.55610285
0.44000002 23606.23197662  1717.70755118
0.44100002 23698.64320469  1571.22011893
0.44200002 23791.14344326  2529.47449076
0.44300002 23884.03136767  1908.81187736
0.44400002 23976.85532632  2720.77378709
0.44500002 24069.13521601  1610.22522226
0.44600002 24161.27906435  1944.01660565
0.44700002 24254.28860633  2118.85475306
0.44800002 24345.80155518  1639.68981245
0.44900002 24437.53357533  1649.53359451
0.45000002 24529.01985551  2489.08240780
0.45100002 24619.01833018  1669.16952189
0.45200002 24708.83481241  2518.44810761
0.45300002 24797.41868830  2195.31558052
0.45400002 24885.39146834  2547.64207231
0.45500002 24972.71317931  1878.94702866
0.45600002 25058.40235455  2920.18105678
0.45700002 25143.38713936  2418.29108968
0.45800002 25226.68720872  2605.28624496
0.45900002 25308.69724987  2270.19025091
0.46000002 25389.87761339  1931.28113219
0.46100002 25468.61022643  2470.96468128
0.46200002 25546.60559975  2129.05421159
0.46300002 25622.75233654  2140.01237657
0.46400002 25696.73494171  2509.28628599
0.46500002 25770.06579738  2161.59322153
0.46600002 25840.49848945  1810.12700498
0.46700002 25909.10277224  2000.70101090
0.46800002 25976.48057403  2375.67914350
0.46900002 26041.11159760  2203.07814557
0.47000002 26103.80353245  1844.23380698
0.47100002 26164.63286575  2593.43853257
0.47200002 26223.39640766  2790.82509496
0.47300002 26279.75138955  2242.18849483
0.47400002 26333.27624235  1876.24602120
0.47500002 26385.00131779  2449.05593840
0.47600002 26435.09214203  3026.28949186
0.47700002 26481.46409920  2468.33738568
