# SAXS profile: number of points = 501, q_min = 0, q_max = 0.5, delta_q = 0.001
#    q    intensity    error
0.00000000 1664650.74656090 299.63713438
0.00100000 1664569.07272107 599.24488041
0.00200000 1664323.98836656 973.62956402
0.00300000 1663915.71159910 1397.68924753
0.00400000 1663344.11742145 1996.01301675
0.00500000 1662609.72267551 1795.61857156
0.00600000 1661712.42501251 3315.11642287
0.00700000 1660652.76368425 3985.56679848
0.00800000 1659430.60879363 2240.23141645
0.00900000 1658047.15762741 2984.48501131
0.01000000 1656501.81428653 3006.55092275
0.01100000 1654795.85156742 3574.35919501
0.01200000 1652929.14449259 3867.85436769
0.01300000 1650902.91360876 5547.03403438
0.01400000 1648717.17399819 4080.57518654
0.01500000 1646373.32993965 4741.55540136
0.01600000 1643870.73385472 5868.61878221
0.01700000 1641211.78261302 4431.27201184
0.01800000 1638396.24636366 6537.20131715
0.01900000 1635424.97168758 4906.27513645
0.02000000 1632299.04750961 5141.74223225
0.02100000 1629020.41427904 5913.34437193
0.02200000 1625587.75437037 7290.76140959
0.02300000 1622004.23557241 5839.21551385
0.02400000 1618269.42809690 6068.51063207
0.02500000 1614385.84712080 9444.15763698
0.02600000 1610353.42026318 8478.51114548
0.02700000 1606174.39288729 8095.11931092
0.02800000 1601848.60176927 8361.65008470
0.02900000 1597378.47047915 12219.94586023
0.03000000 1592765.58544532 8146.99634403
0.03100000 1588010.07583899 9146.93845771
0.03200000 1583113.38246313 9403.69392495
0.03300000 1578079.39407490 10462.66686505
0.03400000 1572906.25603511 9909.30987024
0.03500000 1567597.19572184 9311.52777258
0.03600000 1562153.45678730 9536.94729442
0.03700000 1556576.77385092 15970.47843831
0.03800000 1550868.74864712 11794.35737930
0.03900000 1545031.40468552 9270.18885742
0.04000000 1539064.77346639 11358.29855451
0.04100000 1532972.42522003 11589.27207202
0.04200000 1526755.66635982 9847.57450488
0.04300000 1520415.17419634 11038.21467704
0.04400000 1513954.57414044 11241.11323505
0.04500000 1507375.12714592 12481.06663270
0.04600000 1500676.87152990 11637.74967972
0.04700000 1493864.01426803 11831.40354326
0.04800000 1486937.01005381 10928.98753240
0.04900000 1479899.78575749 12209.17380081
0.05000000 1472751.80772211 15773.17259520
0.05100000 1465497.53406864 18289.41007717
0.05200000 1458135.38616587 17388.26529034
0.05300000 1450671.33381039 16450.61369230
0.05400000 1443105.58874752 13096.18382861
0.05500000 1435440.25878735 15675.00835719
0.05600000 1427676.76564726 14647.96429908
0.05700000 1419820.23511682 18528.65493316
0.05800000 1411869.41397846 16243.55836627
0.05900000 1403826.92377569 21478.55293694
0.06000000 1395696.69919056 14047.68793364
0.06100000 1387479.96731154 15484.27715880
0.06200000 1379178.86540262 14336.56497600
0.06300000 1370796.82999316 14475.61520154
0.06400000 1362332.27842967 14611.01436947
0.06500000 1353791.76494325 21444.06255981
0.06600000 1345175.75118468 16222.82031833
0.06700000 1336485.96323867 14995.37320931
0.06800000 1327725.82083977 19238.74804452
0.06900000 1318897.63085163 15233.26834954
0.07000000 1310002.23347319 16741.82932778
0.07100000 1301043.01401777 23887.15085619
0.07200000 1292022.02886021 14147.64187879
0.07300000 1282941.88524610 15664.72115283
0.07400000 1273805.12104214 21495.46242495
0.07500000 1264613.26473741 15858.25108312
0.07600000 1255367.70238262 20299.29669917
0.07700000 1246073.40524343 14579.05952494
0.07800000 1236730.52292008 26379.46329098
0.07900000 1227341.31588625 17673.71577773
0.08000000 1217910.27066447 14797.61048274
0.08100000 1208437.84701531 20809.30070194
0.08200000 1198925.78913822 23882.60284033
0.08300000 1189377.75028054 19482.00846392
0.08400000 1179795.32016064 18050.86924574
0.08500000 1170180.99059012 21133.46968217
0.08600000 1160536.70980980 16659.50525151
0.08700000 1150865.86730551 18229.71619414
0.08800000 1141168.31025968 16758.05742319
0.08900000 1131449.48163999 21384.39620741
0.09000000 1121708.80109628 16842.45843964
0.09100000 1111949.62122377 23017.35824071
0.09200000 1102173.42620199 21525.44802514
0.09300000 1092385.54450532 15402.63690133
0.09400000 1082582.35557012 16969.47922108
0.09500000 1072769.86063539 16992.67539117
0.09600000 1062949.28713649 20105.68671131
0.09700000 1053124.65758169 21673.30647195
0.09800000 1043296.35501241 20140.83708049
0.09900000 1033466.83224702 18602.40385518
0.10000000 1023636.66127760 18609.71537719
0.10100000 1013808.79513306 17062.40282456
0.10200000 1003985.90992628 17062.74134177
0.10300000 994169.19175575 17059.94413304
0.10400000 984361.50577673 20154.80277896
0.10500000 974565.92627154 17045.15885245
0.10600001 964779.34641943 21678.59293410
0.10700001 955009.62716536 26300.96636980
0.10800001 945254.69645837 17000.40651587
0.10900001 935519.07598578 27784.91786449
0.11000001 925802.27454317 20038.99117571
0.11100001 916107.57152757 20007.79030400
0.11200001 906435.80460206 23046.13141695
0.11300001 896789.09346981 19935.62248642
0.11400001 887169.83093149 26016.25651703
0.11500001 877579.62232981 19850.85199184
0.11600001 868019.19998088 15233.73767704
0.11700001 858491.47233407 18234.35973112
0.11800001 848995.95499761 15154.57851046
0.11900001 839535.01748566 25689.77274509
0.12000001 830110.02766709 21093.09679661
0.12100001 820725.74605399 16521.21004635
0.12200001 811379.47838367 17963.94249772
0.12300001 802075.28028836 16410.46100787
0.12400001 792812.57715309 25270.90208746
0.12500001 783593.07111823 19252.88266458
0.12600001 774420.56668507 17703.25498866
0.12700001 765293.97217995 16163.00945414
0.12800001 756214.88439942 19022.58631359
0.12900001 747185.36554284 14570.11531481
0.13000001 738206.29957257 23209.20715252
0.13100001 729277.97564568 15883.67505828
0.13200001 720402.83869874 15809.24104050
0.13300001 711581.99524188 15733.07865650
0.13400001 702814.91012013 22771.20416145
0.13500001 694104.99831948 24071.56247665
0.13600001 685452.13073627 14086.04195080
0.13700001 676857.06646179 16813.13032370
0.13800001 668319.96897391 18114.81361326
0.13900001 659844.15312257 15242.40065594
0.14000001 651428.42568180 26177.65252058
0.14100001 643075.42107098 15067.25782631
0.14200001 634784.33348584 17700.96197412
0.14300001 626557.52079857 13533.64308760
0.14400001 618392.22634265 16140.03786887
0.14500001 610294.70567768 18711.63655875
0.14600001 602261.79412586 21247.79709911
0.14700001 594296.25607060 14512.71525790
0.14800001 586395.49411527 14416.53390298
0.14900001 578563.22493407 14319.44049272
0.15000001 570799.02553233 14221.45839215
0.15100001 563103.18740058 14122.62860638
0.15200001 555477.76311954 12748.21526514
0.15300001 547921.96930564 20251.19694117
0.15400001 540434.47295663 18847.65313380
0.15500001 533019.14347244 14967.17825505
0.15600001 525672.84657081 14855.51534520
0.15700001 518400.86027580 13514.71106524
0.15800001 511197.35237133 12192.05742951
0.15900001 504067.84009078 13307.39160651
0.16000001 497008.17044918 16803.84703607
0.16100001 490023.60484572 13098.33157582
0.16200001 483110.78760448 12993.26524598
0.16300001 476270.50676188 15231.13152527
0.16400001 469503.86685064 12782.24337845
0.16500001 462809.16335972 17285.92306758
0.16600001 456188.36744671 14855.77488729
0.16700001 449640.25943241 12464.02857995
0.16800001 443165.67462911 12357.67542052
0.16900001 436765.37707812 17820.02822621
0.17000001 430437.10496626 16561.06839559
0.17100001 424182.82906090 12038.30925721
0.17200001 418001.57920190 10847.14149252
0.17300001 411893.22354435 11825.45500641
0.17400001 405859.11750620 14915.32327274
0.17500001 399896.59521972 12668.72473487
0.17600001 394005.93460535 10460.85805783
0.17700001 388190.61720630 14510.56595651
0.17800001 382445.70983401 16429.86847049
0.17900001 376772.98382560 13224.73235693
0.18000001 371173.41520214 13100.56630837
0.18100001 365645.92401245 11978.56103647
0.18200001 360187.82343180 12853.30308633
0.18300001 354801.56080408 13709.53295710
0.18400001 349486.16713388 11637.88991534
0.18500001 344241.53076675 10564.77307833
0.18600001 339067.26418378 13315.17209355
0.18700001 333961.74522303 10359.49382625
0.18800001 328924.52124048 9325.01061774
0.18900001 323959.51678357 12925.98533038
0.19000001 319059.03791804 10055.14605508
0.19100001 314229.25467603 9954.78325850
0.19200001 309465.46845083 8959.02573498
0.19300001 304770.76608820 8868.82971224
0.19400001 300140.76751870 11412.85322420
0.19500001 295577.69894537 9558.98323560
0.19600001 291079.11367075 9461.52703698
0.19700001 286647.40357357 13621.48526153
0.19800001 282279.14490364 11796.44602301
0.19900001 277975.36050454 10007.11345110
0.20000001 273733.55649366 10728.98725383
0.20100001 269556.09840497 9801.06020123
0.20200001 265439.75147104 10507.43305860
0.20300001 261385.72399844 8798.24388563
0.20400001 257392.91212152 9497.79890620
0.20500001 253460.00228117 8615.10588475
0.20600001 249586.70334604 9299.60100625
0.20700001 245772.84338026 9201.73569111
0.20800001 242017.19424283 7587.23939816
0.20900001 238321.81483933 10509.99253124
0.21000001 234680.59536028 7427.64119427
0.21100001 231097.78258212 7348.90983352
0.21200001 227569.92462489 8725.03132259
0.21300001 224097.11047424 13667.68341397
0.21400001 220679.28723326 7828.59808471
0.21500001 217316.66623262 7745.16635070
0.21600001 214005.53979332 7662.46871457
0.21700001 210747.82508167 7580.59962660
0.21800001 207542.12546619 7499.53505830
0.21900001 204386.83045870 9442.67201366
0.22000001 201281.68461777 8674.23460874
0.22100001 198228.03077796 11221.68935294
0.22200001 195222.73418001 13713.42161091
0.22300001 192265.80474012 9044.18388263
0.22400001 189356.07646179 9586.15182417
0.22500001 186495.61659275 7586.64204174
0.22600001 183679.44690057 6254.28546272
0.22700001 180910.16952844 7424.55370855
0.22800001 178185.35130846 7344.80052827
0.22900001 175504.37903541 6054.90136306
0.23000001 172867.88847701 9583.79619040
0.23100001 170275.27966284 6518.13801375
0.23200001 167723.30032247 7620.50851055
0.23300001 165214.18595713 7538.72366176
0.23400001 162745.25429073 8031.47867910
0.23500001 160316.25819662 6810.23497029
0.23600001 157927.68625288 5614.32951183
0.23700001 155578.09360205 6664.96584515
0.23800001 153266.38819989 10439.74052602
0.23900001 150992.60651207 7610.02772816
0.24000001 148755.36755969 6453.00814997
0.24100001 146555.77140932 5851.97222918
0.24200001 144391.98777475 5789.39702368
0.24300001 142262.54903409 5727.49049504
0.24400001 140167.98671252 6696.52588196
0.24500001 138106.80262664 6624.98363539
0.24600001 136079.20209297 6554.25507886
0.24700001 134084.97648098 7980.73817768
0.24800001 132122.61483922 7402.16984654
0.24900001 130190.65498283 5370.36477210
0.25000001 128290.84608122 4830.15058346
0.25100001 126420.76632456 6212.31675109
0.25200001 124582.16387066 7091.84001385
0.25300001 122771.29302403 6080.86243117
0.25400001 120990.26068104 5090.66545900
0.25500001 119235.96550480 4578.66129201
0.25600001 117510.61150503 4983.03771663
0.25700001 115811.45618962 5826.47463657
0.25800001 114139.06425344 5321.16342726
0.25900001 112493.75970194 4825.98251955
0.26000001 110873.14843862 5642.88915678
0.26100001 109277.22869763 4724.05482012
0.26200001 107707.46385492 5098.87158015
0.26300001 106160.18411020 5885.52088556
0.26400001 104637.65208250 4575.28155380
0.26500001 103138.28213122 4115.21765176
0.26600001 101661.48638102 5700.15981111
0.26700001 100207.08677718 4431.15758697
0.26800001 98775.17729303  5978.36788856
0.26900001 97363.77150963  5126.20281256
0.27000001 95974.28255478  4681.62572457
0.27100001 94605.12588463  5789.83397813
0.27200001 93257.04247139  5346.42649790
0.27300001 91928.52647246  4156.08887850
0.27400001 90618.29827103  4859.40647475
0.27500001 89329.26683002  4068.05500396
0.27600001 88056.74818455  3658.75806022
0.27700001 86804.77552008  4343.71117260
0.27800001 85569.87013856  5371.64885217
0.27900001 84353.16612960  4251.39977414
0.28000001 83153.48858458  4205.90365167
0.28100001 81971.28323052  3467.38544476
0.28200001 80806.18713420  3773.24508682
0.28300001 79657.49681243  4072.09142978
0.28400001 78524.54985541  6042.46439737
0.28500001 77408.13030736  3984.97073684
0.28600001 76307.20993366  3613.52809744
0.28700001 75222.36465774  5524.33072195
0.28800001 74151.12523513  4500.23200353
0.28900001 73096.62642148  3497.67373983
0.29000001 72055.86784671  4088.81041450
0.29100001 71030.22417363  3422.23636268
0.29200001 70018.36075440  3692.76852099
0.29300001 69020.84997008  3652.58355331
0.29400001 68036.34204984  3311.66910604
0.29500001 67066.79434207  3573.31897170
0.29600001 66109.24376965  3239.68364429
0.29700001 65165.45170159  3204.18541185
0.29800001 64234.89890129  4609.49656336
0.29900001 63317.51518797  3989.00364568
0.30000001 62411.61851014  4508.61553461
0.30100001 61519.60261860  3622.88956972
0.30200001 60638.68136592  3307.23383826
0.30300001 59770.84684879  3270.66089440
0.30400001 58914.82576659  3503.95942835
0.30500001 58071.14416058  2932.01220748
0.30600001 57237.98075020  3953.71370750
0.30700001 56417.36266984  3649.07519024
0.30800001 55607.92174481  3350.65548337
0.30900001 54810.09774585  5352.20629828
0.31000001 54023.40226216  2520.19183485
0.31100001 53247.51673922  3987.17424221
0.31200001 52483.41092833  2710.50588572
0.31300001 51729.52231233  2923.75273952
0.31400001 50987.73769433  3372.83900817
0.31500001 50255.31325176  2382.10196092
0.31600002 49534.81172364  3533.07061347
0.31700002 48824.10487508  2561.80090409
0.31800002 48123.62663067  2763.25877197
0.31900002 47434.39724862  2276.85117574
0.32000002 46755.44146600  2476.40207450
0.32100002 46086.23960801  3116.35166985
0.32200002 45428.27535458  3081.40006321
0.32300002 44778.79005494  3046.74901960
0.32400002 44140.58531781  2367.03899975
0.32500002 43511.97341911  2340.50916104
0.32600002 42893.54069787  2314.32109794
0.32700002 42285.14592661  3120.64391715
0.32800002 41687.30805169  2262.99562475
0.32900002 41097.37631749  2237.75224645
0.33000002 40518.61127120  3017.62371732
0.33100002 39948.48755597  2188.37825195
0.33200002 39389.39586357  2754.50058318
0.33300002 38839.13130546  2140.42462760
0.33400002 38299.05727328  2309.43326294
0.33500002 37768.15544199  2664.92117419
0.33600002 37246.29014010  2071.08006132
0.33700002 36733.81276120  2048.64483471
0.33800002 36231.73826745  2210.86077378
0.33900002 35738.06575579  2551.69801581
0.34000002 35253.87889811  1803.23599104
0.34100002 34778.95988208  1962.57679909
0.34200002 34314.11767990  3177.83058883
0.34300002 33857.70207582  2271.17476281
0.34400002 33411.22858903  2593.54674205
0.34500002 32973.28643283  1882.44501160
0.34600002 32545.12858043  1693.97402284
0.34700002 32125.02594120  2180.00436362
0.34800002 31714.69680872  2656.42313051
0.34900002 31312.84129732  1972.70909516
0.35000002 30920.34923022  1790.75211048
0.35100002 30537.50705239  1612.38044873
0.35200002 30161.88460886  2076.19342539
0.35300002 29796.35802200  2056.84269168
0.35400002 29439.02338764  2194.67929750
0.35500002 29090.91603622  1553.45498991
0.35600002 28750.91668767  2001.49516001
0.35700002 28419.59817455  1678.74574368
0.35800002 28097.18656661  2572.15706607
0.35900002 27783.83515884  1800.39260357
0.36000002 27478.64504729  1636.76556977
0.36100002 27181.36215495  2656.70646286
0.36200002 26894.00754318  1903.69241412
0.36300002 26613.57032008  1889.03131080
0.36400002 26342.03506899  1874.89443484
0.36500002 26077.95328230  1574.84767332
0.36600002 25823.04385903  1421.55863178
0.36700002 25575.66605959  1552.95451670
0.36800002 25337.23985811  1542.65792183
0.36900002 25106.56070243  1532.75560349
0.37000002 24883.27256017  1800.18043864
0.37100002 24667.73300120  1927.04339334
0.37200002 24460.83630565  1368.58385613
0.37300002 24261.32663504  2313.80283079
0.37400002 24069.45631032  1353.90698159
0.37500002 23885.32126606  1616.55861987
0.37600002 23708.84243502  1340.73510321
0.37700002 23539.76319782  1334.70463654
0.37800002 23377.98138024  1461.94213487
0.37900002 23224.39069275  1588.54839864
0.38000002 23077.29947801  1582.64127318
0.38100002 22936.61617793  1971.40225388
0.38200002 22804.27794402  1441.11641294
0.38300002 22678.18271296  1698.14240199
0.38400002 22559.31910981  1563.36088837
0.38500002 22446.79219544  1559.60319562
0.38600002 22341.93893516  1426.64457829
0.38700002 22242.79115509  1423.98355721
0.38800002 22150.31573991  1680.21228005
0.38900002 22064.35431087  1807.07070367
0.39000002 21985.17780597  1418.37381335
0.39100002 21911.57905941  1674.92118265
0.39200002 21844.83145022  1545.30345000
0.39300002 21783.36734921  1673.61619273
0.39400002 21729.28655227  1544.95234706
0.39500002 21679.67428583  1287.77271359
0.39600002 21636.10700984  1288.43023348
0.39700002 21597.61045261  1418.31514562
0.39800002 21565.80462140  1677.92750807
0.39900002 21538.44529068  1938.46016800
0.40000002 21516.64231168  1811.91653491
0.40100002 21499.92179053  1815.02348355
0.40200002 21488.68483301  1558.78927164
0.40300002 21482.15590562  1692.36432243
0.40400002 21480.44048520  1304.93682130
0.40500002 21483.02826831  1569.97978023
0.40600002 21491.28234620  1312.04284940
0.40700002 21503.30768269  2105.60398806
0.40800002 21519.74015903  1320.23612131
0.40900002 21540.12539379  1457.18955193
0.41000002 21565.33258147  1861.30394330
0.41100002 21594.22772238  1734.88033742
0.41200002 21626.20030396  1473.71748954
0.41300002 21663.45101855  2017.95055799
0.41400002 21703.43150787  1756.35027800
0.41500002 21747.03103553  2035.52220138
0.41600002 21793.16118605  1499.47852646
0.41700002 21843.94977211  1369.61571561
0.41800002 21898.22401057  2202.08551085
0.41900002 21953.81648624  2212.94480667
0.42000002 22012.94430866  1946.16449855
0.42100002 22075.44935753  2096.06401582
0.42200002 22140.44724400  1545.29258862
0.42300002 22207.52466179  1694.87836250
0.42400002 22277.01446598  1562.17571345
0.42500002 22349.37250265  1713.74996471
0.42600002 22422.61694234  1579.78555153
0.42700002 22499.26365639  1444.45279519
0.42800002 22577.01628995  1743.39728052
0.42900002 22657.43035922  1899.82562565
0.43000002 22739.36443913  2058.13997291
0.43100002 22821.41307837  1774.59316507
0.43200002 22906.32710320  1636.54261744
0.43300002 22991.78307266  1945.79469365
0.43400002 23079.01182124  1807.08671124
0.43500002 23166.73713180  2272.65702033
0.43600002 23256.25754352  1524.44775422
0.43700002 23345.86975470  1687.20608713
0.43800002 23435.78521270  1851.89583527
0.43900002 23527.44988222  2018.65529556
0.44000002 23618.92858269  2187.34907970
0.44100002 23711.26861310  2200.88005697
0.44200002 23803.64261617  2530.80340289
0.44300002 23896.39506466  2068.94998275
0.44400002 23989.07726535  1921.52518002
0.44500002 24081.20967262  1772.13630379
0.44600002 24173.25766131  1944.98040360
0.44700002 24266.04897313  1793.74642510
0.44800002 24357.45379480  1968.56950899
0.44900002 24449.07720249  2475.46918407
0.45000002 24540.38804734  1826.17306309
0.45100002 24630.20378226  2671.88463293
0.45200002 24719.83155231  1679.71263359
0.45300002 24808.24272082  2365.21797310
0.45400002 24896.01170815  1869.06816757
0.45500002 24983.16353398  2221.50300673
0.45600002 25068.69559305  2062.15099722
0.45700002 25153.50757960  1900.85065788
0.45800002 25236.62464367  2432.55836469
0.45900002 25318.42043414  2620.45663913
0.46000002 25399.39194069  2810.18885751
0.46100002 25477.96370311  2118.74756197
0.46200002 25555.73031734  1952.33011012
0.46300002 25631.67453507  2675.94694829
0.46400002 25705.43221390  2868.72637104
0.46500002 25778.57468515  1982.11470148
0.46600002 25848.72505047  2172.84393073
0.46700002 25917.12677060  2001.32062408
0.46800002 25984.26201167  2010.79221108
0.46900002 26048.64708195  2387.35861821
0.47000002 26111.17154211  2582.65609964
0.47100002 26171.77241678  2594.14620491
0.47200002 26230.26331459  2419.34845149
0.47300002 26286.40809803  2055.86007479
0.47400002 26339.69409723  2064.37362272
0.47500002 26391.20135262  2072.76505248
0.47600002 26441.01635545  2081.04029089
0.47700002 26487.14050061  1899.12806391
