# SAXS profile: number of points = 501, q_min = 0, q_max = 0.5, delta_q = 0.001
#    q    intensity    error
0.00000000 1682732.95097188 252.40994265
0.00100000 1682650.82218811 555.27478451
0.00200000 1682404.37705980 1287.03938920
0.00300000 1681993.83140980 1311.95523524
0.00400000 1681419.04526871 1387.17076506
0.00500000 1680680.57178993 2117.65760427
0.00600000 1679778.28038324 1940.14399283
0.00700000 1678712.71456959 2618.79194357
0.00800000 1677483.75451470 2491.06348063
0.00900000 1676092.60103263 3268.38071173
0.01000000 1674538.62844490 2762.98885624
0.01100000 1672823.15763387 4215.51454078
0.01200000 1670946.02107540 4561.68283754
0.01300000 1668908.47420041 4556.12033551
0.01400000 1666710.54136941 3750.09888433
0.01500000 1664353.55097907 5991.67305033
0.01600000 1661836.94970061 5508.98973453
0.01700000 1659163.12307108 4479.74063325
0.01800000 1656331.77024541 5192.60033337
0.01900000 1653343.82572104 5456.03487107
0.02000000 1650200.34980464 6757.57073813
0.02100000 1646903.25848003 7065.21529921
0.02200000 1643451.28798185 7370.87936147
0.02300000 1639847.56215834 8855.17723873
0.02400000 1636091.64346632 12270.68788551
0.02500000 1632186.15354237 7002.07891849
0.02600000 1628130.87649752 9231.50249197
0.02700000 1623928.14797408 10230.74780082
0.02800000 1619577.80039151 10567.74563219
0.02900000 1615082.30411726 9448.23191289
0.03000000 1610443.06171247 9735.12875553
0.03100000 1605660.47077887 9248.60473724
0.03200000 1600735.83599921 11885.46412972
0.03300000 1595673.04971470 12206.89939306
0.03400000 1590470.19879429 10019.96271473
0.03500000 1585130.57150001 10271.64657764
0.03600000 1579655.57936917 10520.50664479
0.03700000 1574046.69764142 10766.47990979
0.03800000 1568305.70150429 9174.58877840
0.03900000 1562434.59628772 11249.52961424
0.04000000 1556433.32394860 11486.47846301
0.04100000 1550305.54202595 11720.31044115
0.04200000 1544052.59553752 9959.13970325
0.04300000 1537675.06458141 11163.52148705
0.04400000 1531176.58431512 12402.53090895
0.04500000 1524558.54766138 13675.29080794
0.04600000 1517820.85441377 10700.63752106
0.04700000 1510967.86308008 13054.76294416
0.04800000 1503999.90655110 11054.39982749
0.04900000 1496920.94529298 15717.67065719
0.05000000 1489730.49435828 14815.37045629
0.05100000 1482433.01990981 13875.57371274
0.05200000 1475026.83974528 18762.34227591
0.05300000 1467518.03946528 11886.89667381
0.05400000 1459906.73594608 16861.92358651
0.05500000 1452195.21783545 13418.28443875
0.05600000 1444384.86243166 18524.23672510
0.05700000 1436480.71250789 16246.59761683
0.05800000 1428481.30138449 13906.26611830
0.05900000 1420389.85736472 14061.86024468
0.06000000 1412209.90551958 15506.06548703
0.06100000 1403942.69880625 13056.66770905
0.06200000 1395590.42197944 22420.16117710
0.06300000 1387156.45713087 14648.37287219
0.06400000 1378639.32773646 16130.08088887
0.06500000 1370045.68978094 27126.90592660
0.06600000 1361375.76237815 15050.00975726
0.06700000 1352631.64044694 19315.58072953
0.06800000 1343816.22003492 15299.34838125
0.06900000 1334932.37014387 16820.14865131
0.07000000 1325980.52264154 15533.86255017
0.07100000 1316964.28047131 17067.85787433
0.07200000 1307885.47752641 14321.34664982
0.07300000 1298747.23035111 18740.92341208
0.07400000 1289551.52748327 23211.92858251
0.07500000 1280300.21186667 14595.42309940
0.07600000 1270994.53166309 17615.98503470
0.07700000 1261639.68207177 19189.54046408
0.07800000 1252235.61845803 19290.69060701
0.07900000 1242784.65284866 20878.78314715
0.08000000 1233291.22326141 17981.38687868
0.08100000 1223756.07338265 19567.86053148
0.08200000 1214180.70171265 15116.55044567
0.08300000 1204568.62069555 16695.32186639
0.08400000 1194921.78282307 21329.35482456
0.08500000 1185242.40712825 16818.59054670
0.08600000 1175532.67505186 15340.70212970
0.08700000 1165796.13516963 18466.21164822
0.08800000 1156032.04149465 18519.63417450
0.08900000 1146246.17137609 20116.62125252
0.09000000 1136438.12488291 18614.85736002
0.09100000 1126611.21594417 17101.95906150
0.09200000 1116766.79789282 17136.78731887
0.09300000 1106909.97930081 21850.40401820
0.09400000 1097037.51998732 25012.45663123
0.09500000 1087155.45142231 21917.05493083
0.09600000 1077264.88314802 23511.30717992
0.09700000 1067369.90043779 17259.37210149
0.09800000 1057470.81563487 17273.78658557
0.09900000 1047569.93861346 18856.25978171
0.10000000 1037668.13922956 15720.67304863
0.10100000 1027768.31312423 23587.28389555
0.10200000 1017873.05000915 20443.98117104
0.10300000 1007983.47414931 18869.45152371
0.10400000 998102.87721835 17292.13316132
0.10500000 988233.93886245 20426.79647735
0.10600001 978373.51443557 17273.18521012
0.10700001 968529.86326560 26673.31368952
0.10800001 958700.61621635 25079.60930051
0.10900001 948890.17963790 15656.68870092
0.11000001 939098.49092886 15635.99060994
0.11100001 929328.56065981 18735.26466483
0.11200001 919581.23448225 21821.66372156
0.11300001 909858.86247519 15558.58728084
0.11400001 900163.42191193 15527.81975910
0.11500001 890497.12336293 15494.65067613
0.11600001 880860.12678531 15459.09595307
0.11700001 871255.67534959 18505.47141594
0.11800001 861683.03960234 18457.25157759
0.11900001 852144.93292830 16872.47046670
0.12000001 842642.49520213 15293.96200834
0.12100001 833180.68947784 15247.20733571
0.12200001 823756.49144957 16718.13878158
0.12300001 814374.60020132 19691.57876062
0.12400001 805033.55174790 21132.13172907
0.12500001 795735.85503387 18047.29004257
0.12600001 786484.86255146 20975.55227269
0.12700001 777279.69362881 17908.52498517
0.12800001 768121.93226601 22294.74013476
0.12900001 759013.60840127 17760.91927370
0.13000001 749955.51626386 20631.27722487
0.13100001 740948.08920007 16137.85014348
0.13200001 731993.86576379 14603.27831039
0.13300001 723093.77096385 18894.44112603
0.13400001 714247.25963907 14463.50768958
0.13500001 705458.08420846 18708.74927529
0.13600001 696725.75263183 14317.71489168
0.13700001 688051.17575110 18515.45801253
0.13800001 679434.33279176 15582.82715740
0.13900001 670879.08011753 15497.30748154
0.14000001 662383.73215671 15410.35825539
0.14100001 653951.10204118 16714.99095650
0.14200001 645580.25299725 15232.46678791
0.14300001 637273.94357181 13765.11783042
0.14400001 629028.94686197 15049.51826356
0.14500001 620851.82034953 16315.98660845
0.14600001 612739.21008840 16213.08026378
0.14700001 604694.18564501 14766.63271009
0.14800001 596713.99602348 17337.52597242
0.14900001 588802.16090076 15897.65909438
0.15000001 580958.31841647 18422.18914620
0.15100001 573183.35890269 14375.43931958
0.15200001 565478.76139188 16871.05964222
0.15300001 557843.67684359 15463.42745181
0.15400001 550276.92363694 14073.33298615
0.15500001 542782.60030383 13971.22479116
0.15600001 535357.38527047 13868.43371995
0.15700001 528006.63439043 15016.50939080
0.15800001 520724.32416584 19870.84114805
0.15900001 513516.29223152 12324.39159528
0.16000001 506378.16547595 14674.83992818
0.16100001 499315.11704222 14560.02950025
0.16200001 492324.08377134 16852.25418302
0.16300001 485405.74640698 14329.17831038
0.16400001 478561.35321996 11844.39405136
0.16500001 471789.02466100 14097.05672241
0.16600001 465090.87974535 18640.84334028
0.16700001 458465.28781843 15019.32353806
0.16800001 451913.46710821 16038.40970495
0.16900001 445436.38722752 12494.49125170
0.17000001 439031.37656378 19143.96407904
0.17100001 432700.61718933 11163.67645065
0.17200001 426442.92404666 13279.43328191
0.17300001 420258.71113550 15356.25403008
0.17400001 414148.60896729 10871.40149880
0.17500001 408110.57864525 12928.94374208
0.17600001 402144.52751130 13880.01902259
0.17700001 396254.07917920 13753.97973792
0.17800001 390434.36374565 13628.11211023
0.17900001 384686.94486373 12463.85760230
0.18000001 379013.21542350 11319.23021329
0.18100001 373411.69881993 13252.38181712
0.18200001 367879.61099450 11108.12537870
0.18300001 362420.07907091 15004.19198232
0.18400001 357031.15192951 12879.89941431
0.18500001 351713.81096909 13737.94210546
0.18600001 346466.97947123 14577.59884995
0.18700001 341289.06896548 11549.22263943
0.18800001 336179.74699856 10483.76590547
0.18900001 331143.18822521 20762.67888270
0.19000001 326171.42774123 12148.25540021
0.19100001 321270.57085189 12028.37074104
0.19200001 316436.00088132 9160.82265838
0.19300001 311670.95739695 9976.58781770
0.19400001 306971.02300061 8978.90284706
0.19500001 302338.31545664 12444.24565225
0.19600001 297770.32466425 10558.93621157
0.19700001 293269.78884552 10452.13576840
0.19800001 288832.97835951 8621.66481148
0.19900001 284460.89629131 10240.59275046
0.20000001 280151.28120333 9291.21768022
0.20100001 275906.46651643 10867.95622973
0.20200001 271722.90531187 9928.75542936
0.20300001 267602.22972390 8188.62861658
0.20400001 263542.82416830 9724.73067146
0.20500001 259544.04650210 8821.90255759
0.20600001 255605.26846750 9523.85275327
0.20700001 251726.23651655 8639.24484562
0.20800001 247905.77713315 10103.40042465
0.20900001 244146.00927153 9228.71958672
0.21000001 240440.87505803 8370.94946086
0.21100001 236794.58625222 9789.08865843
0.21200001 233203.46029625 7450.85090870
0.21300001 229668.05047162 9584.04819927
0.21400001 226187.89741747 10212.38405120
0.21500001 222763.38074451 7939.28726508
0.21600001 219390.85843840 8569.40733575
0.21700001 216072.18929138 9891.78529344
0.21800001 212805.85022312 9786.94151449
0.21900001 209590.26731568 7608.12706328
0.22000001 206425.45337487 8211.60492352
0.22100001 203312.46718901 8801.39712077
0.22200001 200248.40756693 7368.14050482
0.22300001 197233.02707368 8615.13902995
0.22400001 194265.26070401 7212.09814467
0.22500001 191347.34925426 7784.01053575
0.22600001 188474.09529119 7701.05189777
0.22700001 185648.25456177 10158.67297001
0.22800001 182867.05893688 7537.78052584
0.22900001 180130.50302765 6835.95291318
0.23000001 177438.64279243 7377.89911622
0.23100001 174791.31310904 8515.83317741
0.23200001 172185.01839262 7823.22668066
0.23300001 169622.04468318 6549.10745495
0.23400001 167099.46775707 5890.25651702
0.23500001 164617.57826619 8158.44756474
0.23600001 162176.51266971 6341.91282790
0.23700001 159774.74423003 8555.93795820
0.23800001 157411.43545650 6207.52025083
0.23900001 155086.48578080 7816.35925306
0.24000001 152798.61759771 7180.77137366
0.24100001 150548.75144359 6557.90392308
0.24200001 148335.14837181 5406.81641391
0.24300001 146156.56684409 5884.26365949
0.24400001 144012.99082395 6880.22096207
0.24500001 141903.48884147 5236.23898595
0.24600001 139827.91804104 5698.68706934
0.24700001 137786.30968184 6663.34625143
0.24800001 135776.95783336 5071.26961498
0.24900001 133798.35868096 6020.92642548
0.25000001 131852.45726167 5460.66977583
0.25100001 129936.77325317 6876.25436587
0.25200001 128053.04565279 5831.53597492
0.25300001 126197.51404910 4808.12551275
0.25400001 124372.24721899 6660.13415368
0.25500001 122574.12104001 4706.84647063
0.25600001 120805.45388825 5588.46056128
0.25700001 119063.55360115 4607.75974237
0.25800001 117348.66416180 5470.79498207
0.25900001 115661.46066070 6315.11605087
0.26000001 113999.29686338 4909.37995171
0.26100001 112362.56039874 8390.11278196
0.26200001 110751.98886222 5679.91601755
0.26300001 109164.71878709 5619.79998907
0.26400001 107602.37247512 5132.63340993
0.26500001 106063.80689129 5501.52992378
0.26600001 104548.21535216 5443.30308988
0.26700001 103055.50251966 4557.11453706
0.26800001 101585.73662310 4508.88313338
0.26900001 100136.85602524 5272.20571922
0.27000001 98710.28705944  4413.83069474
0.27100001 97304.58664748  4367.03005540
0.27200001 95920.31863852  4320.73095754
0.27300001 94556.20035329  4274.88602028
0.27400001 93210.56020933  5382.91010683
0.27500001 91886.72621535  4564.93277442
0.27600001 90579.89939639  4516.31399764
0.27700001 89293.92230500  4095.91240998
0.27800001 88025.41493187  5157.40930494
0.27900001 86775.54179273  4737.94480612
0.28000001 85543.08900536  3966.20550945
0.28100001 84328.62417475  3567.10097142
0.28200001 83131.62538115  4587.61896379
0.28300001 81951.40559455  5585.80806970
0.28400001 80787.34692298  5180.48886663
0.28500001 79640.37231191  5124.85820084
0.28600001 78509.18537077  3717.80264920
0.28700001 77394.43460493  3677.78370651
0.28800001 76293.70192907  4299.53177572
0.28900001 75210.18874001  3271.64336505
0.29000001 74140.65339775  3236.23967400
0.29100001 73086.75957482  4161.56028718
0.29200001 72046.95572656  3799.75662488
0.29300001 71021.94150450  4384.89487605
0.29400001 70010.34375116  3717.54942916
0.29500001 69013.92572358  3370.64029190
0.29600001 68030.01721970  3333.81115167
0.29700001 67060.15941214  3297.34819439
0.29800001 66104.03510152  3261.24272612
0.29900001 65161.31911824  3518.71139896
0.30000001 64230.46187919  3770.00713847
0.30100001 63313.93304855  4588.99408460
0.30200001 62408.74318780  3403.77301460
0.30300001 61517.11499967  4207.77086518
0.30400001 60637.52120676  2774.16672654
0.30500001 59770.71201957  4663.90887969
0.30600001 58914.69999464  2984.32426951
0.30700001 58071.58170444  3487.77936229
0.30800001 57239.93260172  2918.37810187
0.30900001 56420.34608897  3410.61008255
0.31000001 55612.29693887  3891.47066254
0.31100001 54815.14707235  3078.41880533
0.31200001 54030.19969774  3044.06159509
0.31300001 53255.69299867  3260.84623670
0.31400001 52493.67667129  3472.45687622
0.31500001 51741.24547192  3433.54921209
0.31600002 51001.19449402  2667.61760432
0.31700002 50271.23014800  2397.93779160
0.31800002 49551.72888303  3556.57550898
0.31900002 48843.75678228  3047.85056753
0.32000002 48146.44946651  2550.07681674
0.32100002 47459.07915703  2979.95572137
0.32200002 46783.30292001  3173.31158732
0.32300002 46116.35722346  3586.00810750
0.32400002 45460.89561387  2437.84064273
0.32500002 44815.20133299  2410.60979385
0.32600002 44179.95654351  2167.02697107
0.32700002 43555.17692438  3214.37220923
0.32800002 42941.07363907  2331.05629288
0.32900002 42335.22230395  2095.59360328
0.33000002 41740.72276185  2279.66968159
0.33100002 41155.07809507  2459.42758343
0.33200002 40580.88859119  2432.41857734
0.33300002 40015.71533847  2004.78743339
0.33400002 39460.80778197  2577.77739043
0.33500002 38915.44601220  2157.47242909
0.33600002 38379.37242597  2328.09284161
0.33700002 37852.81632153  2111.05166622
0.33800002 37336.98321024  1898.58568615
0.33900002 36829.71167482  2817.47307655
0.34000002 36332.17496285  2230.06900483
0.34100002 35844.23388724  2022.69021405
0.34200002 35366.34540967  2183.51826900
0.34300002 34897.18470458  1980.76429764
0.34400002 34438.18273279  1960.39364491
0.34500002 33988.00710029  2822.36424328
0.34600002 33547.78358013  2444.62710526
0.34700002 33115.63089271  1901.49961592
0.34800002 32693.57181411  2738.41370485
0.34900002 32280.21216530  2203.12458463
0.35000002 31876.37501448  2013.94946880
0.35100002 31482.27677708  1828.49072181
0.35200002 31095.64002330  1811.16563894
0.35300002 30719.28604156  2283.67183249
0.35400002 30351.23110400  2262.68438597
0.35500002 29992.53377407  2082.08179321
0.35600002 29642.25278151  1746.07698280
0.35700002 29300.71831573  2202.82810731
0.35800002 28968.31648087  1715.93830802
0.35900002 28645.04965736  2010.88258119
0.36000002 28330.16478760  1687.48634550
0.36100002 28023.28030855  2130.32986996
0.36200002 27726.53350827  2113.59374945
0.36300002 27436.74780926  1797.65580161
0.36400002 27156.05152211  1784.15266951
0.36500002 26883.00214294  1918.63995382
0.36600002 26619.14657321  2344.61454123
0.36700002 26362.98059416  1455.23659773
0.36800002 26115.92421595  1590.06812121
0.36900002 25876.69374389  1867.00354206
0.37000002 25644.92613052  1427.14020677
0.37100002 25421.09249658  1844.04613705
0.37200002 25206.09778647  1692.33748555
0.37300002 24998.46319071  1542.65523657
0.37400002 24798.57349011  1813.39577237
0.37500002 24606.59578713  1804.15568858
0.37600002 24422.29893449  1933.51349824
0.37700002 24245.59859224  1512.19805583
0.37800002 24076.14635946  1505.60188391
0.37900002 23915.12500495  1772.11084682
0.38000002 23760.57364194  1493.70853276
0.38100002 23612.63019847  1488.30415191
0.38200002 23472.99716153  2292.49037638
0.38300002 23339.83819990  2016.56211600
0.38400002 23213.91311152  1876.84496398
0.38500002 23094.35527865  2005.74485097
0.38600002 22982.60252208  1734.38218149
0.38700002 22876.63721299  1730.84645353
0.38800002 22777.26854579  1727.76978739
0.38900002 22684.63177724  1459.75612402
0.39000002 22598.86321458  1457.96572936
0.39100002 22518.62050084  1853.73292745
0.39200002 22445.45479524  1323.15962287
0.39300002 22377.53708156  1454.76375459
0.39400002 22317.04418229  1586.74191654
0.39500002 22260.92608328  1454.52897919
0.39600002 22211.14824658  1984.01091112
0.39700002 22166.41811423  1985.00283618
0.39800002 22128.39432884  1854.13824866
0.39900002 22094.91956258  1855.97333119
0.40000002 22067.00733050  1990.99583073
0.40100002 22044.15060217  1595.11481315
0.40200002 22026.90130164  1730.98412080
0.40300002 22014.41182312  1334.07341969
0.40400002 22006.70782221  1470.59831990
0.40500002 22003.48908082  1608.01505821
0.40600002 22005.77225104  1343.45245958
0.40700002 22011.99783710  2020.70149719
0.40800002 22022.55618021  1621.30066281
0.40900002 22037.17164731  1490.81473258
0.41000002 22056.66406398  1767.73142517
0.41100002 22079.84594724  1637.44145303
0.41200002 22106.13337631  1780.31753582
0.41300002 22137.72672585  1512.22818430
0.41400002 22172.01846436  1380.20821480
0.41500002 22209.93237859  1385.89984609
0.41600002 22250.39102278  1948.46683419
0.41700002 22295.62545141  2376.49082947
0.41800002 22344.33429514  1966.07806779
0.41900002 22394.32566687  1834.09535902
0.42000002 22447.93458835  1842.86327735
0.42100002 22505.00848955  2564.22078881
0.42200002 22564.36815474  1431.70922726
0.42300002 22626.00922099  1870.71853104
0.42400002 22690.01057254  1591.13706680
0.42500002 22756.86870474  2326.66236662
0.42600002 22824.67921547  1754.30492763
0.42700002 22895.78278098  2057.87305387
0.42800002 22968.08720047  1477.99648139
0.42900002 23043.09737918  1634.90783653
0.43000002 23119.60455756  2242.02375821
0.43100002 23196.22967153  2254.67363092
0.43200002 23275.69978312  1814.10812706
0.43300002 23355.78031029  2584.78432943
0.43400002 23437.51933379  1835.15785080
0.43500002 23519.95029048  2153.48675065
0.43600002 23604.01570602  2011.41629371
0.43700002 23688.23655149  2023.21237974
0.43800002 23772.80429841  1878.52708468
0.43900002 23859.03855236  2362.04492862
0.44000002 23945.13111506  2534.35279732
0.44100002 24032.06370325  1752.65848894
0.44200002 24119.04157473  1762.98142745
0.44300002 24206.38175719  1773.35961157
0.44400002 24293.70491796  1621.60488012
0.44500002 24380.49546644  1957.26626880
0.44600002 24467.06152652  1804.56820841
0.44700002 24554.63470135  2145.09298917
0.44800002 24640.56586192  2821.22172206
0.44900002 24726.86530051  2002.87618426
0.45000002 24812.79612841  1846.44431140
0.45100002 24897.29580793  2194.44775651
0.45200002 24981.55581807  2036.99615794
0.45300002 25064.56954536  1706.89726693
0.45400002 25147.03896191  2574.42823574
0.45500002 25228.84498558  1898.21838668
0.45600002 25309.00755134  2602.39882480
0.45700002 25388.45824917  2441.86203013
0.45800002 25466.21574809  2104.01884483
0.45900002 25542.66788309  2291.17741770
0.46000002 25618.27282491  2125.80437976
0.46100002 25691.50527284  2136.50567975
0.46200002 25763.90486422  2326.09426091
0.46300002 25834.55871869  1977.89390925
0.46400002 25903.03005179  2348.75736127
0.46500002 25970.84242113  2723.04295692
0.46600002 26035.70307288  1823.80108670
0.46700002 26098.74460291  2748.19793694
0.46800002 26160.64996497  2392.52235594
0.46900002 26219.68386756  1848.48780027
0.47000002 26276.94166468  2042.11261826
0.47100002 26332.26563380  2610.05429333
0.47200002 26385.48103910  2059.25496530
0.47300002 26436.42203524  2067.59266537
0.47400002 26484.47639278  3019.23045188
0.47500002 26530.68277131  2652.00717552
0.47600002 26575.22840739  2852.18652401
0.47700002 26616.24336430  2671.73863554
