# SAXS profile: number of points = 501, q_min = 0, q_max = 0.5, delta_q = 0.001
#    q    intensity    error
0.00000000 1646666.22097351 296.39991978
0.00100000 1646585.06602136 543.37308469
0.00200000 1646341.53434952 740.85371392
0.00300000 1645935.85471240 1185.07385761
0.00400000 1645367.88452221 1727.63634439
0.00500000 1644638.15464715 1776.20927732
0.00600000 1643746.53494924 1898.52732516
0.00700000 1642693.61541785 2562.60214655
0.00800000 1641479.23561775 2659.19647397
0.00900000 1640104.56101127 3690.23542002
0.01000000 1638569.03944392 2974.00293501
0.01100000 1636873.94544104 4419.55984512
0.01200000 1635019.11554765 3507.11615661
0.01300000 1633005.76451862 5143.96838511
0.01400000 1630833.94061068 5137.12714066
0.01500000 1628505.04354154 4299.25350639
0.01600000 1626018.45226988 4146.34723864
0.01700000 1623376.46677113 5698.05165397
0.01800000 1620578.87756302 6004.24501155
0.01900000 1617626.53319553 5338.16780042
0.02000000 1614520.72094540 6102.88860124
0.02100000 1611263.03693588 8507.46922074
0.02200000 1607852.32368148 6101.79984559
0.02300000 1604291.91155630 6352.99625894
0.02400000 1600581.01102698 9003.26859755
0.02500000 1596722.45756320 6849.93965579
0.02600000 1592715.93056428 7740.59977658
0.02700000 1588563.87187563 9340.75599445
0.02800000 1584266.01566300 8959.02472943
0.02900000 1579824.75538903 12085.65993363
0.03000000 1575241.67140599 10254.82375222
0.03100000 1570516.90439107 9800.02593433
0.03200000 1565651.85657899 10074.97016112
0.03300000 1560650.68077071 9551.18260663
0.03400000 1555511.28184052 9799.72152776
0.03500000 1550236.86867126 8371.27947739
0.03600000 1544828.62943668 10288.55914752
0.03700000 1539288.23911965 12283.52071626
0.03800000 1533617.66000661 13457.49558937
0.03900000 1527818.51961577 11916.98500488
0.04000000 1521891.12909069 10295.59396539
0.04100000 1515838.98885317 12414.72189434
0.04200000 1509663.07093488 12658.52543705
0.04300000 1503364.39100535 13891.08761769
0.04400000 1496946.53565747 12125.26750195
0.04500000 1490410.82243686 12340.60218318
0.04600000 1483756.95897714 10460.48704706
0.04700000 1476989.54445174 13824.62277902
0.04800000 1470108.87120863 12966.36084736
0.04900000 1463118.54581239 12070.72856481
0.05000000 1456018.29857380 14480.10265360
0.05100000 1448812.77132390 16951.11021414
0.05200000 1441500.31614964 20627.87048539
0.05300000 1434086.53934056 12777.71166119
0.05400000 1426571.93708352 14123.06283574
0.05500000 1418958.59795566 20262.72972405
0.05600000 1411247.87399134 16892.63783996
0.05700000 1403444.71277261 19535.95131370
0.05800000 1395548.30322552 12350.60306023
0.05900000 1387560.74126233 13736.85198009
0.06000000 1379486.36369688 17671.22114454
0.06100000 1371326.22206299 14028.66790728
0.06200000 1363082.33283419 18033.58010635
0.06300000 1354758.33272519 13005.68060225
0.06400000 1346352.66128859 15752.32687376
0.06500000 1337871.47010532 15893.91380833
0.06600000 1329315.50351646 18703.47000958
0.06700000 1320686.50582619 16165.20358783
0.06800000 1311987.81294787 16294.88939956
0.06900000 1303222.04642147 16420.59855371
0.07000000 1294389.39826626 13785.24773708
0.07100000 1285493.55017457 19436.66338901
0.07200000 1276536.70144448 18171.50079634
0.07300000 1267521.22538301 16883.38351318
0.07400000 1258449.83818616 16989.07361169
0.07500000 1249324.15343399 19939.21442341
0.07600000 1240145.08453552 14323.67639789
0.07700000 1230917.95295220 17282.08886978
0.07800000 1221642.81499601 15924.11484025
0.07900000 1212321.76488947 18912.22041933
0.08000000 1202959.68775545 21923.94133782
0.08100000 1193556.55600349 17616.89559316
0.08200000 1184114.36556802 19164.89190603
0.08300000 1174636.92448134 19240.55372600
0.08400000 1165125.43263512 19311.95495240
0.08500000 1155582.66911408 20869.82398394
0.08600000 1146010.11042027 20937.60570043
0.08700000 1136411.88252518 15000.63755373
0.08800000 1126787.16729576 21059.65314580
0.08900000 1117141.61272066 22622.11872015
0.09000000 1107474.97007100 19652.14426708
0.09100000 1097790.01644572 24239.20470191
0.09200000 1088088.12336825 18214.59604103
0.09300000 1078375.59852409 15205.09665371
0.09400000 1068647.80017119 24365.17098900
0.09500000 1058911.35099689 18297.98900528
0.09600000 1049166.82081284 16791.91575646
0.09700000 1039418.73903757 22919.18427327
0.09800000 1029667.39430977 18348.67382931
0.09900000 1019915.25879307 19888.34848166
0.10000000 1010162.78902292 18364.76036808
0.10100000 1000412.99457905 16836.95149064
0.10200000 990668.49524713 22958.74345725
0.10300000 980930.09816636 16832.76127636
0.10400000 971201.46167660 26003.92035975
0.10500000 961484.87048080 16816.37117591
0.10600001 951777.95853308 24441.65912520
0.10700001 942087.58996066 15261.81967555
0.10800001 932412.95557183 21342.93355747
0.10900001 922757.33927909 22838.24522205
0.11000001 913120.75413291 21284.84578071
0.11100001 903506.41149468 19732.58095592
0.11200001 893915.56660769 18182.24348077
0.11300001 884350.04875413 19659.10250937
0.11400001 874811.78143508 25653.85669848
0.11500001 865302.73344200 16561.89509795
0.11600001 855823.81688911 16521.67956307
0.11700001 846377.76668420 17977.06461100
0.11800001 836963.84193779 14939.80528223
0.11900001 827584.94582752 14896.52972655
0.12000001 818241.74920899 28217.06805063
0.12100001 808939.52029312 23685.75026997
0.12200001 799675.45761248 17704.81546564
0.12300001 790453.49499226 17642.92283946
0.12400001 781273.06893959 17578.64487940
0.12500001 772135.55317182 14593.36264259
0.12600001 763045.53168113 18896.82348257
0.12700001 754001.24828793 15924.50711431
0.12800001 745004.60693880 14415.83982367
0.12900001 736057.28272760 14353.11768968
0.13000001 727160.74953464 21433.06410278
0.13100001 718315.30549933 21333.96557896
0.13200001 709522.09631325 15570.46313759
0.13300001 700783.66264350 16902.90273981
0.13400001 692098.95138572 19621.00619683
0.13500001 683471.30014781 13942.81518039
0.13600001 674900.28710495 15256.12170935
0.13700001 666387.63087214 22070.75937519
0.13800001 657932.44740849 15089.68139288
0.13900001 649538.64325995 16368.37458205
0.14000001 641204.46117885 13561.47499350
0.14100001 632933.26721334 13481.47922747
0.14200001 624723.94390643 13400.32922882
0.14300001 616578.54439992 14649.90690594
0.14400001 608494.57802177 15881.70923551
0.14500001 600478.01907443 15780.56308568
0.14600001 592526.28465561 13065.20519300
0.14700001 584641.60256304 12979.04418921
0.14800001 576821.28881087 18048.73897841
0.14900001 569069.48365742 14084.47038504
0.15000001 561385.49001843 17801.53472841
0.15100001 553769.73868494 15151.14076533
0.15200001 546224.24885724 13789.43181308
0.15300001 538747.73858955 21156.62469277
0.15400001 531339.62771732 12353.64692741
0.15500001 524003.47241646 17166.35456649
0.15600001 516736.12445518 15819.87719681
0.15700001 509542.63182672 13283.77703867
0.15800001 502417.51669644 14379.19000653
0.15900001 495366.10398002 16644.30187935
0.16000001 488384.21565410 11794.47936477
0.16100001 481477.09446107 14039.87273723
0.16200001 474641.62684937 11604.98832429
0.16300001 467878.23284966 21868.62963576
0.16400001 461187.87868726 12555.84059002
0.16500001 454569.63884240 12450.66299571
0.16600001 448024.70008971 14589.92504726
0.16700001 441552.48216060 11127.12307581
0.16800001 435152.96167332 17649.80495883
0.16900001 428827.52564806 13122.12290443
0.17000001 422573.52640798 16258.51719627
0.17100001 416393.57286980 11817.25015607
0.17200001 410286.21480392 11711.62055463
0.17300001 404251.09924670 21101.90837720
0.17400001 398290.25884192 18819.21561904
0.17500001 392400.33369918 12431.24315869
0.17600001 386581.86734648 11290.12396908
0.17700001 380838.43157834 15252.57990510
0.17800001 375164.99988617 13095.13493954
0.17900001 369563.34658240 9978.21082903
0.18000001 364034.20139533 10871.88193821
0.18100001 358577.14007875 13704.81894118
0.18200001 353188.74844361 14542.54740413
0.18300001 347871.78913991 9601.26183382
0.18400001 342625.50938525 13311.00166844
0.18500001 337449.24766791 9414.83445471
0.18600001 332342.95215074 9322.22024824
0.18700001 327305.35124108 11076.01360928
0.18800001 322335.06673571 10965.83948844
0.18900001 317436.71865976 11761.03098202
0.19000001 312602.36152100 11642.87550496
0.19100001 307838.33743360 12412.04235179
0.19200001 303140.06271873 13163.85784557
0.19300001 298509.93441154 11292.63135239
0.19400001 293944.25519081 11177.23083180
0.19500001 289445.18504487 13615.50214791
0.19600001 285010.02811855 9264.25140179
0.19700001 280641.26081200 11669.06417601
0.19800001 276335.28830924 11548.05224419
0.19900001 272093.24544168 9795.35729883
0.20000001 267912.77371651 12116.35576396
0.20100001 263796.35080649 9591.63576865
0.20200001 259740.42485091 9490.91557263
0.20300001 255746.11753627 9390.99787979
0.20400001 251812.90304887 10066.22127517
0.20500001 247938.95215717 8427.44538216
0.20600001 244123.62536578 12886.06617403
0.20700001 240368.10955038 8249.43390971
0.20800001 236669.66529316 8161.55379343
0.20900001 233031.21595340 8074.53201448
0.21000001 229446.44210061 9440.57430651
0.21100001 225919.27837536 7902.65673116
0.21200001 222446.54931471 9239.31786257
0.21300001 219028.65631378 7030.82020006
0.21400001 215665.27070590 8346.24637090
0.21500001 212356.27051696 11696.58393306
0.21600001 209098.48115157 10889.84941323
0.21700001 205893.39961064 8752.52883126
0.21800001 202739.88872637 7326.00622551
0.21900001 199636.45460186 8564.40430736
0.22000001 196582.47538099 6516.70936701
0.22100001 193579.60135879 7090.82113305
0.22200001 190624.32389550 6376.38393581
0.22300001 187716.82772510 9460.92856471
0.22400001 184856.32219682 8110.57151990
0.22500001 182044.38094770 8639.82672833
0.22600001 179276.31224437 8546.10220882
0.22700001 176554.57716167 7849.61687181
0.22800001 173876.85222469 8361.73821891
0.22900001 171242.36504484 8861.79281015
0.23000001 168651.65583298 7596.91419627
0.23100001 166104.82946481 7514.58284037
0.23200001 163597.80876524 7433.06679278
0.23300001 161133.10575031 7918.08119105
0.23400001 158708.29402919 6713.36115495
0.23500001 156322.81639059 5533.82796196
0.23600001 153976.99562288 6021.27069862
0.23700001 151669.95044540 7580.46448180
0.23800001 149400.31169111 5891.60157020
0.23900001 147168.00334077 5827.85320795
0.24000001 144971.82052278 7861.09733968
0.24100001 142812.61670962 6739.32770131
0.24200001 140688.84694033 6153.73045625
0.24300001 138598.86638002 7101.80624925
0.24400001 136543.42090715 6523.36224242
0.24500001 134520.81753761 5460.20024214
0.24600001 132531.50089674 5401.32157456
0.24700001 130574.78394776 4857.38219264
0.24800001 128649.45600436 4805.05740907
0.24900001 126754.25307340 5703.94165814
0.25000001 124890.72197821 6112.77667641
0.25100001 123056.28744408 5116.68067399
0.25200001 121252.99474892 5521.86164210
0.25300001 119477.10058381 5007.28552236
0.25400001 117730.49269213 4953.51071438
0.25500001 116010.20735860 4900.27139067
0.25600001 114318.22649725 5729.05819197
0.25700001 112652.25202146 4795.60659545
0.25800001 111012.56250090 4744.12208294
0.25900001 109399.33645725 5973.20405319
0.26000001 107810.52759933 4642.86059074
0.26100001 106245.98986978 5428.10787928
0.26200001 104707.19421407 4956.83880864
0.26300001 103190.28164103 4903.60241561
0.26400001 101698.14284796 6063.75205424
0.26500001 100228.39204644 4798.93563826
0.26600001 98780.84172428  6329.87663722
0.26700001 97355.40095524  3913.68730360
0.26800001 95951.90784565  5033.15756422
0.26900001 94568.75561964  5362.04869737
0.27000001 93207.15452843  3788.87101088
0.27100001 91865.22138566  3748.10120991
0.27200001 90544.20973172  4449.34267677
0.27300001 89242.29781641  4401.43033660
0.27400001 87958.43893815  4353.94293349
0.27500001 86695.28587674  3948.10350567
0.27600001 85448.29414778  4260.45214784
0.27700001 84221.59516523  4916.85695844
0.27800001 83011.52706327  4516.24234362
0.27900001 81819.29897756  4467.33393560
0.28000001 80643.80125715  4078.96366064
0.28100001 79485.53508310  4370.90978109
0.28200001 78343.97120650  3990.84208214
0.28300001 77218.51129736  4605.31223174
0.28400001 76108.36878348  5205.81267119
0.28500001 75014.49823210  3218.12212648
0.28600001 73935.95203065  4456.12003980
0.28700001 72873.05992234  4092.55123895
0.28800001 71823.53356900  3113.55032759
0.28900001 70790.41107779  5850.82775252
0.29000001 69770.75802881  4263.69122496
0.29100001 68765.98916505  3313.14551480
0.29200001 67774.68169877  4765.91584265
0.29300001 66797.42084530  3829.49631833
0.29400001 65832.96373783  3204.41966162
0.29500001 64883.19156326  3456.97661013
0.29600001 63945.11653513  4273.13261474
0.29700001 63020.65571204  3098.72578805
0.29800001 62109.13359911  4178.39216068
0.29900001 61210.40190899  3029.91503793
0.30000001 60323.30583574  2995.95712616
0.30100001 59449.41516589  4039.58795176
0.30200001 58586.63154066  3727.86754141
0.30300001 57736.77774404  2896.07690874
0.30400001 56898.30018749  2603.09735681
0.30500001 56072.11083011  2573.71000895
0.30600001 55256.25907692  3816.82627644
0.30700001 54452.65198938  3018.85516921
0.30800001 53660.08354958  3233.28848736
0.30900001 52878.93195358  2950.64454271
0.31000001 52108.69615522  3403.21910702
0.31100001 51349.00421235  3364.38691528
0.31200001 50601.15330520  3088.44153821
0.31300001 49863.15210620  3522.83186310
0.31400001 49137.21881523  2786.08043873
0.31500001 48420.64871892  2754.16662953
0.31600002 47715.49360902  3630.19492565
0.31700002 47020.08156306  2915.71539578
0.31800002 46334.83343949  2660.54626207
0.31900002 45660.57734561  2410.87859800
0.32000002 44996.49151317  3249.87175342
0.32100002 44342.15770573  2784.24421418
0.32200002 43698.81991647  2117.20792520
0.32300002 43063.77384470  2930.05931113
0.32400002 42439.88295076  2068.94439182
0.32500002 41825.59978153  2249.79911878
0.32600002 41221.47205272  2021.91329993
0.32700002 40627.10322291  2798.39500251
0.32800002 40043.19939455  2371.35838044
0.32900002 39467.04547162  2344.34261203
0.33000002 38902.09970245  2510.93614420
0.33100002 38345.54084436  2100.56882693
0.33200002 37800.14855646  2454.55276275
0.33300002 37263.36860640  2987.03176894
0.33400002 36736.83489395  2030.62864492
0.33500002 36219.02382967  2373.07055370
0.33600002 35710.49223696  2166.19856168
0.33700002 35211.25213702  2142.25268147
0.33800002 34722.21572243  1942.18722841
0.33900002 34241.60448011  2444.85067566
0.34000002 33770.49074797  2072.83282028
0.34100002 33308.52333186  1879.60006063
0.34200002 32856.49632954  2197.60686108
0.34300002 32413.06918100  2007.01733874
0.34400002 31979.35434402  2316.90433195
0.34500002 31554.27931743  2292.73404379
0.34600002 31138.67956238  2431.15252197
0.34700002 30731.20163063  2085.41944142
0.34800002 30333.52994191  1746.75640443
0.34900002 29944.33987928  2043.70129355
0.35000002 29564.34561772  2490.50059279
0.35100002 29194.09046517  1695.59285452
0.35200002 28830.93608057  1984.57757910
0.35300002 28477.87686343  2268.26299960
0.35400002 28133.14972299  2696.56252867
0.35500002 27797.48610626  1632.82441122
0.35600002 27469.84161439  1618.11109694
0.35700002 27151.01551174  1458.00960204
0.35800002 26840.90405965  1589.92102728
0.35900002 26540.01344531  1576.47687332
0.36000002 26247.30758257  1989.80848208
0.36100002 25962.29774628  1691.70340128
0.36200002 25687.33197887  1538.54282175
0.36300002 25419.38787605  1804.26823690
0.36400002 25160.21452430  1790.77835359
0.36500002 24908.46605781  1777.71730675
0.36600002 24665.96869737  1629.43396933
0.36700002 24430.95807229  1483.44784442
0.36800002 24204.89487014  1607.68919343
0.36900002 23986.64212633  1730.63631139
0.37000002 23775.77907582  1455.43438507
0.37100002 23572.66798945  1709.96141696
0.37200002 23378.20018128  1569.61243452
0.37300002 23191.09779519  1431.12271273
0.37400002 23011.65847737  1941.60877600
0.37500002 22840.06578852  1416.99774864
0.37600002 22676.00554818  1923.49226174
0.37700002 22519.29660829  2042.95068508
0.37800002 22370.04575482  1398.91087755
0.37900002 22229.02959436  1267.05474690
0.38000002 22094.37572447  1767.77108546
0.38100002 21966.32490554  1510.40457206
0.38200002 21846.54450874  1506.10084978
0.38300002 21732.83593662  1502.17369110
0.38400002 21626.73342599  1248.94391452
0.38500002 21526.78452274  1620.32114779
0.38600002 21434.53192268  1617.55702818
0.38700002 21348.03012380  1242.45541207
0.38800002 21268.21005446  1365.10012702
0.38900002 21194.85739215  1611.86898104
0.39000002 21128.50874008  1363.10580594
0.39100002 21067.49538301  1362.64566593
0.39200002 21013.41083034  1362.61468985
0.39300002 20964.74967688  1239.01676460
0.39400002 20923.33682802  1611.62009553
0.39500002 20886.46844964  1612.85317009
0.39600002 20855.71582997  1614.54531747
0.39700002 20829.99762592  1616.61619234
0.39800002 20810.93344874  1370.08786851
0.39900002 20796.43320912  1497.34326200
0.40000002 20787.48011703  1625.47708476
0.40100002 20783.53747400  1378.57210597
0.40200002 20785.13018094  1759.04565056
0.40300002 20791.37668863  1889.93623054
0.40400002 20802.51952872  1390.12843337
0.40500002 20818.06429849  1394.60219343
0.40600002 20839.07103731  1526.67041653
0.40700002 20864.07793393  1532.25795607
0.40800002 20893.38394031  1794.53283166
0.40900002 20926.50170367  1673.07389048
0.41000002 20964.57943799  1292.46638359
0.41100002 21006.30952456  1298.18999013
0.41200002 21051.24350705  1304.12459705
0.41300002 21101.22679949  1441.42487097
0.41400002 21154.05445728  2238.62791901
0.41500002 21210.44836070  1455.88524446
0.41600002 21269.50450526  1596.48908381
0.41700002 21333.22750142  1337.59342772
0.41800002 21400.14007184  1479.49875397
0.41900002 21468.58911962  1487.77329649
0.42000002 21540.40239964  1496.30412359
0.42100002 21615.73381305  1368.27601520
0.42200002 21693.45881765  1651.74003264
0.42300002 21773.31315690  1523.26106064
0.42400002 21855.51968819  1532.61839076
0.42500002 21940.41429081  2102.98880943
0.42600002 22026.34922254  1975.10282838
0.42700002 22115.63274331  1703.78842728
0.42800002 22205.99256410  2000.53796490
0.42900002 22299.08624287  1869.77847007
0.43000002 22393.49365539  1592.51337677
0.43100002 22488.05366125  1748.67113556
0.43200002 22585.43275384  1760.30871225
0.43300002 22683.32174329  1624.35274701
0.43400002 22782.81784279  2527.18418897
0.43500002 22883.01641932  1646.20427922
0.43600002 22984.77683773  1807.98263173
0.43700002 23086.58505244  1971.82532277
0.43800002 23188.76477941  1832.37627970
0.43900002 23292.54094253  1691.03855257
0.44000002 23396.12985343  2321.48109472
0.44100002 23500.46837470  1558.08112708
0.44200002 23604.87770898  1725.39861790
0.44300002 23709.58264839  1579.05827921
0.44400002 23814.13501270  2861.26845737
0.44500002 23918.09491112  2080.15681300
0.44600002 24021.84403465  2093.86413451
0.44700002 24126.35521384  1621.29114721
0.44800002 24229.37334669  1958.21804668
0.44900002 24332.49559623  1806.68788364
0.45000002 24435.28316582  2148.96107986
0.45100002 24536.44368943  1829.92805708
0.45200002 24637.45781640  2511.17300695
0.45300002 24737.18526909  1853.06263633
0.45400002 24836.05130107  2034.07269796
0.45500002 24934.23193921  2387.70216366
0.45600002 25030.81913711  1887.44900649
0.45700002 25126.47808388  1898.80803879
0.45800002 25220.36890422  2083.70697762
0.45900002 25313.00491769  2619.89613315
0.46000002 25404.60027411  2108.07383066
0.46100002 25493.73124557  1943.38722496
0.46200002 25581.93524870  2131.99858467
0.46300002 25668.23716599  1786.50939142
0.46400002 25752.21956673  1975.83913990
0.46500002 25835.48391363  2167.08049338
0.46600002 25915.72647132  1996.93639789
0.46700002 25994.13593478  1824.78842911
0.46800002 26071.08602226  1834.10098860
0.46900002 26145.28386847  2396.21538012
0.47000002 26217.37745298  2222.70936581
0.47100002 26287.56717083  2233.39181269
0.47200002 26355.41626304  2430.89193424
0.47300002 26420.78994155  2254.22190466
0.47400002 26483.41382463  2641.72065422
0.47500002 26543.91580271  3032.37708503
0.47600002 26602.57757262  2093.75596709
0.47700002 26657.65657934  2675.89569427
