# SAXS profile: number of points = 501, q_min = 0, q_max = 0.5, delta_q = 0.001
#    q    intensity    error
0.00000000 1628779.37420969 293.18028736
0.00100000 1628699.39701762 586.33179685
0.00200000 1628459.39061643 1099.21012347
0.00300000 1628059.59677749 1465.25368930
0.00400000 1627499.87280420 1464.74994118
0.00500000 1626780.71499645 2196.15405217
0.00600000 1625902.00496657 1877.91689219
0.00700000 1624864.37124359 2534.78852449
0.00800000 1623667.55632323 2411.14642294
0.00900000 1622312.83247442 3163.51015856
0.01000000 1620799.51728127 2674.31931899
0.01100000 1619128.94340614 3497.31867003
0.01200000 1617300.95719776 3153.73700481
0.01300000 1615316.78461562 3731.38193703
0.01400000 1613176.31595069 5444.47030769
0.01500000 1610881.13029353 5412.56083880
0.01600000 1608430.44933719 5331.94717791
0.01700000 1605826.60588994 5202.87843648
0.01800000 1603069.49709274 5482.49792676
0.01900000 1600159.72976481 5280.52734649
0.02000000 1597098.56837113 5533.94678974
0.02100000 1593887.96661663 7363.76273963
0.02200000 1590526.39840216 7682.24285330
0.02300000 1587017.19389688 6284.58837390
0.02400000 1583359.67154022 8312.63865462
0.02500000 1579556.41435259 6160.27029732
0.02600000 1575607.52944373 7019.33186472
0.02700000 1571515.10412084 8580.47286149
0.02800000 1567278.85238924 8862.96231671
0.02900000 1562901.24803711 10549.58390863
0.03000000 1558383.64381513 9420.42955988
0.03100000 1553726.50214501 8203.67630880
0.03200000 1548931.00292023 13034.25498991
0.03300000 1544001.05983224 9449.28692179
0.03400000 1538935.03292666 8079.40929565
0.03500000 1533735.66268752 9110.39025706
0.03600000 1528404.28800519 12723.96628567
0.03700000 1522942.93421592 10416.93015179
0.03800000 1517352.79300530 9764.16567487
0.03900000 1511635.95257763 9069.81613549
0.04000000 1505792.30124713 11112.74769816
0.04100000 1499825.91898625 13228.46521882
0.04200000 1493737.28975056 10598.06656245
0.04300000 1487527.46560786 11781.21807447
0.04400000 1481199.94200862 9998.10007289
0.04500000 1474756.27633757 13228.56441341
0.04600000 1468195.81258833 16561.24953588
0.04700000 1461523.32578086 10522.96843502
0.04800000 1454738.98836999 10692.33206201
0.04900000 1447846.33658379 16288.27204475
0.05000000 1440845.42932273 13226.96165711
0.05100000 1433740.24932566 14538.12680541
0.05200000 1426529.53987645 15877.27451873
0.05300000 1419218.95944920 12645.24151819
0.05400000 1411808.39107775 19800.61360824
0.05500000 1404300.59515264 12975.73810452
0.05600000 1396696.37314230 17912.63182143
0.05700000 1389000.78976962 13292.73817858
0.05800000 1381213.18199782 13446.11095458
0.05900000 1373335.42389978 13596.02133162
0.06000000 1365371.68821909 16241.09699013
0.06100000 1357323.22855182 13885.41727697
0.06200000 1349192.06678954 17849.81187799
0.06300000 1340981.67468912 15448.10961470
0.06400000 1332690.28907873 15592.47711143
0.06500000 1324323.93114295 14421.88828477
0.06600000 1315884.38038714 17192.03023415
0.06700000 1307371.63300298 18669.26779298
0.06800000 1298790.38823049 25540.71418009
0.06900000 1290142.36315763 14901.14499213
0.07000000 1281428.34097398 15011.93371750
0.07100000 1272651.47652178 15119.10024922
0.07200000 1263814.25470041 13838.76673727
0.07300000 1254918.98157095 13929.60134812
0.07400000 1245968.20677275 21025.71447464
0.07500000 1236963.06110391 15511.51751331
0.07600000 1227905.23833146 18436.99801788
0.07700000 1218799.76046854 14259.95786611
0.07800000 1209646.48340610 17201.17380070
0.07900000 1200447.89923492 17286.45055978
0.08000000 1191207.88733706 15920.49416111
0.08100000 1181927.09712853 23260.32636282
0.08200000 1172607.47663064 27738.03116131
0.08300000 1163253.05516445 19054.08593784
0.08400000 1153864.16631083 17654.12257322
0.08500000 1144444.25674728 22144.99740766
0.08600000 1134994.37345415 17774.01272281
0.08700000 1125518.80363506 20799.58846788
0.08800000 1116016.78223480 20858.35463956
0.08900000 1106494.02271365 22406.50501238
0.09000000 1096949.10578650 25454.70519552
0.09100000 1087386.14128954 15005.92945479
0.09200000 1077806.65238794 24056.64561164
0.09300000 1068215.44596374 25605.12544299
0.09400000 1058608.97640356 16593.69648499
0.09500000 1048993.54453218 18126.60930152
0.09600000 1039369.46966406 16635.10914395
0.09700000 1029741.89736115 15137.20660285
0.09800000 1020110.12958288 16663.49975022
0.09900000 1010477.00415374 21220.01808505
0.10000000 1000843.50639402 19711.61378541
0.10100000 991211.75729234 19715.20277979
0.10200000 981585.02117422 16682.03821952
0.10300000 971963.77046084 22743.95329868
0.10400000 962351.51931929 18188.44457081
0.10500000 952750.72558209 16663.61097444
0.10600001 943158.91735694 16651.47146945
0.10700001 933582.86487825 15124.04312273
0.10800001 924021.80362241 16618.53292025
0.10900001 914479.36528278 18106.69228480
0.11000001 904955.01822548 16574.25193894
0.11100001 895451.81924527 21061.02778006
0.11200001 885971.57596603 24027.55027135
0.11300001 876515.44362399 26979.14662495
0.11400001 867086.24880928 14957.23849621
0.11500001 857684.73260080 23877.94407997
0.11600001 848312.82380299 16376.67983472
0.11700001 838972.72991118 16334.79982066
0.11800001 829663.71354234 17771.39758108
0.11900001 820388.84629031 19197.09990741
0.12000001 811148.95550081 16194.58965942
0.12100001 801948.51431274 16143.22435359
0.12200001 792785.50115561 14626.89318541
0.12300001 783663.20226012 16033.74987366
0.12400001 774581.59577760 18880.42728668
0.12500001 765542.17361334 17362.49731568
0.12600001 756548.65272629 18735.92826767
0.12700001 747599.67265297 15789.30583052
0.12800001 738697.38530767 15723.17458730
0.12900001 729843.36351760 15655.14088531
0.13000001 721038.90221745 15585.25660604
0.13100001 712284.19280105 14103.22768225
0.13200001 703580.72308869 15440.07969603
0.13300001 694930.33938674 18158.53062422
0.13400001 686333.51159391 15288.07969152
0.13500001 677791.72248873 16592.34214882
0.13600001 669305.60163444 15129.65383832
0.13700001 660876.82426388 16416.18108879
0.13800001 652504.20388802 14965.18462187
0.13900001 644191.18990037 18939.22187621
0.14000001 635936.94091033 21520.10709531
0.14100001 627744.50704547 20056.43794602
0.14200001 619612.55398148 14619.75890074
0.14300001 611543.18051302 17172.13331877
0.14400001 603534.33911786 14439.55974451
0.14500001 595591.21395735 19565.17230143
0.14600001 587711.98201743 14254.95479630
0.14700001 579898.37057530 14161.11887752
0.14800001 572147.83703286 14066.25523708
0.14900001 564465.12052132 16510.60555423
0.15000001 556848.28053360 15135.13697902
0.15100001 549298.59515830 21290.81455294
0.15200001 541817.66609794 19895.54563793
0.15300001 534404.86801827 14813.70364051
0.15400001 527059.04938093 12254.12347639
0.15500001 519783.98485588 15811.82956552
0.15600001 512576.74239657 14485.41942377
0.15700001 505441.69101565 13176.86550668
0.15800001 498374.20800300 15452.09304845
0.15900001 491379.01182608 14151.71620856
0.16000001 484451.97363619 14039.41885867
0.16100001 477598.65910710 12766.21276055
0.16200001 470815.72898237 11511.44511703
0.16300001 464103.77459908 15983.73475175
0.16400001 457463.52051046 16983.33400073
0.16500001 450894.28896829 12349.99515790
0.16600001 444397.04424755 17811.43437437
0.16700001 437971.33802869 15451.62953520
0.16800001 431617.87269858 14223.96766639
0.16900001 425336.78588922 10846.08855231
0.17000001 419126.31045311 11825.64940784
0.17100001 412988.26089211 14917.13668783
0.17200001 406922.33642058 10559.63512877
0.17300001 400927.19404944 11510.62028474
0.17400001 395005.29841317 16590.22331684
0.17500001 389153.46156486 15410.47780577
0.17600001 383371.73984489 11196.37219096
0.17700001 377664.17136527 12100.36062205
0.17800001 372025.82814686 11986.67274905
0.17900001 366458.27137553 9894.37379449
0.18000001 360962.03879821 14700.17972442
0.18100001 355536.67080460 13588.61220003
0.18200001 350179.52678444 14418.64269646
0.18300001 344892.54697802 10470.93822089
0.18400001 339675.43137883 12253.79176587
0.18500001 334527.50505273 11199.98139828
0.18600001 329448.59729770 12937.44702709
0.18700001 324437.68855546 11893.88622437
0.18800001 319493.48645540 9057.64076895
0.18900001 314620.08609042 11656.67474040
0.19000001 309809.57931706 8876.04486682
0.19100001 305069.02210945 9664.58707708
0.19200001 300393.19935891 10435.66023883
0.19300001 295784.81727561 11189.54016627
0.19400001 291240.27053801 14481.92313683
0.19500001 286761.28224748 12646.17314471
0.19600001 282346.07179163 12514.99022358
0.19700001 277996.26590354 9907.78738502
0.19800001 273708.60231983 11438.28303150
0.19900001 269484.47755755 9701.44165056
0.20000001 265320.88380384 8799.36752722
0.20100001 261220.92571101 8706.49386544
0.20200001 257180.76327860 9397.38553435
0.20300001 253201.76762398 9297.56934660
0.20400001 249283.67810601 9965.11550330
0.20500001 245423.69595628 8341.95181985
0.20600001 241622.16667137 8252.60549274
0.20700001 237879.78168188 8164.03449323
0.20800001 234193.97749321 11747.17046635
0.20900001 230567.96213646 10168.04761087
0.21000001 226995.07949463 9339.71298732
0.21100001 223479.20811861 7817.30306954
0.21200001 220017.50602471 8435.47157977
0.21300001 216610.33905421 7648.51143359
0.21400001 213257.37558781 7565.30575664
0.21500001 209958.12606897 7482.90796687
0.21600001 206710.00025548 8074.09299171
0.21700001 203514.32179296 6654.91863727
0.21800001 200369.63370825 9873.21416779
0.21900001 197274.99268238 8463.09758622
0.22000001 194229.61072141 7726.45427982
0.22100001 191234.67316840 7004.92640938
0.22200001 188287.62607742 8187.68780713
0.22300001 185387.86581123 7474.83910296
0.22400001 182534.90826817 7392.66413443
0.22500001 179730.18886334 6092.85369058
0.22600001 176969.40663138 9038.71287112
0.22700001 174254.64187117 5959.50903381
0.22800001 171583.84466624 7072.68641161
0.22900001 168956.26490367 7577.68883929
0.23000001 166372.18947623 6917.75596557
0.23100001 163831.95408889 7411.75795350
0.23200001 161331.30879378 7330.08836171
0.23300001 158873.06715093 5576.44492073
0.23400001 156454.65817066 7721.03774589
0.23500001 154075.43696978 7090.55194471
0.23600001 151735.78281900 8091.31100152
0.23700001 149435.24057015 6935.28984289
0.23800001 147171.85722210 6331.33359716
0.23900001 144945.86612710 8348.88228382
0.24000001 142756.03701287 5676.69408033
0.24100001 140603.12247976 8676.61909864
0.24200001 138485.65041475 5552.58241603
0.24300001 136402.17066093 5491.55165057
0.24400001 134353.30146476 5431.23246863
0.24500001 132337.08452422 5371.56251494
0.24600001 130354.45981893 7244.44944714
0.24700001 128404.41597153 6687.30230015
0.24800001 126485.88748012 6613.94736922
0.24900001 124597.69860532 5139.65531061
0.25000001 122741.16344132 5545.44602662
0.25100001 120913.79063943 5941.70395312
0.25200001 119117.82549254 5424.62602957
0.25300001 117349.49840227 5812.32093085
0.25400001 115610.47840544 5306.52120987
0.25500001 113897.78217651 4373.67504250
0.25600001 112213.65656544 4325.83666526
0.25700001 110555.61868190 5134.20317450
0.25800001 108924.17060688 5924.38591962
0.25900001 107319.14823099 5022.53637485
0.26000001 105739.10447086 4967.62336309
0.26100001 104183.07990167 4094.39523387
0.26200001 102653.19082536 4859.60228361
0.26300001 101145.34806558 4405.89157021
0.26400001 99662.54728397  6338.53830719
0.26500001 98202.15137951  3918.26602545
0.26600001 96764.23700795  4650.48945066
0.26700001 95348.65366692  4982.92087643
0.26800001 93955.08449758  5307.52297442
0.26900001 92582.32088886  4499.50100812
0.27000001 91231.04764547  4821.10494097
0.27100001 89899.80572141  4768.28592111
0.27200001 88589.50499560  4353.28848150
0.27300001 87298.66775756  5381.96312195
0.27400001 86026.00994540  4258.28769382
0.27500001 84774.46249307  4211.59549597
0.27600001 83539.09588427  3471.04959826
0.27700001 82324.23180026  5835.96506852
0.27800001 81126.14736924  4074.15531370
0.27900001 79946.22946954  3357.74179664
0.28000001 78783.27418836  3984.85819704
0.28100001 77637.54073752  6896.54307012
0.28200001 76508.90041489  4222.14386923
0.28300001 75396.47190395  3854.26782615
0.28400001 74299.50823898  3493.93454031
0.28500001 73219.12543692  3769.32075590
0.28600001 72154.04018279  3416.85473458
0.28700001 71104.99447055  3686.08308782
0.28800001 70069.48359683  4556.26838655
0.28900001 69050.28600403  4205.16261669
0.29000001 68045.16582127  4158.24028016
0.29100001 67054.80842553  3818.10097248
0.29200001 66078.22140007  3194.55176480
0.29300001 65115.67675689  3158.76162900
0.29400001 64166.13765117  2839.35172547
0.29500001 63231.51687546  3088.22743038
0.29600001 62308.66075558  3331.02116168
0.29700001 61399.68774173  3019.02278918
0.29800001 60503.73642540  4341.74833142
0.29900001 59620.65793709  2682.92973418
0.30000001 58749.44455406  3183.04505662
0.30100001 57891.43692434  3933.72332523
0.30200001 57044.70140762  3111.21816206
0.30300001 56210.97808333  4613.79729950
0.30400001 55388.79849486  3801.05647666
0.30500001 54578.90440845  3507.24056333
0.30600001 53779.49164789  3714.81856145
0.30700001 52992.41953099  3182.72486771
0.30800001 52216.39418957  2420.22998527
0.30900001 51451.84606913  3349.51533768
0.31000001 50698.48360077  2601.59280915
0.31100001 49955.55664844  3273.08822657
0.31200001 49224.64234981  2773.31648129
0.31300001 48503.54641784  2512.96885889
0.31400001 47794.59711377  2935.78326671
0.31500001 47095.05179923  2901.99722927
0.31600002 46406.93689872  3530.63992642
0.31700002 45728.56724675  2399.37803704
0.31800002 45060.36809447  2371.75258695
0.31900002 44403.13505691  2983.89081711
0.32000002 43756.19324708  2317.54688507
0.32100002 43119.04286130  2290.91485570
0.32200002 42492.66984569  2264.64694666
0.32300002 41874.73302892  2238.62333373
0.32400002 41267.91944396  2414.17340179
0.32500002 40670.73997979  2187.67920710
0.32600002 40083.57375241  2555.92920135
0.32700002 39506.00151452  2526.80397652
0.32800002 38939.07984650  2882.46552213
0.32900002 38379.79074630  2469.73965148
0.33000002 37831.63983573  2066.17510747
0.33100002 37291.84024837  2414.27385201
0.33200002 36763.03389323  2019.94499292
0.33300002 36242.92795846  2905.23324273
0.33400002 35732.96869982  2334.25629086
0.33500002 35231.56328597  2130.80504844
0.33600002 34739.27911215  2634.10596342
0.33700002 34256.41352749  2431.52034733
0.33800002 33783.51693167  2233.25949253
0.33900002 33318.97310237  2209.04802130
0.34000002 32863.70387963  2017.17423966
0.34100002 32417.61384360  2161.93076962
0.34200002 31981.32800175  2303.61516506
0.34300002 31553.52296367  2116.61042064
0.34400002 31135.16060725  1933.49356528
0.34500002 30725.35078804  2232.50409399
0.34600002 30325.02988742  1578.41788039
0.34700002 29932.46842556  2343.71238872
0.34800002 29549.66830324  2011.00277162
0.34900002 29175.29376454  1838.04359422
0.35000002 28809.90023193  2426.94611048
0.35100002 28454.00914228  2103.32045542
0.35200002 28105.05222367  2083.42762002
0.35300002 27766.15007222  1769.25916640
0.35400002 27435.36670001  1607.02668057
0.35500002 27113.44703759  2027.00139654
0.35600002 26799.30780814  1578.61330121
0.35700002 26493.87175040  1991.80937254
0.35800002 26197.04697851  1833.92436059
0.35900002 25909.13586654  1958.73076429
0.36000002 25629.15511754  1804.16445996
0.36100002 25356.88104567  1376.87870600
0.36200002 25094.34070513  1776.30299095
0.36300002 24838.69215135  1627.43118684
0.36400002 24591.67044698  2558.14863942
0.36500002 24351.84036305  2005.37414889
0.36600002 24120.96755809  1859.00305776
0.36700002 23897.48994705  1978.71226134
0.36800002 23682.74767470  1704.09218965
0.36900002 23475.54750838  2084.62871749
0.37000002 23275.63358064  1424.81797713
0.37100002 23083.18146104  1674.45406250
0.37200002 22899.17600860  1537.45075005
0.37300002 22722.38927559  1529.67131849
0.37400002 22552.99039680  1268.60576991
0.37500002 22391.25765183  1515.44038966
0.37600002 22237.02020364  1383.25390729
0.37700002 22089.70287513  1502.98345482
0.37800002 21949.91355647  1996.56423168
0.37900002 21817.79858467  1492.33749389
0.38000002 21692.00735474  1239.69827905
0.38100002 21572.60726781  1977.77672801
0.38200002 21461.40554960  1479.54936868
0.38300002 21355.91196902  1722.14082277
0.38400002 21257.90312112  1350.40835974
0.38500002 21165.85919124  1470.60396628
0.38600002 21081.29464241  1346.14613316
0.38700002 21002.27088958  1466.79866842
0.38800002 20929.81773627  1709.75689188
0.38900002 20863.54863044  1708.72471379
0.39000002 20804.17008552  1342.18109665
0.39100002 20750.02131693  2074.17222911
0.39200002 20702.24589597  1220.39745339
0.39300002 20660.11815413  1465.21564891
0.39400002 20624.75470684  1710.82348399
0.39500002 20594.05101190  1467.94402568
0.39600002 20569.17748632  1347.38403508
0.39700002 20549.06935495  1594.81334820
0.39800002 20535.55006134  1966.48436704
0.39900002 20526.32225473  1231.57939363
0.40000002 20522.66796129  1357.88238999
0.40100002 20523.69027558  1608.85215693
0.40200002 20530.15066576  1489.25719985
0.40300002 20541.03393976  1618.22273045
0.40400002 20556.69852144  1248.81949435
0.40500002 20576.67017466  1629.05505491
0.40600002 20601.93132011  1383.52276335
0.40700002 20631.15434522  1893.94005863
0.40800002 20664.32214421  2155.18558015
0.40900002 20701.31827157  2164.32292784
0.41000002 20743.13036376  1406.69545227
0.41100002 20788.36712975  1670.13749434
0.41200002 20836.75474663  1678.08812303
0.41300002 20889.98542282  1556.72178747
0.41400002 20946.06078787  1434.28158041
0.41500002 21005.54663391  2883.64157854
0.41600002 21067.64088911  1581.33720007
0.41700002 21134.17490378  1457.62411218
0.41800002 21203.96064262  2132.27038326
0.41900002 21274.96793560  1474.35534780
0.42000002 21349.35478476  1752.67536410
0.42100002 21427.17347283  1763.24218863
0.42200002 21507.27170641  1774.02739077
0.42300002 21589.38704498  1922.31911357
0.42400002 21673.82046730  1658.04734432
0.42500002 21760.85924811  1807.67466340
0.42600002 21848.79209038  1679.29823964
0.42700002 21940.03477953  1971.97041943
0.42800002 22032.31334580  1559.55737408
0.42900002 22127.32226588  1569.93358916
0.43000002 22223.50412443  1580.42457070
0.43100002 22319.83563891  1590.95795973
0.43200002 22418.87738494  1892.93800170
0.43300002 22518.34723358  1612.53892181
0.43400002 22619.47375700  1623.51280584
0.43500002 22721.16440094  1783.15706669
0.43600002 22824.27711950  2094.58401052
0.43700002 22927.75357751  1656.98882957
0.43800002 23031.23135295  1819.92798776
0.43900002 23136.44135589  1832.40624222
0.44000002 23241.38041660  2152.38434238
0.44100002 23347.02875463  1702.69888777
0.44200002 23452.76335192  2337.65429788
0.44300002 23558.81716683  1569.01729767
0.44400002 23664.55669833  1579.60923447
0.44500002 23769.86423171  1908.24479096
0.44600002 23874.92981699  1920.97694411
0.44700002 23980.51265688  1772.63957960
0.44800002 24084.90193543  2108.75368889
0.44900002 24189.19323687  1796.04768296
0.45000002 24293.32889369  2629.51004407
0.45100002 24395.66427055  2481.03917390
0.45200002 24497.91934624  3329.26739694
0.45300002 24598.93128234  1675.18729972
0.45400002 24699.08114983  2022.85484204
0.45500002 24798.52310716  1865.84096701
0.45600002 24896.37505910  1877.31125030
0.45700002 24993.32735423  2060.45000473
0.45800002 25088.56491019  2072.81733112
0.45900002 25182.55034399  2085.11526731
0.46000002 25275.54767430  2621.70630677
0.46100002 25366.14667264  1933.66145250
0.46200002 25455.71470748  2651.84920534
0.46300002 25543.40244469  2311.16716273
0.46400002 25628.87366512  1966.37542515
0.46500002 25713.66201142  1977.12356576
0.46600002 25795.41571585  2710.45343481
0.46700002 25875.45946389  2179.74880855
0.46800002 25954.01313279  2008.45140147
0.46900002 26029.77917177  2385.62937416
0.47000002 26103.61639280  2028.64264412
0.47100002 26175.47525510  2779.83560385
0.47200002 26245.07646489  2234.50591613
0.47300002 26312.26189077  2244.96229093
0.47400002 26376.71474027  1879.34101432
0.47500002 26439.06398385  2076.52418371
0.47600002 26499.60729312  2275.25639003
0.47700002 26556.63219325  2856.16592776
