# SAXS profile: number of points = 501, q_min = 0, q_max = 0.5, delta_q = 0.001
#    q    intensity    error
0.00000000 1664650.74656090 249.69761198
0.00100000 1664569.81469851 699.11933878
0.00200000 1664326.96203273 823.84187229
0.00300000 1663922.40349420 1098.18882543
0.00400000 1663356.01481305 1372.26876436
0.00500000 1662628.28407248 1496.36551489
0.00600000 1661739.14541883 2617.23926059
0.00700000 1660689.13693435 2192.10975186
0.00800000 1659478.06276254 3360.44321897
0.00900000 1658107.18354566 4476.88958695
0.01000000 1656575.84894538 3006.68529566
0.01100000 1654885.32521833 3276.67308660
0.01200000 1653035.53787940 4512.78721627
0.01300000 1651027.67447480 4160.58992318
0.01400000 1648861.63056993 4080.93271657
0.01500000 1646538.94155354 4742.03236283
0.01600000 1644058.92992795 4611.58550460
0.01700000 1641423.92613483 6647.76719906
0.01800000 1638633.82369501 5137.11726844
0.01900000 1635689.13442761 4907.06762470
0.02000000 1632591.21925527 6685.46134527
0.02100000 1629342.04724875 8065.24349955
0.02200000 1625940.04095972 6170.44273578
0.02300000 1622388.53116348 6424.65887585
0.02400000 1618686.90887833 9105.11427761
0.02500000 1614837.80394114 6297.86772300
0.02600000 1610841.19640807 7828.68857261
0.02700000 1606699.16266499 7422.95047149
0.02800000 1602411.62360382 9061.63814704
0.02900000 1597980.95004828 7910.00606592
0.03000000 1593408.52853451 14818.69999652
0.03100000 1588694.60297496 8388.30788968
0.03200000 1583840.80873832 8624.01360079
0.03300000 1578850.79774573 10467.78127162
0.03400000 1573722.61576989 11566.86175961
0.03500000 1568459.65595746 11857.55554660
0.03600000 1563062.92324765 8674.99962493
0.03700000 1557534.53095249 11541.33140812
0.03800000 1551875.56141255 10894.16694529
0.03900000 1546088.25935721 11131.83598289
0.04000000 1540172.36097791 12313.67859662
0.04100000 1534132.13540021 10631.53619127
0.04200000 1527967.99088955 12812.01219799
0.04300000 1521681.18367277 14060.33478979
0.04400000 1515274.91322920 13296.53798110
0.04500000 1508750.64260929 12492.45590127
0.04600000 1502108.31625293 15884.79618281
0.04700000 1495352.14992278 10766.53598017
0.04800000 1488482.65210330 12034.38280219
0.04900000 1481503.39401363 12222.40356953
0.05000000 1474414.08522831 14663.04876040
0.05100000 1467219.04551837 18310.89454106
0.05200000 1459916.67222961 16248.87331913
0.05300000 1452513.33016875 12941.89437513
0.05400000 1445008.37919353 19074.11149485
0.05500000 1437404.61150373 13281.61922987
0.05600000 1429702.98329499 13446.35718535
0.05700000 1421908.61013366 14844.72658273
0.05800000 1414020.45699547 13765.48979159
0.05900000 1406041.12209707 21512.43017284
0.06000000 1397974.21544293 14070.61113580
0.06100000 1389821.23675606 15510.40572702
0.06200000 1381584.23170184 15667.16591984
0.06300000 1373266.36822901 19775.03662709
0.06400000 1364866.28012483 18630.42559499
0.06500000 1356390.07417948 22828.04601629
0.06600000 1347838.83370452 16254.93709502
0.06700000 1339213.92917106 16391.97926018
0.06800000 1330518.74312132 15147.95659950
0.06900000 1321755.30253411 19429.80385693
0.07000000 1312924.87979560 16779.18074953
0.07100000 1304030.37797077 16900.23449007
0.07200000 1295074.15379312 21271.59397256
0.07300000 1286058.87795310 17130.30505699
0.07400000 1276986.77698837 21549.15287156
0.07500000 1267859.16289500 15898.95464793
0.07600000 1258677.69243889 20352.81924089
0.07700000 1249447.45045552 17542.24302693
0.07800000 1240168.47384662 19104.79623555
0.07900000 1230842.85022338 25109.19532227
0.08000000 1221474.80605711 17809.10350776
0.08100000 1212064.89845929 16399.23884558
0.08200000 1202615.46648028 16469.81958630
0.08300000 1193129.53664600 15033.43286729
0.08400000 1183608.70951505 19618.31528107
0.08500000 1174055.42665486 18174.37885782
0.08600000 1164471.57236844 22794.53209935
0.08700000 1154860.92651479 19817.41442957
0.08800000 1145223.00448465 16817.60061067
0.08900000 1135563.04385728 16863.11199334
0.09000000 1125880.84996586 23052.41148595
0.09100000 1116179.14856078 23104.90946070
0.09200000 1106460.14850756 16978.63177662
0.09300000 1096728.19668988 21649.41562001
0.09400000 1086980.71404287 15489.47590308
0.09500000 1077223.22189595 17063.21663685
0.09600000 1067456.61350178 23297.24168483
0.09700000 1057685.60247825 18657.57490486
0.09800000 1047909.51186827 23342.18547436
0.09900000 1038131.77115032 17129.17502944
0.10000000 1028352.36034741 18695.44679031
0.10100000 1018574.40841305 17142.60809984
0.10200000 1008800.48021460 17144.56496766
0.10300000 999031.76996329 15584.89634455
0.10400000 989271.42622304 17139.12826563
0.10500000 979521.82042415 21804.15674851
0.10600001 969780.19749158 21790.96206298
0.10700001 960054.52669160 20218.74928357
0.10800001 950342.80359460 23307.15835503
0.10900001 940649.18234684 20176.92591098
0.11000001 930973.57377036 29451.35039249
0.11100001 921318.48452879 21669.41177617
0.11200001 911685.61762811 16998.37914091
0.11300001 902076.68333259 20053.16561460
0.11400001 892493.93472422 23093.28164832
0.11500001 882939.00016386 16899.45325890
0.11600001 873412.77649941 18394.07393928
0.11700001 863918.23171594 16820.48876367
0.11800001 854454.28152527 16777.21060793
0.11900001 845024.15391290 16731.47903556
0.12000001 835628.69965183 16683.32777442
0.12100001 826272.62804401 15120.78980552
0.12200001 816953.60197445 16580.07413318
0.12300001 807675.22436485 19529.58784527
0.12400001 798436.77456310 14970.69022844
0.12500001 789240.58973748 14916.64784892
0.12600001 780090.19163767 16346.79073608
0.12700001 770984.13635181 14802.89611556
0.12800001 761924.49326110 20640.53549522
0.12900001 752913.09550197 14681.80605427
0.13000001 743951.10469239 16080.50388588
0.13100001 735038.26288027 21830.63743659
0.13200001 726177.53226923 15935.96669687
0.13300001 717369.52599791 15861.04096755
0.13400001 708614.50482484 17219.33327906
0.13500001 699914.89268883 18561.74382926
0.13600001 691270.95772404 15626.18073614
0.13700001 682684.19205140 22610.50150690
0.13800001 674153.33068687 18272.92688994
0.13900001 665682.84469028 18173.14251706
0.14000001 657270.91764395 16681.53667651
0.14100001 648920.62937790 22115.21609222
0.14200001 640630.91519649 20612.30066863
0.14300001 632404.42087372 16391.92336221
0.14400001 624237.88290846 14934.89205306
0.14500001 616137.74102071 16192.10059784
0.14600001 608101.08972655 14749.49262712
0.14700001 600130.70522482 17319.77296987
0.14800001 592223.60170849 15883.43774718
0.14900001 584384.30681777 13148.64752376
0.15000001 576611.18875428 13060.24404150
0.15100001 568905.43131548 15565.25333524
0.15200001 561268.76609509 14169.23066867
0.15300001 553700.61639939 19185.72726359
0.15400001 546199.44909806 12699.13779082
0.15500001 538769.37091199 17650.08542404
0.15600001 531407.41651377 13766.10977448
0.15700001 524118.34625038 18632.40808859
0.15800001 516896.45633216 16026.37538500
0.15900001 509747.75865977 19574.31485645
0.16000001 502667.51866438 16995.18960826
0.16100001 495661.23423523 14453.48227257
0.16200001 488725.69266195 13144.27812463
0.16300001 481861.60306390 11853.79599496
0.16400001 475070.01908385 16461.17693838
0.16500001 468349.61798681 12828.09664229
0.16600001 461701.96574836 15035.32522446
0.16700001 455125.77621820 16056.83814310
0.16800001 448622.16850165 15921.60151188
0.16900001 442192.17864758 13531.08130553
0.17000001 435832.88619217 12297.02546457
0.17100001 429546.77376039 14406.99947224
0.17200001 423332.69602441 12084.03237866
0.17300001 417190.73357712 17421.88585692
0.17400001 411121.92584301 19425.51191347
0.17500001 405124.12447341 14973.38834769
0.17600001 399196.99879991 13778.28506431
0.17700001 393344.57788513 16803.68116090
0.17800001 387561.81339604 13527.84573554
0.17900001 381850.28125762 10309.95808093
0.18000001 376211.33192321 13278.37958743
0.18100001 370643.57458207 11130.42707046
0.18200001 365144.48606487 12027.85993915
0.18300001 359716.52799383 12906.62963412
0.18400001 354358.57543251 15733.52149247
0.18500001 349070.85615587 11686.89281621
0.18600001 343852.93495175 10609.58280917
0.18700001 338703.21247111 11461.71725153
0.18800001 333621.04156511 14187.23546285
0.18900001 328610.54535900 11238.48118227
0.19000001 323663.97192777 10200.27055725
0.19100001 318787.47823118 13771.61971030
0.19200001 313976.59880481 11816.50985436
0.19300001 309234.30414098 11698.33427843
0.19400001 304556.34450202 10689.92819716
0.19500001 299944.60976990 9700.20913834
0.19600001 295397.24383751 12220.58455506
0.19700001 290916.28467914 10368.25687594
0.19800001 286498.32430384 9407.17292309
0.19900001 282144.36042853 10157.19745546
0.20000001 277852.10820244 8377.24145822
0.20100001 273624.08549929 13265.29629195
0.20200001 269456.69544685 9025.45244057
0.20300001 265351.31775854 8119.75070719
0.20400001 261307.25207186 11249.27773340
0.20500001 257322.48332748 12722.02417704
0.20600001 253397.07839373 8654.77762163
0.20700001 249531.27500297 8563.91376291
0.20800001 245723.13596760 8473.76274440
0.20900001 241975.46986763 8384.45042726
0.21000001 238281.76949252 8295.78019704
0.21100001 234646.21752826 8954.10008417
0.21200001 231065.55009857 11073.81701198
0.21300001 227540.03964967 7304.03561806
0.21400001 224069.70644743 7948.87321202
0.21500001 220654.04675681 8579.02974350
0.21600001 217290.32699637 10609.20071719
0.21700001 213979.76600283 7696.85254703
0.21800001 210721.39010291 7614.41779138
0.21900001 207513.53450284 10271.92044356
0.22000001 204355.82642993 6774.39596646
0.22100001 201249.64528497 8041.93620584
0.22200001 198192.19311522 7292.48209050
0.22300001 195183.02424757 11148.85487220
0.22400001 192221.05794181 7784.95321477
0.22500001 189308.81812845 7701.08308563
0.22600001 186440.99535513 8252.81104966
0.22700001 183620.37149494 7535.78040251
0.22800001 180844.23328720 9317.99956077
0.22900001 178112.46121800 7373.85624314
0.23000001 175425.18226383 6686.33113819
0.23100001 172782.25185451 9019.23397335
0.23200001 170180.13215776 7732.13467027
0.23300001 167621.17929622 11178.65697595
0.23400001 165102.58452074 6401.85301757
0.23500001 162624.54527667 9786.74559763
0.23600001 160187.12435052 9111.44406400
0.23700001 157789.02722974 7886.29595395
0.23800001 155429.34065990 7800.99897670
0.23900001 153107.84590446 8267.82406991
0.24000001 150823.48252117 5452.26915103
0.24100001 148576.95752848 6472.01257607
0.24200001 146366.61691852 5868.56978294
0.24300001 144191.27474763 6332.88108648
0.24400001 142051.11747037 5220.37881398
0.24500001 139944.82177621 7745.94625173
0.24600001 137872.61690457 5108.18069796
0.24700001 135834.34706234 7074.25312966
0.24800001 133828.30210953 5998.18478430
0.24900001 131853.17623028 5438.94377680
0.25000001 129910.80763140 5869.37056646
0.25100001 127998.48393060 5806.01150577
0.25200001 126118.47577548 7179.29457317
0.25300001 124266.58168791 6154.92408219
0.25400001 122445.04871157 7493.63733568
0.25500001 120650.66328764 6022.88139627
0.25600001 118885.88169629 5499.66114747
0.25700001 117148.04025007 5440.35524661
0.25800001 115437.30121074 5830.16117350
0.25900001 113754.20329797 6210.97979394
0.26000001 112096.51212101 5266.29438862
0.26100001 110464.02511851 4775.36003183
0.26200001 108858.18159484 6012.23765396
0.26300001 107275.54619945 5522.54537966
0.26400001 105718.31408472 5042.76382046
0.26500001 104184.69171611 6651.15103388
0.26600001 102674.20837018 4934.52268777
0.26700001 101186.87180256 4067.71243895
0.26800001 99722.48799485  5633.32361340
0.26900001 98279.37167835  5174.40916373
0.27000001 96858.57006881  4724.76127154
0.27100001 95458.82307662  3894.72016584
0.27200001 94080.62528681  5008.38232416
0.27300001 92722.91412961  5335.27673150
0.27400001 91383.72858944  5654.36847406
0.27500001 90066.73128230  5220.26799217
0.27600001 88766.68505387  5901.20950166
0.27700001 87487.66827517  4377.88312768
0.27800001 86226.29637263  3969.42774138
0.27900001 84983.81861125  3926.25260566
0.28000001 83758.98363455  6001.75025639
0.28100001 82552.04147179  3841.14667148
0.28200001 81363.13539054  4144.63831296
0.28300001 80190.92296364  3416.13347994
0.28400001 79035.08208387  3716.62491090
0.28500001 77896.56565912  4010.11538994
0.28600001 76773.96021298  4296.65488669
0.28700001 75668.00882740  3595.74394967
0.28800001 74576.21838450  3879.45506399
0.28900001 73501.83306776  3836.79586775
0.29000001 72441.65557211  4110.70194002
0.29100001 71397.09566364  3127.19293809
0.29200001 70367.01912305  3401.89370053
0.29300001 69351.77781225  4281.77896481
0.29400001 68350.06195593  4234.28653861
0.29500001 67363.82324240  3589.14467225
0.29600001 66390.12497007  4436.52031114
0.29700001 65430.86276255  3802.18761512
0.29800001 64485.16925837  3470.59197378
0.29900001 63553.19669915  3431.87278422
0.30000001 62633.35078287  3676.26469823
0.30100001 61727.68641702  3355.51719248
0.30200001 60833.78202311  2764.89552384
0.30300001 59953.37807126  2733.87416947
0.30400001 59085.19845524  3784.40714022
0.30500001 58229.82072319  3207.29867727
0.30600001 57385.44003415  2906.85960255
0.30700001 56554.07877493  3396.63813203
0.30800001 55734.38841234  2841.61792774
0.30900001 54926.71952208  3064.91109444
0.31000001 54130.72417884  2525.19840250
0.31100001 53345.71170105  2995.89531097
0.31200001 52573.13277173  3949.29392079
0.31300001 51810.96343964  3416.41509096
0.31400001 51061.45896287  3618.98107534
0.31500001 50321.62082219  2385.24493991
0.31600002 49594.13734512  3301.48187938
0.31700002 48876.75389018  3030.84765223
0.31800002 48170.06637314  3226.91289913
0.31900002 47474.85713547  3190.31055056
0.32000002 46790.50634810  2478.25928607
0.32100002 46116.07048136  3118.36883360
0.32200002 45453.25704569  2862.87353058
0.32300002 44799.20637494  3048.13814608
0.32400002 44156.91045190  3228.97422969
0.32500002 43524.38913474  2341.17700242
0.32600002 42902.32189197  2104.35898845
0.32700002 42290.47612663  2496.82982875
0.32800002 41689.59194550  2468.85775192
0.32900002 41096.93195935  2848.01751965
0.33000002 40515.63552992  2011.60139932
0.33100002 39943.21939232  2387.00690392
0.33200002 39382.18929309  1967.14044834
0.33300002 38830.25880993  2334.47527020
0.33400002 38288.59267290  2501.20243480
0.33500002 37756.34425380  2473.79579266
0.33600002 37233.43523404  2070.36526423
0.33700002 36720.16310098  2420.22606460
0.33800002 36217.41345534  2394.15222985
0.33900002 35723.28478294  2550.64265429
0.34000002 35238.84311474  1982.71360175
0.34100002 34763.97088045  2675.08768594
0.34200002 34299.17314946  2117.63105054
0.34300002 33843.04511684  1920.93133181
0.34400002 33396.84738930  2246.77301452
0.34500002 32959.56863641  2052.72203189
0.34600002 32532.19173066  1862.63072575
0.34700002 32112.81478875  2346.80461591
0.34800002 31703.47525853  1991.61241007
0.34900002 31302.82979936  1972.07837076
0.35000002 30911.60336563  2115.74479257
0.35100002 30529.97656627  1934.37940686
0.35200002 30155.82004672  1596.75074710
0.35300002 29791.82802366  1581.94614298
0.35400002 29436.16702124  2037.71875856
0.35500002 29089.66514985  2019.40465035
0.35600002 28751.57705457  2001.54113146
0.35700002 28422.03365447  2136.76859135
0.35800002 28101.62814081  2421.23639529
0.35900002 27790.34369534  2100.95008288
0.36000002 27487.27139642  1786.12297994
0.36100002 27192.11649317  1624.18519507
0.36200002 26906.92939991  2197.62356283
0.36300002 26628.82640183  1890.11418753
0.36400002 26359.42202405  2020.44979385
0.36500002 26097.88383699  1862.60605767
0.36600002 25845.19962120  1707.33396785
0.36700002 25600.20475330  1554.44450625
0.36800002 25364.23000129  1403.91019707
0.36900002 25135.90994262  1534.54737469
0.37000002 24915.05586487  1386.52292456
0.37100002 24702.03959694  1378.37387480
0.37200002 24497.59478288  1507.70454233
0.37300002 24300.48591012  1499.58305655
0.37400002 24111.09700107  1763.12405172
0.37500002 23929.41358090  1619.54278787
0.37600002 23755.57444935  1880.72891825
0.37700002 23588.82362062  1738.73227144
0.37800002 23429.52578153  1598.36232453
0.37900002 23278.34919092  2122.98554678
0.38000002 23133.56591395  1850.91669646
0.38100002 22995.32985773  1449.39570960
0.38200002 22865.41301542  1707.70345196
0.38300002 22741.69413850  1833.89030221
0.38400002 22625.26620202  1567.93102208
0.38500002 22515.02932981  1694.70633794
0.38600002 22412.44621159  1561.25107706
0.38700002 22315.58556976  1558.52057003
0.38800002 22225.29026698  1685.89947307
0.38900002 22141.58458869  1295.28275980
0.39000002 22064.70131228  1682.32323126
0.39100002 21993.17767446  1422.51879938
0.39200002 21928.51551306  2068.29768118
0.39300002 21869.18600970  1680.20964073
0.39400002 21817.07912365  1421.92819925
0.39500002 21769.39500166  1681.03276167
0.39600002 21727.88189759  2329.01177095
0.39700002 21691.30045150  1424.46776814
0.39800002 21661.44115541  1296.43731457
0.39900002 21635.86622399  1557.78244193
0.40000002 21616.02128084  1690.26486414
0.40100002 21600.94835752  1823.55214674
0.40200002 21591.43393586  2218.84381355
0.40300002 21586.56294595  1700.58950946
0.40400002 21586.56724849  1311.38402248
0.40500002 21590.84217285  1972.32352594
0.40600002 21600.56822321  1714.32917826
0.40700002 21614.33790277  1851.91655926
0.40800002 21632.12244196  1592.55692963
0.40900002 21653.97760893  1864.40756047
0.41000002 21680.69093050  1871.26052288
0.41100002 21710.96021971  1744.25862670
0.41200002 21744.35794547  1481.76934240
0.41300002 21782.81617750  1758.52683333
0.41400002 21824.12484307  1494.40701944
0.41500002 21868.95517613  1501.08515442
0.41600002 21916.26042027  1507.94836967
0.41700002 21968.22421672  2341.59313021
0.41800002 22023.69996783  1799.44649114
0.41900002 22080.38237619  2225.70264898
0.42000002 22140.60384518  1398.17919908
0.42100002 22204.28591813  1686.63763826
0.42200002 22270.24277241  1695.65636504
0.42300002 22338.35382777  1704.86324492
0.42400002 22408.76078918  1571.41442480
0.42500002 22482.12393062  1723.92934469
0.42600002 22556.32014448  2167.09856057
0.42700002 22633.74417478  2034.32102283
0.42800002 22712.42023709  1753.85317382
0.42900002 22793.79260890  1617.21966224
0.43000002 22876.60684560  2366.35632424
0.43100002 22959.45672889  2529.21387311
0.43200002 23045.18669494  1646.46344144
0.43300002 23131.42508972  2409.36935152
0.43400002 23219.38190716  1969.58416361
0.43500002 23307.91996101  1676.77184145
0.43600002 23398.05477427  1993.86533208
0.43700002 23488.51486373  2160.47369955
0.43800002 23579.12468307  1863.22252075
0.43900002 23671.55242948  1562.32253438
0.44000002 23763.69747814  1729.16552894
0.44100002 23856.63368870  2530.71182163
0.44200002 23949.68298146  2068.89346240
0.44300002 24043.09402388  1601.27013788
0.44400002 24136.43786537  2255.55022541
0.44500002 24229.33416889  1783.03678599
0.44600002 24321.98416909  1956.94693899
0.44700002 24415.40981069  2132.93030214
0.44800002 24507.39413406  1650.57307315
0.44900002 24599.63921159  1992.57087057
0.45000002 24691.66324811  2004.46931748
0.45100002 24782.09735340  1680.22628019
0.45200002 24872.34132999  2028.09080816
0.45300002 24961.40667926  2549.80781313
0.45400002 25049.83037025  1709.65100380
0.45500002 25137.53280242  2407.17025524
0.45600002 25223.70803723  2074.90232148
0.45700002 25309.12980203  2608.10594971
0.45800002 25392.96076109  2447.62760376
0.45900002 25475.28945013  2636.69258305
0.46000002 25556.83383818  1767.25514367
0.46100002 25636.08371665  2309.55489149
0.46200002 25714.42844953  2143.04056855
0.46300002 25791.05391553  3051.59764392
0.46400002 25865.44120398  2886.58337517
0.46500002 25939.20341958  2357.09552645
0.46600002 26010.02877074  1822.00260175
0.46700002 26079.03971881  2013.82354253
0.46800002 26146.83974870  2575.20236890
0.46900002 26211.83274060  2217.52115496
0.47000002 26275.03750751  2784.49723183
0.47100002 26336.26828524  2051.06867127
0.47200002 26395.38278445  2434.57824652
0.47300002 26452.21605582  2068.82791578
0.47400002 26506.22282106  2077.42531207
0.47500002 26558.29537090  2465.14109317
0.47600002 26608.68998530  2855.77778803
0.47700002 26655.57330730  1911.20469672
