# SAXS profile: number of points = 501, q_min = 0, q_max = 0.5, delta_q = 0.001
#    q    intensity    error
0.00000000 1664650.74656090 249.69761198
0.00100000 1664569.80909176 649.18224096
0.00200000 1664326.93730933 1048.52600371
0.00300000 1663922.34971129 1597.36551263
0.00400000 1663355.91445244 1996.02717319
0.00500000 1662628.13221307 1496.36537822
0.00600000 1661738.91677135 2268.27371374
0.00700000 1660688.84020101 2391.39202928
0.00800000 1659477.66901903 2240.29494776
0.00900000 1658106.69324763 2735.87616081
0.01000000 1656575.22294556 3280.01908306
0.01100000 1654884.58788684 3276.67162668
0.01200000 1653034.66065821 3223.41772961
0.01300000 1651026.62520689 3813.87167244
0.01400000 1648860.44334668 4822.91701059
0.01500000 1646537.57541613 4346.85939266
0.01600000 1644057.36898211 5030.81577398
0.01700000 1641422.18254439 5761.39211918
0.01800000 1638631.82507220 5137.11100276
0.01900000 1635686.93385007 5888.47322756
0.02000000 1632588.80367718 6685.45145348
0.02100000 1629339.36234499 6989.86618137
0.02200000 1625937.11093054 6731.37994507
0.02300000 1622385.30942625 6424.64611777
0.02400000 1618683.39708165 11533.11973009
0.02500000 1614834.04130577 6297.85304872
0.02600000 1610837.13346975 6523.89068894
0.02700000 1606694.78369971 8097.74208073
0.02800000 1602406.87209828 9061.61127728
0.02900000 1597975.88601392 7190.89181723
0.03000000 1593403.07093082 8150.25708244
0.03100000 1588688.85775815 9913.41892856
0.03200000 1583834.65811471 7839.98191876
0.03300000 1578844.23257955 10467.73774457
0.03400000 1573715.71693785 14871.61421124
0.03500000 1568452.26652527 12704.46394552
0.03600000 1563055.21120161 10409.94818769
0.03700000 1557526.31116515 12429.06053791
0.03800000 1551866.90297046 14525.47488404
0.03900000 1546079.17106881 10204.12300161
0.04000000 1540162.86058939 10419.20223470
0.04100000 1534122.14488998 10631.46695703
0.04200000 1527957.53331394 10840.85920180
0.04300000 1521670.18644890 13055.93080576
0.04400000 1515263.41924973 11250.83141044
0.04500000 1508738.69198800 14574.41644180
0.04600000 1502095.82002019 13766.70883046
0.04700000 1495339.12842285 10766.44222537
0.04800000 1488469.07412836 10940.24820387
0.04900000 1481489.28375632 11111.17014537
0.05000000 1474399.41623370 16918.73408912
0.05100000 1467203.84757248 16021.86676185
0.05200000 1459900.87959454 12766.83378700
0.05300000 1452496.91824435 12941.74814487
0.05400000 1444991.36359849 11921.17930562
0.05500000 1437386.99700232 12074.05133807
0.05600000 1429684.86437026 12223.80616078
0.05700000 1421889.82681954 16081.57469199
0.05800000 1414001.03262659 18770.86458457
0.05900000 1406021.09775737 13919.60951792
0.06000000 1397953.54804930 14070.40311847
0.06100000 1389799.93358011 15510.16798357
0.06200000 1381562.22036459 13055.76359272
0.06300000 1373243.69678773 14501.45411610
0.06400000 1364842.88033446 15968.66244672
0.06500000 1356366.04374652 18799.23424571
0.06600000 1347814.17386365 13545.53308111
0.06700000 1339188.53479621 15025.69606360
0.06800000 1330492.61517749 17901.77897518
0.06900000 1321728.52312556 15265.96515684
0.07000000 1312897.43866029 13982.35837650
0.07100000 1304002.11268460 18308.19051961
0.07200000 1295045.17455813 17016.89439088
0.07300000 1286029.21704489 15702.41747586
0.07400000 1276956.31968025 17238.91112357
0.07500000 1267828.04316776 15898.56440653
0.07600000 1258645.79651500 17444.83155752
0.07700000 1249414.77175974 23389.04562402
0.07800000 1240135.06683370 16165.16135426
0.07900000 1230808.75999475 14769.70581269
0.08000000 1221439.84954775 19292.64332865
0.08100000 1212029.28028554 16398.75693166
0.08200000 1202579.05207621 22458.16485138
0.08300000 1193092.31597444 21046.14944153
0.08400000 1183570.68084144 18108.63226687
0.08500000 1174016.58312323 16659.29609659
0.08600000 1164431.94746223 16715.42139063
0.08700000 1154820.62523820 22865.44945343
0.08800000 1145181.82159838 18345.81364359
0.08900000 1135521.03164700 18395.44157671
0.09000000 1125838.07521251 18441.22853827
0.09100000 1116135.60281169 21563.74085941
0.09200000 1106415.86861732 23151.75313864
0.09300000 1096683.11244696 15463.23261215
0.09400000 1086934.72167938 17037.70256305
0.09500000 1077176.42340936 23267.01183925
0.09600000 1067409.06366791 17083.88286708
0.09700000 1057637.24674426 21766.17556129
0.09800000 1047860.35176485 18672.87234640
0.09900000 1038081.72240263 18685.47188188
0.10000000 1028301.56474890 23368.15415786
0.10100000 1018522.78427999 17141.73926564
0.10200000 1008748.10593140 21819.22255759
0.10300000 998978.50916222 17142.47202362
0.10400000 989217.29471941 23370.25968720
0.10500000 979466.82763063 20245.58027967
0.10600001 969724.51147700 15564.07914155
0.10700001 959998.12117333 20217.56138330
0.10800001 950285.59660713 17090.88725931
0.10900001 940591.10652853 18623.70478580
0.11000001 930914.74709290 21699.62377613
0.11100001 921258.77163551 18572.57771045
0.11200001 911625.16047204 16997.25191718
0.11300001 902015.46162140 24679.14419188
0.11400001 892431.92869122 18473.34179371
0.11500001 882876.22725413 16898.25178535
0.11600001 873349.18733047 16860.00685538
0.11700001 863853.96074439 16819.23740779
0.11800001 854389.21255887 16775.93297871
0.11900001 844958.26452909 21292.94926907
0.12000001 835562.04859127 15165.45189630
0.12100001 826205.29116017 15119.55754049
0.12200001 816885.40657742 15071.53646139
0.12300001 807606.36087798 19527.92272608
0.12400001 798367.22543335 16466.32480041
0.12500001 789170.29111669 20881.44688689
0.12600001 780019.08014454 26746.85551856
0.12700001 770912.37246187 22202.27737321
0.12800001 761852.12926102 17690.20727517
0.12900001 752839.88787846 19084.49205721
0.13000001 743877.26322715 19002.34558481
0.13100001 734963.69669732 24738.87919696
0.13200001 726102.23195999 15934.31423151
0.13300001 717293.61574497 15859.36259178
0.13400001 708537.84289985 15782.68119468
0.13500001 699837.66280111 18559.69569254
0.13600001 691193.09965737 14204.01886769
0.13700001 682605.61659792 21194.90539477
0.13800001 674074.14803540 22487.11463886
0.13900001 665603.10079034 19568.73208606
0.14000001 657190.52306970 20849.37032765
0.14100001 648839.60906003 17966.36962222
0.14200001 640549.31208816 16487.74007080
0.14300001 632322.32421465 19121.42798616
0.14400001 624155.16936765 14932.91313150
0.14500001 616054.51866343 17539.07297370
0.14600001 608017.32426733 21450.85221208
0.14700001 600046.42441657 14653.13437554
0.14800001 592138.85586645 13234.30405299
0.14900001 584298.94519107 19720.09033061
0.15000001 576525.23731661 15669.95668962
0.15100001 568819.18825603 12969.07810418
0.15200001 561182.04245264 12879.12848202
0.15300001 553613.38609291 16625.01076889
0.15400001 546111.84533426 16506.23130417
0.15500001 538681.37679383 13865.65929303
0.15600001 531318.87907205 16266.32825048
0.15700001 524029.38803170 13661.44679076
0.15800001 516807.17740877 17256.19246815
0.15900001 509658.04009268 15901.33160144
0.16000001 502577.56819025 23060.77280493
0.16100001 495570.84240685 13246.60924283
0.16200001 488634.98852337 14336.55124005
0.16300001 481770.58563944 16592.17975270
0.16400001 474978.67997824 21160.30119200
0.16500001 468257.99902263 15157.51214397
0.16600001 461610.17372024 12719.66893740
0.16700001 455033.69281683 13760.21952047
0.16800001 448529.79987164 13644.27715633
0.16900001 442099.59248007 12400.89415461
0.17000001 435740.10405387 12294.40761642
0.17100001 429453.83351981 13295.89131362
0.17200001 423239.59306005 16474.60193784
0.17300001 417097.55478627 13063.49603282
0.17400001 411028.53202379 14026.34931772
0.17500001 405030.65274056 12831.37168482
0.17600001 399103.46121362 12715.43687480
0.17700001 393250.94879405 11549.78091158
0.17800001 387468.11516312 13524.57519856
0.17900001 381756.47280397 16491.88040410
0.18000001 376117.58756527 10211.59298474
0.18100001 370549.74381574 15174.01272602
0.18200001 365050.60485761 12024.76749203
0.18300001 359622.74113046 13895.82337371
0.18400001 354264.84485091 13763.18987264
0.18500001 348977.20183223 14604.69658664
0.18600001 343759.25944962 11570.93721973
0.18700001 338609.79651747 12413.43572680
0.18800001 333527.72741795 13237.71612665
0.18900001 328517.38841766 11235.29521472
0.19000001 323570.91491937 11124.36858054
0.19100001 318694.68967646 13767.61124454
0.19200001 313883.96395671 9086.94118592
0.19300001 309141.85174164 15293.24812830
0.19400001 304464.12254217 14248.92160829
0.19500001 299852.80427916 9697.24014863
0.19600001 295305.61063329 10471.53744790
0.19700001 290825.02399857 10365.00434513
0.19800001 286407.34510499 11114.03755203
0.19900001 282053.69389081 9307.77233828
0.20000001 277761.76893351 11724.32482079
0.20100001 273534.15207426 10774.51075943
0.20200001 269367.21532308 9842.67851310
0.20300001 265262.18502107 8117.02324529
0.20400001 261218.53164080 10442.21129590
0.20500001 257234.20713343 11922.80606419
0.20600001 253309.26443931 9438.30363914
0.20700001 249443.98576002 8560.91799595
0.20800001 245636.43316567 13861.26457876
0.20900001 241889.19288435 8381.46092965
0.21000001 238196.16332928 10554.47249606
0.21100001 234561.12577355 9696.75739788
0.21200001 230980.94062127 11069.76210259
0.21300001 227456.11467606 8761.60995153
0.21400001 223986.33359259 7223.55959987
0.21500001 220571.43281884 9290.46918956
0.21600001 217208.31502914 7777.14408731
0.21700001 213898.46505922 8393.37616576
0.21800001 210640.86176032 6919.55263599
0.21900001 207433.65439600 9583.43528622
0.22000001 204276.66061462 8126.12594347
0.22100001 201171.25136483 7368.90328592
0.22200001 198114.63552533 9277.70882034
0.22300001 195106.19623356 8522.23905446
0.22400001 192145.05602027 7781.87513680
0.22500001 189233.56406594 7698.02175022
0.22600001 186366.68584062 8249.52173884
0.22700001 183546.89039859 6905.03434333
0.22800001 180771.69375841 7451.40956910
0.22900001 178040.72536676 6756.64584720
0.23000001 175354.33042200 7291.23340376
0.23100001 172712.33949142 8414.54557797
0.23200001 170111.24873403 7134.46610932
0.23300001 167553.26864208 8233.56801047
0.23400001 165035.68289956 8726.26214603
0.23500001 162558.61053356 6905.49010207
0.23600001 160122.16063233 6830.81169565
0.23700001 157725.10946998 6756.94400928
0.23800001 155366.43283020 7240.85294453
0.23900001 153046.11738539 8264.49072972
0.24000001 150762.74877259 7630.10307629
0.24100001 148517.35753862 7008.53443376
0.24200001 146308.08415118 6932.80889544
0.24300001 144133.85314677 5802.82920218
0.24400001 141994.86934891 6783.80520404
0.24500001 139889.63380827 6710.50605122
0.24600001 137818.68843662 6127.41917775
0.24700001 135781.55830650 6566.39647033
0.24800001 133776.68736677 6495.52736238
0.24900001 131802.70379159 5931.12195121
0.25000001 129861.57975587 4889.28870911
0.25100001 127950.46948887 5320.18077304
0.25200001 126071.65698941 4784.41960910
0.25300001 124221.07487742 5206.10549442
0.25400001 122400.79171836 4681.83050473
0.25500001 120607.57190443 6020.73027432
0.25600001 118844.13451585 8246.59488422
0.25700001 117107.52417016 6798.09209972
0.25800001 115398.11140345 4931.53852416
0.25900001 113716.26410861 6208.90831410
0.26000001 112059.90184810 7019.43258389
0.26100001 110428.77353086 4773.83610562
0.26200001 108824.18786088 6439.67162137
0.26300001 107242.93957648 4246.82060818
0.26400001 105687.01670047 5461.37684642
0.26500001 104154.77123592 4986.93068275
0.26600001 102645.56076401 6577.52784500
0.26700001 101159.66852680 4473.28075393
0.26800001 99696.61705906  4827.31042643
0.26900001 98254.87113968  4775.18696336
0.27000001 96835.45196121  4723.63357020
0.27100001 95437.09188598  3893.83353322
0.27200001 94060.23764455  3851.76691382
0.27300001 92703.87197878  3810.12931864
0.27400001 91366.11082114  4522.62269968
0.27500001 90050.44770691  4473.70645380
0.27600001 88751.81692905  4056.40198472
0.27700001 87474.24065897  4377.21120973
0.27800001 86214.24648178  3968.87302462
0.27900001 84973.23346176  3568.87597430
0.28000001 83749.71564996  3530.05068172
0.28100001 82544.21571567  5237.43073504
0.28200001 81356.60939270  3798.94705540
0.28300001 80185.92254830  4099.10455468
0.28400001 79031.37429398  3716.45055208
0.28500001 77894.25409798  4009.99639076
0.28600001 76773.00510866  4627.10923691
0.28700001 75668.44936085  3595.76488382
0.28800001 74578.08688696  3556.25624153
0.28900001 73505.01541660  3517.21515417
0.29000001 72446.23218010  4110.96163965
0.29100001 71403.07466190  3127.45481823
0.29200001 70374.32199285  3711.54191759
0.29300001 69360.41517672  4894.07112653
0.29400001 68360.08146926  3327.42712303
0.29500001 67375.14456343  3888.89352829
0.29600001 66402.78864182  4733.19099845
0.29700001 65444.87518052  4973.15630039
0.29800001 64500.50077399  3182.13235632
0.29900001 63569.87028624  3432.77315796
0.30000001 62651.39086188  3394.45251759
0.30100001 61746.91145697  3356.56226570
0.30200001 60854.31123813  3595.57714972
0.30300001 59975.14805438  4102.30032113
0.30400001 59108.27116280  2974.62388709
0.30500001 58254.07280883  3208.63448221
0.30600001 57411.00462217  2908.15457682
0.30700001 56580.86134475  2875.43950967
0.30800001 55762.35207749  2843.04365527
0.30900001 54955.85514676  3066.53686237
0.31000001 54161.06832914  3284.59814433
0.31100001 53377.23943633  3497.27689345
0.31200001 52605.83372997  2716.82841161
0.31300001 51844.81214306  3174.45799782
0.31400001 51096.47828426  2655.73958456
0.31500001 50357.69820493  2625.65050872
0.31600002 49631.36851815  2595.96885325
0.31700002 48915.01362456  3733.19401659
0.31800002 48209.42461040  3229.54950757
0.31900002 47515.30284911  3193.02850265
0.32000002 46831.90053987  2480.45172954
0.32100002 46158.51057491  2229.45616633
0.32200002 45496.68946115  2865.60912140
0.32300002 44843.64939072  3051.16204902
0.32400002 44202.26663351  2154.86060042
0.32500002 43570.74342879  2556.73134547
0.32600002 42949.53997711  3160.01255345
0.32700002 42338.61303226  2083.05985983
0.32800002 41738.67391349  3089.70548275
0.32900002 41146.82780845  2444.12168756
0.33000002 40566.32092301  3021.17689381
0.33100002 39994.73081059  2390.08522642
0.33200002 39434.53530936  2166.73064518
0.33300002 38883.36949697  2337.66828486
0.33400002 38342.43046415  2312.04866648
0.33500002 37810.87704313  2477.36878118
0.33600002 37288.71690080  1884.94472860
0.33700002 36776.17511155  2051.00738310
0.33800002 36273.98634584  2028.98552234
0.33900002 35780.53597108  2189.76890513
0.34000002 35296.62644568  2708.13379230
0.34100002 34822.37033619  1965.02645113
0.34200002 34358.18718429  1944.50169578
0.34300002 33902.51297437  2624.05462849
0.34400002 33456.87619351  1904.53276751
0.34500002 33020.03714786  2056.48801096
0.34600002 32593.11962974  2544.70793561
0.34700002 32174.12387871  2351.28508441
0.34800002 31765.22557675  2328.07349278
0.34900002 31364.94343169  1975.99152978
0.35000002 30974.09877746  1956.94365344
0.35100002 30592.83792878  1615.30191914
0.35200002 30218.92162700  1920.11037112
0.35300002 29855.22370875  1743.84369942
0.35400002 29499.77467120  1885.03569077
0.35500002 29153.48163301  2179.51439011
0.35600002 28815.51229784  2160.29905929
0.35700002 28486.18035012  2141.59114016
0.35800002 28165.90375059  1668.40738769
0.35900002 27854.74103615  2105.81852208
0.36000002 27551.71810955  1491.92560630
0.36100002 27256.54533004  2368.04877044
0.36200002 26971.45752698  1615.45552510
0.36300002 26693.29175974  2331.92607859
0.36400002 26423.99113255  1591.38494134
0.36500002 26162.23764802  1579.93760640
0.36600002 25909.54497656  2139.48077778
0.36700002 25664.38502123  1700.00894433
0.36800002 25428.23173353  2251.92430899
0.36900002 25199.76054539  1398.58677652
0.37000002 24978.65074433  3197.14255347
0.37100002 24765.39216126  1796.48163248
0.37200002 24560.67930282  1786.42109371
0.37300002 24363.32859187  1640.13935850
0.37400002 24173.55729232  1767.69146074
0.37500002 23991.50558484  1353.12097908
0.37600002 23817.30319589  2020.30283930
0.37700002 23650.13613860  2950.11812168
0.37800002 23490.41689022  1602.51631617
0.37900002 23338.78842404  1596.37320383
0.38000002 23193.47261676  1590.60842741
0.38100002 23054.71809925  1849.44957354
0.38200002 22924.21016963  1316.99593664
0.38300002 22799.96034964  1313.27777835
0.38400002 22682.93156150  1833.91510363
0.38500002 22572.03353452  1829.68912499
0.38600002 22468.84063239  1304.31626050
0.38700002 22371.24988402  1302.00680493
0.38800002 22280.27675711  1820.07589452
0.38900002 22195.73488818  1298.45055247
0.39000002 22118.12190511  1556.67349343
0.39100002 22045.74592014  1555.54790582
0.39200002 21980.27123295  1554.88446068
0.39300002 21920.14230360  1425.02851867
0.39400002 21867.12713290  2591.25468802
0.39500002 21818.62479926  1684.83428682
0.39600002 21776.11531714  1945.15159286
0.39700002 21738.59211165  1297.79401055
0.39800002 21707.77243709  1559.05229030
0.39900002 21681.19750339  1300.87191184
0.40000002 21660.34183535  1563.44354775
0.40100002 21644.22257394  1305.14668305
0.40200002 21633.63290709  1438.52848831
0.40300002 21627.64059223  1441.69859019
0.40400002 21626.54463818  2496.24403313
0.40500002 21629.66871296  1580.69626444
0.40600002 21638.28277371  1321.01722593
0.40700002 21650.85705122  1590.03901718
0.40800002 21667.49558905  1728.09119258
0.40900002 21688.11427600  1600.58290941
0.41000002 21713.55173898  1338.64052814
0.41100002 21742.58286078  1343.69168446
0.41200002 21774.70882772  2158.30924127
0.41300002 21811.85144484  1354.51603891
0.41400002 21851.83669482  1496.30458858
0.41500002 21895.32088903  1639.52170586
0.41600002 21941.27377884  1646.91208788
0.41700002 21991.94056804  1930.45263453
0.41800002 22046.00823755  2078.38752508
0.41900002 22101.26392878  1949.33157089
0.42000002 22160.01816871  1959.16729913
0.42100002 22222.27895134  1547.33735670
0.42200002 22286.79159344  1838.32609169
0.42300002 22353.44193042  1848.18266638
0.42400002 22422.38036248  1429.42681584
0.42500002 22494.23315364  2012.33419328
0.42600002 22566.95516211  1445.41354663
0.42700002 22642.87506302  1599.03991272
0.42800002 22719.97432345  1608.23345869
0.42900002 22799.86746757  1911.76897775
0.43000002 22881.10739381  1479.26366311
0.43100002 22962.45150734  1785.56031382
0.43200002 23046.57086146  1796.24981806
0.43300002 23131.24652407  2108.18190811
0.43400002 23217.62293808  1817.93996220
0.43500002 23304.54056526  1828.94043023
0.43600002 23393.10944107  1533.41839653
0.43700002 23481.90325881  2005.58945238
0.43800002 23570.96209520  2173.00709853
0.43900002 23661.73682034  2342.51205622
0.44000002 23752.26384363  2671.06095712
0.44100002 23843.57211185  1738.91179652
0.44200002 23934.97930060  1749.52739489
0.44300002 24026.78269291  1920.22056382
0.44400002 24118.46554936  1609.90765171
0.44500002 24209.69800635  1943.55464806
0.44600002 24300.72080334  1792.29974779
0.44700002 24392.49635532  1967.01099931
0.44800002 24482.86930974  1813.81345877
0.44900002 24573.42040980  2819.80012566
0.45000002 24663.80519493  2335.90910072
0.45100002 24752.64559805  1678.22945108
0.45200002 24841.28400102  1687.96532787
0.45300002 24928.71741944  1867.41031039
0.45400002 25015.51791603  3073.15652163
0.45500002 25101.58182854  1888.64310629
0.45600002 25186.14831763  1899.16160390
0.45700002 25269.92261162  2604.06564854
0.45800002 25352.10661152  3141.88672127
0.45900002 25432.90198567  1930.35735220
0.46000002 25512.84383459  2117.05588173
0.46100002 25590.47267187  2128.10380825
0.46200002 25667.26585843  2852.14671737
0.46300002 25742.27697703  1791.66256252
0.46400002 25815.11136440  2520.84574421
0.46500002 25887.32254667  2533.33350449
0.46600002 25956.58580789  2545.56249083
0.46700002 26024.09983568  2740.33784258
0.46800002 26090.38530892  2569.64217087
0.46900002 26153.90772111  2212.62069808
0.47000002 26215.52548141  1852.12696305
0.47100002 26275.31212248  2418.37984238
0.47200002 26332.97558966  2428.82211863
0.47300002 26388.36890479  2626.69836528
0.47400002 26440.91910211  2072.30713285
0.47500002 26491.59066637  3404.69939382
0.47600002 26540.57117501  1898.97795758
0.47700002 26586.06192980  2859.33109608
