# SAXS profile: number of points = 501, q_min = 0, q_max = 0.5, delta_q = 0.001
#    q    intensity    error
0.00000000 1664650.74656090 324.60689558
0.00100000 1664569.79168233 549.30804430
0.00200000 1664326.86451769 823.84182402
0.00300000 1663922.18540323 998.35334681
0.00400000 1663355.62331702 1372.26844138
0.00500000 1662627.68967037 1646.00147792
0.00600000 1661738.26902180 2268.27282956
0.00700000 1660687.96343990 2989.23845843
0.00800000 1659476.51036065 2464.32272193
0.00900000 1658105.23181097 2984.58954484
0.01000000 1656573.41602203 3280.01550535
0.01100000 1654882.41937543 2978.78848457
0.01200000 1653032.08050135 3545.75396813
0.01300000 1651023.59332311 3813.86466879
0.01400000 1648856.92992070 5564.89238518
0.01500000 1646533.54985511 8298.52946079
0.01600000 1644052.79620071 5030.80178127
0.01700000 1641417.01889699 5318.19137979
0.01800000 1638626.00337369 7005.12647964
0.01900000 1635680.48838799 4907.04168658
0.02000000 1632581.65723953 8228.21192470
0.02100000 1629331.48125905 5914.47354512
0.02200000 1625928.45359764 7853.23478767
0.02300000 1622375.85105430 8176.77466151
0.02400000 1618673.14528903 6677.02702877
0.02500000 1614822.91927955 7557.37160738
0.02600000 1610825.12306815 8480.99466086
0.02700000 1606681.86884792 7422.87057405
0.02800000 1602392.98548778 9061.53274849
0.02900000 1597960.92213509 9348.07182370
0.03000000 1593387.12859944 14818.50097711
0.03100000 1588671.93435317 9913.31332651
0.03200000 1583816.59588626 8623.88176180
0.03300000 1578825.05940863 10467.61062644
0.03400000 1573695.37995258 9088.09123855
0.03500000 1568430.71448687 10163.43149920
0.03600000 1563032.56127690 9542.31422758
0.03700000 1557502.28504974 11541.09246597
0.03800000 1551841.63075688 9078.27396007
0.03900000 1546052.66913019 9276.31644437
0.04000000 1540134.99264099 10419.01370802
0.04100000 1534092.91526961 14497.17872148
0.04200000 1527926.90154146 13797.18056101
0.04300000 1521638.12746943 16068.49937194
0.04400000 1515229.92976420 14318.92350127
0.04500000 1508703.72463308 12492.06742040
0.04600000 1502059.32280974 14825.32620532
0.04700000 1495301.15222970 13996.01943580
0.04800000 1488429.45653602 12033.95271601
0.04900000 1481448.06756794 14444.11933113
0.05000000 1474356.70823831 12406.71227756
0.05100000 1467159.55330814 12588.22955379
0.05200000 1459854.90290918 25532.86344175
0.05300000 1452449.15633930 17647.25807220
0.05400000 1444941.95262916 14304.92599812
0.05500000 1437335.82587180 14488.34580066
0.05600000 1429631.95421351 13445.68915681
0.05700000 1421835.25087896 18554.95089009
0.05800000 1413944.60411660 15016.09239686
0.05900000 1405962.96266135 15184.40070594
0.06000000 1397893.55192456 16627.94457698
0.06100000 1389738.02470488 15509.47708049
0.06200000 1381498.46281337 18277.22551736
0.06300000 1373177.96940277 15819.01094714
0.06400000 1364775.26682253 18629.18326335
0.06500000 1356296.54494713 14770.07006539
0.06600000 1347742.68782386 16253.77757565
0.06700000 1339115.08070290 20488.46169359
0.06800000 1330417.10001947 20654.72644463
0.06900000 1321651.10027545 15265.07092288
0.07000000 1312817.98065326 13981.51214869
0.07100000 1303920.57080953 22531.74851893
0.07200000 1294961.66340308 24105.71249352
0.07300000 1285943.67703803 21410.96322591
0.07400000 1276868.64980725 17237.72758023
0.07500000 1267738.31959173 15897.43927283
0.07600000 1258554.01118988 17443.55941286
0.07700000 1249320.95628437 16078.76146129
0.07800000 1240038.93662432 14694.46208811
0.07900000 1230710.59411415 17722.23338648
0.08000000 1221339.51367703 20774.98610222
0.08100000 1211926.92742409 14906.70190671
0.08200000 1202474.43102336 16467.88810562
0.08300000 1192985.65706687 18037.94398141
0.08400000 1183461.78672004 19615.88003563
0.08500000 1173905.58785836 16657.72107371
0.08600000 1164318.62862200 24310.97410706
0.08700000 1154705.20024733 22863.16403850
0.08800000 1145064.21000344 16815.26871361
0.08900000 1135401.18816927 15327.91676023
0.09000000 1125715.98080732 26122.24056174
0.09100000 1116011.41890419 15400.95830443
0.09200000 1106289.51480317 18519.28734797
0.09300000 1096554.53867205 18553.70366621
0.09400000 1086803.96576000 15486.95723993
0.09500000 1077043.47141249 17060.36938906
0.09600000 1067273.84957304 17081.71876539
0.09700000 1057499.80457667 17099.77264391
0.09800000 1047720.89768841 15558.65606220
0.09900000 1037939.85361066 18682.91824351
0.10000000 1028157.67545804 18691.90741885
0.10100000 1018376.70123748 17139.28068792
0.10200000 1008599.81272325 17141.15462349
0.10300000 998828.07127700 15581.71864490
0.10400000 989064.51579401 23366.65028492
0.10500000 979312.04124301 15571.06218837
0.10600001 969567.55024123 21786.18387904
0.10700001 959839.09393777 15549.39405351
0.10800001 950124.46073526 23301.80349615
0.10900001 940427.90379203 20172.17948576
0.11000001 930749.28226781 17046.67390711
0.11100001 921091.36463552 17021.76921974
0.11200001 911455.62319102 20083.92560251
0.11300001 901843.81536984 15421.52996888
0.11400001 892258.23321555 16930.60077243
0.11500001 882700.54063921 19966.68716945
0.11600001 873171.49087078 16856.57642506
0.11700001 863674.25889469 18344.44212285
0.11800001 854207.57417715 24396.16946752
0.11900001 844774.65831832 15205.94456595
0.12000001 835376.42836200 18194.49946677
0.12100001 826017.80358974 15116.12651778
0.12200001 816695.82209235 21095.25407847
0.12300001 807415.01391662 19523.29595633
0.12400001 798174.01639136 19455.49256623
0.12500001 788975.30620643 17893.96078793
0.12600001 779822.14633419 16341.17384649
0.12700001 770713.80376818 22196.55859457
0.12800001 761651.69894048 16211.75717600
0.12900001 752637.79785687 26417.58794989
0.13000001 743673.31911271 17535.81769123
0.13100001 734758.16729962 17457.85487796
0.13200001 725895.06166516 17377.92859547
0.13300001 717084.74844186 17296.08494781
0.13400001 708327.20045792 15777.98913406
0.13500001 699625.47059784 17126.83232773
0.13600001 690979.52008603 18459.51874948
0.13700001 682390.43068953 18363.12735574
0.13800001 673857.53263262 14049.93021792
0.13900001 665384.98134968 20959.62790093
0.14000001 656970.99613969 18063.41839074
0.14100001 648618.67458186 22104.92547228
0.14200001 640327.08452410 20602.52491629
0.14300001 632098.64811531 20479.99716493
0.14400001 623930.13621254 18998.67354384
0.14500001 615828.29183592 13486.64022740
0.14600001 607789.83254786 17422.29637187
0.14700001 599817.75986139 14647.55038684
0.14800001 591909.18049642 14552.08788905
0.14900001 584068.02211008 19712.29667626
0.15000001 576293.28532000 19579.56529257
0.15100001 568586.23485186 16852.89679621
0.15200001 560948.15025739 15448.51278706
0.15300001 553378.45712372 16617.95585161
0.15400001 545876.03394718 15229.94206584
0.15500001 538444.82459253 17639.45328611
0.15600001 531081.36338794 15008.36003766
0.15700001 523790.94278865 17379.38430198
0.15800001 516568.19700019 13552.16728794
0.15900001 509418.15341438 20784.26164034
0.16000001 502337.09712715 13344.58561508
0.16100001 495329.79421613 12036.51456763
0.16200001 488393.38554818 15523.58449246
0.16300001 481528.39246531 13030.15891524
0.16400001 474736.09080176 14099.66256245
0.16500001 468014.92308125 18645.71541585
0.16600001 461366.67025647 11557.23563558
0.16700001 454789.86398395 12606.77562486
0.16800001 448285.69321047 12500.44714540
0.16900001 441855.12830987 15774.22882549
0.17000001 435495.42055044 14521.59548396
0.17100001 429209.10747746 13288.31459499
0.17200001 422994.70694822 15367.39842912
0.17300001 416852.59213041 10879.85316840
0.17400001 410783.53709831 12939.68202969
0.17500001 404785.67973739 11754.97669473
0.17600001 398858.57751361 13766.60445307
0.17700001 393006.31736657 13641.24992008
0.17800001 387223.63782748 10396.95516674
0.17900001 381512.18903833 11330.91254964
0.18000001 375873.47407336 11225.46183344
0.18100001 370306.05205808 15164.03354807
0.18200001 364807.19387744 16022.33271196
0.18300001 359379.78448152 17853.98853645
0.18400001 354022.33420070 10806.53226198
0.18500001 348735.27119697 9729.71452605
0.18600001 343517.86895052 11562.81201514
0.18700001 338369.02062052 12404.60888200
0.18800001 333287.58926314 10393.57396223
0.18900001 328278.06809408 11227.11045927
0.19000001 323332.27189001 12968.85803827
0.19100001 318457.02890432 11005.87543896
0.19200001 313647.12989914 15436.14422736
0.19300001 308905.85831335 10786.99308202
0.19400001 304229.09747850 9788.57167392
0.19500001 299618.86059026 8808.79491761
0.19600001 295072.71757953 11335.21898148
0.19700001 290593.22949445 11219.80512100
0.19800001 286176.76900298 9396.61465429
0.19900001 281824.35313847 10145.67719247
0.20000001 277533.68231077 10041.16910056
0.20100001 273307.30999222 9109.33307257
0.20200001 269141.78809023 10653.97818510
0.20300001 265038.14862212 12976.26836986
0.20400001 260995.81183875 10433.30807139
0.20500001 257013.19125836 11912.56197789
0.20600001 253089.72247625 11001.81075608
0.20700001 249226.07202261 8553.43919613
0.20800001 245420.23904359 10771.49480079
0.20900001 241674.67944414 8374.02803859
0.21000001 237983.37483022 9038.60900333
0.21100001 234350.07946652 11178.49931900
0.21200001 230771.73193043 8847.78862049
0.21300001 227248.87848834 8024.15827877
0.21400001 223781.01141704 7938.63175533
0.21500001 220368.01660030 10709.88611311
0.21600001 217006.99463424 9182.65141209
0.21700001 213699.27409251 12578.33986778
0.21800001 210443.64749119 6913.07414694
0.21900001 207238.58803694 11626.08533857
0.22000001 204083.86811403 8794.99471222
0.22100001 200980.70394165 10038.98663656
0.22200001 197926.26925903 7282.69742174
0.22300001 194920.15284782 7204.24918991
0.22400001 191961.37692790 6478.69677767
0.22500001 189052.29263411 7690.64762803
0.22600001 186187.91007639 8875.57809305
0.22700001 183370.59510063 7525.52957881
0.22800001 180597.78574643 8064.59450388
0.22900001 177869.47218611 6136.49708062
0.23000001 175185.52635156 8498.25028521
0.23100001 172546.21029572 7205.53008272
0.23200001 169947.73181959 7127.60820960
0.23300001 167392.40481300 7050.56842418
0.23400001 164877.66658443 6393.13182418
0.23500001 162403.29263293 5749.07683112
0.23600001 159969.57791034 6824.30251642
0.23700001 157575.37466083 8438.16171219
0.23800001 155219.60811770 6677.54785706
0.23900001 152902.06343906 6054.92199858
0.24000001 150621.63945095 5989.46977607
0.24100001 148379.21132611 8079.24843886
0.24200001 146172.83525698 6393.60011657
0.24300001 144001.63008538 6324.55189252
0.24400001 141865.65460725 6777.63196947
0.24500001 139763.49145022 7735.90961771
0.24600001 137695.50776596 5611.78068447
0.24700001 135661.49208006 7065.25084176
0.24800001 133659.70649643 5990.62832857
0.24900001 131688.89010015 4938.33361238
0.25000001 129750.80359631 5373.62978516
0.25100001 127842.92477284 6282.20162054
0.25200001 125967.34793432 4780.46108027
0.25300001 124119.89284810 5674.76176949
0.25400001 122302.81149836 5613.69931337
0.25500001 120512.82467828 4627.69268659
0.25600001 118752.57922301 5035.70336020
0.25700001 117019.24526505 5887.23850783
0.25800001 115313.06897841 5823.88682431
0.25900001 113634.49915741 7090.79308292
0.26000001 111981.41370692 4822.47980947
0.26100001 110353.68901281 5204.28022009
0.26200001 108752.41286271 5148.33946852
0.26300001 107174.41098048 5092.92825078
0.26400001 105621.82883574 4618.31468437
0.26500001 104092.89825274 5399.29888786
0.26600001 102587.02563222 4930.33268519
0.26700001 101104.48624522 4877.28064726
0.26800001 99644.70545373  4422.73046085
0.26900001 98206.30362912  5170.56213075
0.27000001 96790.26695925  4327.97699189
0.27100001 95395.21827702  4670.55010787
0.27200001 94021.64795086  5390.26133211
0.27300001 92668.65215515  6093.89085411
0.27400001 91334.19348737  5274.54992351
0.27500001 90021.79063836  3726.90230881
0.27600001 88726.44693663  4055.24244916
0.27700001 87452.24438522  4011.43463980
0.27800001 86195.51363201  4328.73889947
0.27900001 84957.80625528  4638.69644108
0.28000001 83737.49914222  3882.48933148
0.28100001 82535.31884217  4887.74181317
0.28200001 81350.96886336  3453.34879170
0.28300001 80183.56448856  5465.31201421
0.28400001 79032.22000101  3716.49032145
0.28500001 77898.25898432  4010.20256232
0.28600001 76780.19925479  3966.46528124
0.28700001 75678.81632944  3269.32502018
0.28800001 74591.58596842  3880.25448574
0.28900001 73521.61764424  3518.00957080
0.29000001 72465.99099349  3479.45472225
0.29100001 71425.92830164  3441.30138847
0.29200001 70400.30119248  4022.32139903
0.29300001 69389.38902386  3672.08664096
0.29400001 68392.07247627  4539.52402550
0.29500001 67410.07380877  3292.30816067
0.29600001 66440.79238878  3255.93118514
0.29700001 65485.65933622  3512.65093308
0.29800001 64544.35339769  2894.81438692
0.29900001 63616.51090462  3721.56606410
0.30000001 62700.85977904  2830.94395304
0.30100001 61799.24995880  3079.45677123
0.30200001 60909.41550237  3321.99967877
0.30300001 60033.07631154  3558.76093222
0.30400001 59168.84337446  4601.85701131
0.30500001 58317.36071271  2944.44368178
0.30600001 57476.98613900  3176.17840441
0.30700001 56649.38585458  3402.36227551
0.30800001 55833.41542404  2846.66682017
0.30900001 55029.51175432  2814.75965950
0.31000001 54237.30748925  2783.18756558
0.31100001 53455.82615809  3002.07933917
0.31200001 52686.93745196  3215.74737963
0.31300001 51928.25283485  3179.56707162
0.31400001 51182.15969210  3385.70002393
0.31500001 50445.84016589  3108.47281820
0.31600002 49721.65475109  3546.39719304
0.31700002 49007.57084134  3038.95961176
0.31800002 48304.14250881  2542.48866133
0.31900002 47612.07211579  2513.91752675
0.32000002 46930.68777845  2711.65526823
0.32100002 46259.42501948  2234.33033424
0.32200002 45599.55298888  2872.08798100
0.32300002 44948.43225587  2621.39269329
0.32400002 44308.93293435  3024.08481596
0.32500002 43679.15269440  2349.50173468
0.32600002 43059.76329529  2112.08148965
0.32700002 42450.63762836  2506.28576426
0.32800002 41852.35867303  2065.41399832
0.32900002 41262.12648355  2655.21796495
0.33000002 40683.19453418  2221.91277470
0.33100002 40113.14744147  2397.16180462
0.33200002 39554.37628722  2963.61178366
0.33300002 39004.65091266  3322.02627555
0.33400002 38465.14232195  1932.87349321
0.33500002 37934.93627573  2294.30505461
0.33600002 37413.94211404  1891.27486343
0.33700002 36902.61473170  2058.05892105
0.33800002 36401.62147307  2406.32930143
0.33900002 35909.20791650  2197.64362857
0.34000002 35426.42623623  2355.68032414
0.34100002 34953.12904582  2331.02428646
0.34200002 34489.83374774  2129.40243643
0.34300002 34035.05321887  2458.69236097
0.34400002 33590.26500108  1912.12592574
0.34500002 33154.20189305  1892.77347572
0.34600002 32727.99120564  3236.63484357
0.34700002 32309.59750033  2529.84160409
0.34800002 31901.34715060  1670.03560243
0.34900002 31501.62072665  1984.60219977
0.35000002 31111.23377934  1638.00653606
0.35100002 30730.37992251  1784.82055043
0.35200002 30356.85859316  1768.13531250
0.35300002 29993.49470761  2548.24743105
0.35400002 29638.31526260  1736.06439873
0.35500002 29292.22805775  2502.72808379
0.35600002 28954.39626695  1550.50799353
0.35700002 28625.25480828  1690.89388161
0.35800002 28304.91995629  1981.48601539
0.35900002 27993.73083813  1813.99384423
0.36000002 27690.65426520  1799.33879938
0.36100002 27395.34881335  1636.32426213
0.36200002 27110.07839387  1918.98699001
0.36300002 26831.73132388  2344.02015948
0.36400002 26562.11521909  1599.70346484
0.36500002 26299.96851995  2310.18934422
0.36600002 26046.96437167  2294.21673053
0.36700002 25801.31969758  1566.65620625
0.36800002 25564.69510892  1556.50653544
0.36900002 25335.71509465  1827.97193067
0.37000002 25113.97312554  1816.87047183
0.37100002 24900.01251191  1945.18906957
0.37200002 24694.65348034  2763.33185535
0.37300002 24496.50306939  1511.67927602
0.37400002 24305.97666275  2187.53800327
0.37500002 24123.07957816  1496.59592792
0.37600002 23947.85913652  1760.52694782
0.37700002 23779.77996463  1752.80766423
0.37800002 23619.09070211  1477.01990703
0.37900002 23466.33467528  2006.37170978
0.38000002 23319.94753769  1999.10259737
0.38100002 23180.11528943  1328.22066901
0.38200002 23048.42342189  1721.37158481
0.38300002 22922.82226281  1452.39008738
0.38400002 22804.53930517  2238.83575235
0.38500002 22692.31393645  1839.43905483
0.38600002 22587.77470644  1704.58649898
0.38700002 22488.81108234  1701.50352710
0.38800002 22396.38241528  1568.19477101
0.38900002 22310.34684268  1305.15535213
0.39000002 22231.20383908  1955.79025040
0.39100002 22157.31924556  1693.70556337
0.39200002 22090.17069248  1432.43718642
0.39300002 22028.42366684  1432.06789043
0.39400002 21973.71388970  1432.13687061
0.39500002 21923.44350426  1823.15364819
0.39600002 21879.24568862  1433.20005673
0.39700002 21839.87435300  1434.22461671
0.39800002 21807.25326684  1827.22983780
0.39900002 21778.85508443  1698.75077707
0.40000002 21756.08499802  1439.49143210
0.40100002 21738.04193511  1310.80399079
0.40200002 21725.54547471  1575.97114340
0.40300002 21717.55676866  1316.08400254
0.40400002 21714.36429493  2770.21015618
0.40500002 21715.53761377  1586.97156401
0.40600002 21722.02709937  1723.96876242
0.40700002 21732.55189447  2128.05158234
0.40800002 21747.05305989  1601.01812213
0.40900002 21765.49524862  1606.29362546
0.41000002 21788.85198329  2417.90901915
0.41100002 21815.64728630  2291.95201250
0.41200002 21845.58076392  1488.66717169
0.41300002 21880.48293286  2038.16708177
0.41400002 21918.31173747  1364.41497031
0.41500002 21959.43278301  1781.34927176
0.41600002 22003.21792679  1376.30134653
0.41700002 22051.57536648  2073.95076149
0.41800002 22103.40349393  1667.03877050
0.41900002 22156.25062516  1814.59701218
0.42000002 22212.70599233  1823.55218485
0.42100002 22272.63108099  1550.84337566
0.42200002 22334.73692714  1983.99477525
0.42300002 22399.09519911  2136.87378325
0.42400002 22465.70091853  1718.62620171
0.42500002 22535.11809767  1727.99293761
0.42600002 22605.45396712  1882.24321376
0.42700002 22678.98163382  1747.18882786
0.42800002 22753.71835105  1464.20184527
0.42900002 22831.15975096  2061.65382321
0.43000002 22910.03256131  1629.24704280
0.43100002 22988.94182753  1638.65185112
0.43200002 23070.71861759  1648.28756974
0.43300002 23152.94745774  1657.98264602
0.43400002 23236.91587394  1667.82971589
0.43500002 23321.50894263  1677.74943284
0.43600002 23407.66290260  1534.37237598
0.43700002 23494.05273424  2315.33900668
0.43800002 23580.71301499  1708.06902819
0.43900002 23669.08899406  1874.59193717
0.44000002 23757.22286001  2043.00247666
0.44100002 23846.21449914  1739.10450584
0.44200002 23935.29043136  2226.70017435
0.44300002 24024.73934776  1760.05248803
0.44400002 24114.06983957  1770.57566188
0.44500002 24202.96861277  1781.09654462
0.44600002 24291.63590474  2443.13139690
0.44700002 24381.19421683  1966.09959482
0.44800002 24469.29399865  2142.40913758
0.44900002 24557.63412097  1823.40441990
0.45000002 24645.75513028  2500.92812037
0.45100002 24732.32327577  1844.53675732
0.45200002 24818.74804155  2023.72081122
0.45300002 24903.96117395  2035.15180359
0.45400002 24988.61968967  1705.47337465
0.45500002 25072.52842331  1886.45712798
0.45600002 25154.95919033  1724.37253422
0.45700002 25236.56062045  1907.12697647
0.45800002 25316.65906067  2440.27288251
0.45900002 25395.42692995  1752.28454121
0.46000002 25473.33506429  1761.48120318
0.46100002 25549.00325565  1770.54600953
0.46200002 25623.77884541  1779.57152516
0.46300002 25696.80025457  1967.34712073
0.46400002 25767.70798433  1977.02748880
0.46500002 25838.01599014  2709.11610497
0.46600002 25905.38040348  2540.54077658
0.46700002 25971.08062932  1823.16994659
0.46800002 26035.53397001  2197.91988192
0.46900002 26097.21894498  2391.81022967
0.47000002 26157.15522853  1848.00310448
0.47100002 26215.19535905  1856.03591939
0.47200002 26271.18442047  2423.12280987
0.47300002 26324.87777196  2058.86878813
0.47400002 26375.83996262  2067.20655505
0.47500002 26424.92388821  2452.76155156
0.47600002 26472.27204419  2462.31850090
0.47700002 26516.27084720  1901.21670986
