# SAXS profile: number of points = 501, q_min = 0, q_max = 0.5, delta_q = 0.001
#    q    intensity    error
0.00000000 1664650.74656090 274.66737318
0.00100000 1664569.79683630 499.37095091
0.00200000 1664326.88939721 823.84183634
0.00300000 1663922.23920624 998.35337909
0.00400000 1663355.72307299 1497.02020765
0.00500000 1662627.83864783 1945.27464821
0.00600000 1661738.49393797 2617.23823451
0.00700000 1660688.25937064 2391.39119288
0.00800000 1659476.90128805 2688.35269359
0.00900000 1658105.71738760 2735.87455064
0.01000000 1656574.03619989 3006.68200553
0.01100000 1654883.14850620 3276.66877671
0.01200000 1653032.95328875 4512.78016034
0.01300000 1651024.63644914 5894.15821208
0.01400000 1648858.10981620 4822.91018502
0.01500000 1646534.90876903 5137.18914411
0.01600000 1644054.34478252 5450.04039659
0.01700000 1641418.74647124 5318.19697713
0.01800000 1638627.98652606 5604.10796609
0.01900000 1635682.68001668 5888.45791376
0.02000000 1632584.06069292 5656.90402619
0.02100000 1629334.14986361 6989.84381982
0.02200000 1625931.36955525 5609.46347982
0.02300000 1622379.04128775 7008.67777739
0.02400000 1618676.63154396 6677.04140958
0.02500000 1614826.65835235 8816.95395728
0.02600000 1610829.15271358 9133.40171363
0.02700000 1606686.22414900 7422.89069555
0.02800000 1602397.69685501 11152.68848157
0.02900000 1597965.95420765 7909.93183651
0.03000000 1593392.53617903 11113.91345070
0.03100000 1588677.63676333 9913.34890955
0.03200000 1583822.69983633 10191.89954287
0.03300000 1578831.57547802 11272.85796860
0.03400000 1573702.22327935 8261.93705343
0.03500000 1568438.05940585 9316.52250309
0.03600000 1563040.20985416 12144.82299182
0.03700000 1557510.45496255 9765.59100425
0.03800000 1551850.22827468 12709.65395777
0.03900000 1546061.69082027 9276.37057451
0.04000000 1540144.41627692 11366.26631882
0.04100000 1534102.83845236 10631.33316341
0.04200000 1527937.29361703 12811.75480135
0.04300000 1521649.00416494 11047.17228302
0.04400000 1515241.35322897 11250.66757023
0.04500000 1508715.57487982 14574.19313053
0.04600000 1502071.72839492 13766.48803070
0.04700000 1495314.06858319 11842.88797397
0.04800000 1488442.93051880 14222.07286283
0.04900000 1481462.06479644 12222.06260348
0.05000000 1474371.26384492 13534.72883236
0.05100000 1467174.60708401 16021.54745571
0.05200000 1459870.57600464 23211.94324018
0.05300000 1452465.41024096 12941.46740855
0.05400000 1444958.82053748 13113.00190789
0.05500000 1437353.28571408 12073.76816323
0.05600000 1429649.92226935 13445.85814638
0.05700000 1421853.85711096 19792.20661486
0.05800000 1413963.86961935 18770.37124563
0.05900000 1405982.82214476 13919.23058934
0.06000000 1397914.03268869 19186.37099502
0.06100000 1389759.10937439 16802.18841753
0.06200000 1381520.28678889 13055.36732041
0.06300000 1373200.42190066 17137.54206659
0.06400000 1364798.42868622 17298.82089261
0.06500000 1356320.35132686 13427.57210625
0.06600000 1347767.14764424 13545.06046758
0.06700000 1339140.26166031 16391.07756981
0.06800000 1330442.98762370 13770.08556647
0.06900000 1321677.60787828 16653.13863895
0.07000000 1312845.16436202 15379.98182072
0.07100000 1303948.57214014 14082.64523871
0.07200000 1294990.36073318 31196.31925151
0.07300000 1285973.08086451 14274.30186643
0.07400000 1276898.80323780 17238.13465156
0.07500000 1267769.15941776 15897.82600427
0.07600000 1258585.58814008 17443.99706941
0.07700000 1249353.28032577 17540.92087824
0.07800000 1240071.98937180 19103.30989215
0.07900000 1230744.38405058 17722.71996159
0.08000000 1221374.08429150 17807.63498435
0.08100000 1211962.18676279 14907.13559660
0.08200000 1202510.47897827 17965.50739897
0.08300000 1193022.48146585 22548.12595793
0.08400000 1183499.41126263 16598.58002207
0.08500000 1173943.98560679 18172.65375031
0.08600000 1164357.88057553 16714.35816043
0.08700000 1154745.03967460 18291.16228736
0.08800000 1145104.91192272 18344.58155053
0.08900000 1135442.74234832 21459.86883835
0.09000000 1125758.20959352 19976.58036765
0.09100000 1116054.46496975 16941.70757418
0.09200000 1106333.28786122 15433.35009083
0.09300000 1096599.13197412 18554.45818492
0.09400000 1086849.35553554 21682.64566196
0.09500000 1077089.69804767 21714.12933326
0.09600000 1067320.84722663 18635.42286859
0.09700000 1057547.58494022 21764.33032127
0.09800000 1047769.45275589 23339.06565749
0.09900000 1037989.28121710 21797.77593054
0.10000000 1028207.82587771 26481.49380083
0.10100000 1018427.64717512 18698.33248155
0.10200000 1008651.52728821 17142.03351256
0.10300000 998880.68622015 17140.79338185
0.10400000 989117.95052377 15578.60845365
0.10500000 979366.26380737 18686.30919262
0.10600001 969622.48465376 15562.44161096
0.10700001 959894.77175910 17105.32563768
0.10800001 950180.90094658 17089.00430776
0.10900001 940485.18538524 15518.00628922
0.11000001 930807.35997525 18597.53192768
0.11100001 921150.17944191 15475.32374310
0.11200001 911515.22542440 21630.25731761
0.11300001 901904.16223526 18507.07428040
0.11400001 892319.34814167 16931.76042821
0.11500001 882762.39407208 30720.13276026
0.11600001 873234.07260243 18390.31043503
0.11700001 863737.58468403 19874.60275957
0.11800001 854271.64197500 16773.62448019
0.11900001 844839.51725654 16727.82322959
0.12000001 835442.01248899 19712.25521322
0.12100001 826084.10311028 18140.80775888
0.12200001 816762.92935152 21096.98745906
0.12300001 807482.77127703 21026.85235472
0.12400001 798242.41220375 16463.75052743
0.12500001 789044.45033070 17895.52897675
0.12600001 779892.06628965 16342.63901922
0.12700001 770784.31675521 23678.49532660
0.12800001 761722.88945641 25056.87562958
0.12900001 752709.71899133 16145.62423334
0.13000001 743745.88276116 14614.60728511
0.13100001 734831.37447347 16004.62809045
0.13200001 725968.97455387 14483.08172509
0.13300001 717159.25685251 14414.90174230
0.13400001 708402.41462381 18648.69444418
0.13500001 699701.22597737 15701.29625122
0.13600001 691055.89161197 17041.43909067
0.13700001 682467.46073522 15539.78481369
0.13800001 673935.16142408 18267.01341179
0.13900001 665463.13890923 16769.67189134
0.14000001 657049.74676742 15286.26307945
0.14100001 648697.99456516 15198.99472949
0.14200001 640406.94988971 15110.40269533
0.14300001 632179.07564534 17751.58928142
0.14400001 624011.08082945 20358.36247236
0.14500001 615909.71239268 14837.26567144
0.14600001 607871.82819363 16084.28933277
0.14700001 599900.21032447 14649.56382724
0.14800001 591991.99492125 15877.22605285
0.14900001 584151.46594758 15772.09032472
0.15000001 576377.23365559 22193.40642906
0.15100001 568670.46701218 12965.68725966
0.15200001 561032.76934431 14163.27293042
0.15300001 553463.58220814 12785.00935232
0.15400001 545961.56472356 16501.68907250
0.15500001 538530.63496017 16382.10268861
0.15600001 531167.71487417 17512.60038591
0.15700001 523877.62761770 13657.49039658
0.15800001 516655.14547863 17251.11612176
0.15900001 509505.60749990 14673.76218861
0.16000001 502424.70295744 19413.69143865
0.16100001 495417.73918936 14446.38195669
0.16200001 488481.61448500 14332.05124555
0.16300001 481616.89258743 11847.77611696
0.16400001 474824.83506665 14102.29826724
0.16500001 468103.97039046 12821.36835431
0.16600001 461455.83097789 12715.41602293
0.16700001 454879.28967660 11462.95864107
0.16800001 448375.30703907 12502.94602713
0.16900001 441944.95585498 15777.43566900
0.17000001 435585.37374764 13407.31843704
0.17100001 429299.14471292 15506.28583926
0.17200001 423084.90582630 13174.86458959
0.17300001 416942.86549735 11970.43023373
0.17400001 410873.88632109 10785.44002528
0.17500001 404876.08911407 16033.09388612
0.17600001 398949.03578669 13769.72662051
0.17700001 393096.75174154 12594.82052066
0.17800001 387314.06658751 12479.25981487
0.17900001 381602.62775229 11333.59857957
0.18000001 375963.95184635 12248.90612973
0.18100001 370396.46628503 13145.37120940
0.18200001 364897.62446640 12019.72831771
0.18300001 359470.02468085 11905.64777984
0.18400001 354112.56648157 10809.28660249
0.18500001 348825.29354073 14598.33922434
0.18600001 343607.81637370 9638.19970462
0.18700001 338458.76386895 11453.44511044
0.18800001 333377.18343298 13231.74103560
0.18900001 328367.33586254 11230.16341710
0.19000001 323421.43668222 12972.43443826
0.19100001 318545.89783481 9174.12229112
0.19200001 313735.74496123 9990.91527037
0.19300001 308994.28100227 11689.25420266
0.19400001 304317.16535086 11571.66075927
0.19500001 299706.48424185 12335.91947433
0.19600001 295160.10747187 13955.17054074
0.19700001 290680.23941122 9496.52387035
0.19800001 286263.42277629 9399.45993107
0.19900001 281910.59669150 8457.31830044
0.20000001 277619.48319736 10044.27337678
0.20100001 273392.71483258 9940.55958113
0.20200001 269226.68603949 9837.54357284
0.20300001 265122.59105149 10546.57717051
0.20400001 261079.84216468 8028.20552602
0.20500001 257096.61429043 9533.14290849
0.20600001 253172.63338495 7861.01063818
0.20700001 249308.41661430 9334.10755925
0.20800001 245501.95374448 8466.13527507
0.20900001 241755.87405832 7615.31039282
0.21000001 238063.89662707 8288.19495287
0.21100001 234430.06744723 10436.82709613
0.21200001 230851.04425428 9588.39857639
0.21300001 227327.43472693 10945.81649957
0.21400001 223858.92005850 10107.23071848
0.21500001 220445.20448904 9999.39494837
0.21600001 217083.39320127 8479.27773933
0.21700001 213774.95062781 8388.52945924
0.21800001 210518.53593673 7607.08765574
0.21900001 207312.71301181 8209.58382343
0.22000001 204157.08801429 10151.71168151
0.22100001 201053.13045600 9373.09738505
0.22200001 197997.89354292 7947.63582261
0.22300001 194990.89546553 7206.86383719
0.22400001 192031.25852209 7777.26633790
0.22500001 189121.25203023 12181.30041929
0.22600001 186255.86456023 7610.41498581
0.22700001 183437.69466826 8782.99723606
0.22800001 180663.90351925 6826.38591729
0.22900001 177934.60725664 6752.61866473
0.23000001 175249.73275322 6072.40352707
0.23100001 172609.33941844 8409.52741418
0.23200001 170009.88885334 6536.03048608
0.23300001 167453.47336338 7053.14063164
0.23400001 164937.65793672 6976.86326070
0.23500001 162462.24207420 6901.39636972
0.23600001 160027.45644410 6257.87398023
0.23700001 157632.14037996 7315.70798105
0.23800001 155275.18550549 6123.27723003
0.23900001 152956.52786013 5506.43526342
0.24000001 150674.98703395 8170.35155838
0.24100001 148431.31410035 7004.47404372
0.24200001 146223.85712019 5862.84582856
0.24300001 144051.33306859 6326.73484764
0.24400001 141914.20261765 5736.88191219
0.24500001 139810.80729700 6190.82283996
0.24600001 137741.58542327 6634.32377575
0.24700001 135706.30679614 5553.10233679
0.24800001 133703.25794279 5493.19861244
0.24900001 131731.18993890 6421.89581332
0.25000001 129791.80485529 7329.99252597
0.25100001 127882.59161249 6767.54706830
0.25200001 126005.70428332 6216.49171492
0.25300001 124156.94012871 5676.45557124
0.25400001 122338.51832406 5615.33825674
0.25500001 120547.22298155 6017.71765595
0.25600001 118785.64712176 5952.94298716
0.25700001 117050.87855533 6794.80382162
0.25800001 115343.35441006 6273.52534319
0.25900001 113663.40708967 4876.16039486
0.26000001 112008.96354439 5700.69646932
0.26100001 110379.71952390 5639.30013731
0.26200001 108777.08009189 4291.25601267
0.26300001 107197.63528684 4669.52921405
0.26400001 105643.68051605 4619.27014914
0.26500001 104113.28694787 4569.53238037
0.26600001 102605.99081970 4520.30713946
0.26700001 101121.94472420 5691.14331838
0.26800001 99660.75991355  4825.57422336
0.26900001 98220.93909045  4375.74304355
0.27000001 96803.36627770  4328.56272794
0.27100001 95406.85387374  4281.85980448
0.27200001 94031.89991960  6546.03102268
0.27300001 92677.38962360  4570.84907255
0.27400001 91341.45386135  3767.83515009
0.27500001 90027.60898210  4472.57182590
0.27600001 88730.83276553  4424.11953107
0.27700001 87455.07687782  4740.93994192
0.27800001 86196.86262763  4328.80664603
0.27900001 84957.68165315  4281.86735797
0.28000001 83735.95335367  4941.25884126
0.28100001 82532.20546849  4887.55743917
0.28200001 81346.37488592  4143.78453281
0.28300001 80177.48626812  4781.78550735
0.28400001 79024.68640241  5067.45825540
0.28500001 77889.23519392  3341.44834797
0.28600001 76769.69911357  6279.37783621
0.28700001 75666.83950552  4903.21143204
0.28800001 74578.16568460  3556.25999900
0.28900001 73506.73572981  3517.29747116
0.29000001 72449.61001773  3478.66818966
0.29100001 71408.11833741  4378.74602372
0.29200001 70381.02431197  4639.86924740
0.29300001 69368.66860363  3365.07427325
0.29400001 68369.87631527  4235.51403822
0.29500001 67386.54377964  5086.33656526
0.29600001 66415.76131069  4142.35122904
0.29700001 65459.28634238  2926.03023802
0.29800001 64516.50306529  3761.63488929
0.29900001 63587.29542997  4005.99980173
0.30000001 62670.22777599  3678.42919345
0.30100001 61767.21050997  3637.47119913
0.30200001 60876.02635750  3043.49708182
0.30300001 59998.25796666  3830.28896992
0.30400001 59132.74186875  2705.32306857
0.30500001 58279.91456524  3477.56266674
0.30600001 57438.16591107  3438.53596506
0.30700001 56609.30092042  2615.34982634
0.30800001 55792.06965319  3620.34757120
0.30900001 54986.83493826  3068.26553482
0.31000001 54193.33288864  2780.93100884
0.31100001 53410.61172355  2999.54009641
0.31200001 52640.40693616  2718.61394493
0.31300001 51880.50765367  2687.92922880
0.31400001 51133.25509220  2657.65105925
0.31500001 50395.64871230  2866.50463448
0.31600002 49670.28466647  2598.00436249
0.31700002 48955.04532451  3035.70250431
0.31800002 48250.44893396  3232.29772713
0.31900002 47557.26107562  2967.57323163
0.32000002 46874.77230232  3159.82855052
0.32100002 46202.41609442  2901.04984393
0.32200002 45541.48917710  2206.48525511
0.32300002 44889.25331213  2399.77959570
0.32400002 44248.76744574  3235.69127268
0.32500002 43617.93698666  3199.37582947
0.32600002 42997.58197921  2319.93464554
0.32700002 42387.41814774  2085.46107162
0.32800002 41788.18703805  2268.47184078
0.32900002 41196.99006461  2243.17621524
0.33000002 40617.19578833  2419.97263966
0.33100002 40046.19414524  2592.59073173
0.33200002 39486.59188289  1972.35535795
0.33300002 38935.98733486  2145.76236364
0.33400002 38395.67774260  3087.01263669
0.33500002 37864.61029239  1908.37644911
0.33600002 37342.87417480  2831.52356840
0.33700002 36830.79388972  3361.17840955
0.33800002 36329.01138585  2032.06334810
0.33900002 35835.94931246  2558.68690208
0.34000002 35352.43070349  1989.10460773
0.34100002 34878.52122882  1968.19504615
0.34200002 34414.58620300  1770.63054400
0.34300002 33959.25735663  2102.75731511
0.34400002 33513.81080871  2081.20774979
0.34500002 33077.21524951  1716.70755275
0.34600002 32650.47399085  1869.40297688
0.34700002 32231.58730643  2018.98672450
0.34800002 31822.87753155  1832.52048944
0.34900002 31422.67026223  3464.34956049
0.35000002 31031.88406667  1960.59452819
0.35100002 30650.65549430  1780.19015542
0.35200002 30276.71111811  1603.15192963
0.35300002 29913.04889582  1747.22126876
0.35400002 29557.56312796  2046.12240445
0.35500002 29211.19842523  1559.87806979
0.35600002 28873.12281101  2937.69601955
0.35700002 28543.68529443  1992.63476478
0.35800002 28223.24408406  1823.78611910
0.35900002 27911.86644123  1657.96494514
0.36000002 27608.66346561  1794.01103697
0.36100002 27313.25110749  1631.42056592
0.36200002 27027.89921949  1618.83610043
0.36300002 26749.45560419  2190.78051775
0.36400002 26479.78201867  1739.72176103
0.36500002 26217.75015251  1727.22546186
0.36600002 25964.71403224  2286.97212029
0.36700002 25719.20193511  1987.58001969
0.36800002 25482.62186068  2115.69478020
0.36900002 25253.74615599  1541.74127585
0.37000002 25032.16937061  1810.95237890
0.37100002 24818.44203330  1661.84295727
0.37200002 24613.26417960  1377.11219608
0.37300002 24415.33796560  1506.67057723
0.37400002 24225.04981319  1635.19093985
0.37500002 24042.46515607  1491.59460894
0.37600002 23867.63887715  1619.65805093
0.37700002 23699.91056005  1343.78499241
0.37800002 23539.63092825  1739.69650617
0.37900002 23387.28221927  1333.07514965
0.38000002 23241.35476287  1328.24348762
0.38100002 23101.95966177  1456.11658646
0.38200002 22970.77848580  1715.57267248
0.38300002 22845.73223975  1447.50566328
0.38400002 22728.02186230  1706.30632215
0.38500002 22616.37225360  1964.23202328
0.38600002 22512.43565445  1437.53164682
0.38700002 22414.14479184  1434.95361755
0.38800002 22322.40096887  1432.76337406
0.38900002 22237.06124826  1691.12858805
0.39000002 22158.62897910  1429.56401631
0.39100002 22085.48862881  1428.48947219
0.39200002 22019.16819544  1298.03002662
0.39300002 21958.17642964  1816.81960386
0.39400002 21904.33513865  1816.96468583
0.39500002 21854.94049497  1817.45693767
0.39600002 21811.62014873  1428.77024553
0.39700002 21773.19553378  1299.85983495
0.39800002 21741.50019036  1951.84327207
0.39900002 21714.06623010  1823.98164975
0.40000002 21692.27904781  1826.70690516
0.40100002 21675.22449006  1568.41931841
0.40200002 21663.79189708  1833.40679512
0.40300002 21656.85905049  1443.64629271
0.40400002 21654.83848472  1578.63780033
0.40500002 21657.08965324  1714.59186909
0.40600002 21664.71141935  2248.47218119
0.40700002 21676.37345089  1724.57235346
0.40800002 21692.04452053  1596.96839327
0.40900002 21711.77022938  1735.85611209
0.41000002 21736.26822931  1608.04919980
0.41100002 21764.36684708  1614.04552186
0.41200002 21795.51066741  1485.25514481
0.41300002 21831.73515530  1626.90098086
0.41400002 21870.82082988  1361.45866117
0.41500002 21913.37259154  1504.13396595
0.41600002 21958.42396309  1648.19938077
0.41700002 22008.16741482  1655.89459475
0.41800002 22061.32710889  1941.17626429
0.41900002 22115.60431191  1532.61145144
0.42000002 22173.45590288  1540.27918728
0.42100002 22234.84201065  1688.95867916
0.42200002 22298.42139965  1414.83490485
0.42300002 22364.20167837  1422.36329414
0.42400002 22432.28283021  1859.07552765
0.42500002 22503.23901892  1581.75274559
0.42600002 22575.05910375  2458.08542699
0.42700002 22650.08143459  2035.78941581
0.42800002 22726.35517300  1901.17333209
0.42900002 22805.36980471  1618.04106432
0.43000002 22885.74656484  1923.43266119
0.43100002 22966.25025377  1488.21308697
0.43200002 23049.59236355  1497.07109496
0.43300002 23133.42299959  1807.18309037
0.43400002 23219.03629560  2272.56328512
0.43500002 23305.18552413  1828.99104661
0.43600002 23392.96945267  1840.09106435
0.43700002 23480.99403230  2159.78193344
0.43800002 23569.27838879  1862.44446654
0.43900002 23659.30319831  2029.96831061
0.44000002 23749.11730735  1728.10460276
0.44100002 23839.73013048  1738.63160081
0.44200002 23930.45527966  1749.19671156
0.44300002 24021.57929182  1599.83725665
0.44400002 24112.55135765  2092.36674322
0.44500002 24203.16719549  1943.03035454
0.44600002 24293.52224918  1628.88074400
0.44700002 24384.71363101  1638.65283366
0.44800002 24474.49117856  2142.86417669
0.44900002 24564.45663229  2155.53117164
0.45000002 24654.31047139  2001.43701892
0.45100002 24742.55140071  2684.07210315
0.45200002 24830.64155789  2024.69060859
0.45300002 24917.54820055  1866.57362417
0.45400002 25003.85211694  2047.81558543
0.45500002 25089.43344606  2745.78772647
0.45600002 25173.52073642  1898.20942109
0.45700002 25256.84385759  2255.68883183
0.45800002 25338.57953127  1919.01741175
0.45900002 25419.01928852  2104.69489684
0.46000002 25498.53368304  1939.54605652
0.46100002 25575.86924477  2304.13016946
0.46200002 25652.24528684  2137.85822353
0.46300002 25726.92597550  2148.71295931
0.46400002 25799.45702156  2519.31709756
0.46500002 25871.36398904  1989.24927140
0.46600002 25940.32578351  1998.83189798
0.46700002 26007.63781706  2373.45713968
0.46800002 26073.66332979  2017.71053241
0.46900002 26136.95016255  2579.71710331
0.47000002 26198.39685913  2776.37523874
0.47100002 26257.98886913  1859.06570005
0.47200002 26315.49804067  1867.08467448
0.47300002 26370.74044901  2999.93557567
0.47400002 26423.15805104  2259.18012044
0.47500002 26473.74897425  2835.33864953
0.47600002 26522.60898167  2087.46203884
0.47700002 26568.05093252  2476.40814480
