# SAXS profile: number of points = 501, q_min = 0, q_max = 0.5, delta_q = 0.001
#    q    intensity    error
0.00000000 1646666.22097350 321.09991309
0.00100000 1646585.78438476 493.97574705
0.00200000 1646344.40760070 814.94050757
0.00300000 1645942.31558520 1283.83505189
0.00400000 1645379.37873925 1604.24495523
0.00500000 1644656.09047875 2220.28581003
0.00600000 1643772.36467140 2243.74936912
0.00700000 1642728.77412200 2562.65699414
0.00800000 1641525.07488245 2880.87662805
0.00900000 1640162.57209515 2706.26835964
0.01000000 1638640.57282484 3244.50847429
0.01100000 1636960.39242440 3535.83460158
0.01200000 1635121.91261167 3507.33665633
0.01300000 1633126.31230337 3772.52194781
0.01400000 1630973.52930350 4036.65966398
0.01500000 1628665.06707033 5081.43523553
0.01600000 1626200.25941109 4561.49193156
0.01700000 1623581.40731594 6137.13799496
0.01800000 1620808.38032975 6005.09531934
0.01900000 1617881.75295307 6795.10366902
0.02000000 1614802.93901374 8138.60718078
0.02100000 1611573.72633724 6381.83224564
0.02200000 1608192.65334846 8877.22384980
0.02300000 1604663.03222274 6932.14461474
0.02400000 1600984.22649623 6604.06023543
0.02500000 1597158.91981911 8097.59609331
0.02600000 1593187.03627366 7742.88935044
0.02700000 1589070.63644243 8676.32607236
0.02800000 1584809.63153787 7583.31443468
0.02900000 1580406.41415526 7823.01210926
0.03000000 1575862.41543028 9526.08873915
0.03100000 1571177.91584279 9049.98521167
0.03200000 1566354.26298136 13956.21712596
0.03300000 1561395.29760216 11148.36293882
0.03400000 1556299.34972999 9804.68635569
0.03500000 1551069.20903474 10050.92893868
0.03600000 1545706.38462090 10294.40499732
0.03700000 1540212.51184672 10535.05406825
0.03800000 1534589.14986177 9875.08163637
0.03900000 1528838.34203213 11007.63657240
0.04000000 1522959.80618988 14049.30486313
0.04100000 1516957.69286728 11468.20068982
0.04200000 1510832.57318040 11693.84465893
0.04300000 1504585.58406856 13902.37144211
0.04400000 1498220.04085877 12135.58289456
0.04500000 1491737.33844867 10292.98811356
0.04600000 1485137.33918608 12564.26247359
0.04700000 1478424.41680479 14902.51881448
0.04800000 1471598.87285409 10816.25221874
0.04900000 1464664.40797773 14280.47864250
0.05000000 1457620.66012774 15611.11799692
0.05100000 1450472.11076809 12445.05129013
0.05200000 1443216.91629341 16063.00502690
0.05300000 1435861.44465351 12793.52606827
0.05400000 1428405.28271015 18854.95061105
0.05500000 1420850.89111886 13128.66284638
0.05600000 1413199.66641266 13291.14348283
0.05700000 1405456.18851726 17118.45717520
0.05800000 1397619.87790692 17316.51109582
0.05900000 1389692.92650322 18760.85538403
0.06000000 1381679.21728071 12642.36542875
0.06100000 1373580.10781999 14051.72515965
0.06200000 1365397.54319649 12903.00738634
0.06300000 1357135.11983581 13028.49775958
0.06400000 1348790.98013088 15780.85520555
0.06500000 1340371.39983798 23885.41946242
0.06600000 1331877.59319105 18739.51861299
0.06700000 1323310.49481876 18896.87475037
0.06800000 1314673.74679364 17688.93609111
0.06900000 1305969.86348913 16455.22105038
0.07000000 1297199.24693830 15196.68988952
0.07100000 1288365.18919286 13914.34469500
0.07200000 1279470.11996747 14010.19846998
0.07300000 1270516.56389064 16923.28142397
0.07400000 1261506.69953001 17030.34124177
0.07500000 1252442.10860482 17133.40884880
0.07600000 1243324.28277089 17232.47536707
0.07700000 1234157.99007711 14439.64916096
0.07800000 1224943.62637886 17418.69918398
0.07900000 1215683.23619716 16047.01947047
0.08000000 1206380.77376693 14657.52708887
0.08100000 1197037.21139381 20612.98174733
0.08200000 1187654.37130868 16264.92737831
0.08300000 1178235.78275579 22268.65733920
0.08400000 1168782.64924003 16392.17742502
0.08500000 1159297.67369050 19441.42290047
0.08600000 1149782.40806371 18005.59335567
0.08700000 1140241.00877077 18061.41842705
0.08800000 1130672.58483940 18113.37565980
0.08900000 1121082.73903979 18161.54122549
0.09000000 1111471.11923712 19723.05593736
0.09100000 1101840.39396299 18246.47778127
0.09200000 1092192.65506828 18283.30590492
0.09300000 1082532.60210547 21369.19456975
0.09400000 1072857.18303965 21403.50180755
0.09500000 1063172.19152624 21433.55238860
0.09600000 1053478.51674890 15328.11313924
0.09700000 1043780.58882344 19946.64799016
0.09800000 1034078.21451900 21498.48709066
0.09900000 1024374.27259382 18438.73777372
0.10000000 1014669.31888152 18446.68908476
0.10100000 1004965.98283960 18451.17631273
0.10200000 995267.06548144 16914.56457346
0.10300000 985573.42433067 15374.94614281
0.10400000 975888.41711327 18444.29195115
0.10500000 966214.72360299 18435.37779372
0.10600001 956549.34494556 15352.61770877
0.10700001 946899.94866862 21475.69184640
0.10800001 937264.87184851 22986.42206386
0.10900001 927648.05330785 21428.67103997
0.11000001 918049.37803675 22928.28429569
0.11100001 908471.44175379 16788.55303390
0.11200001 898916.09222687 22854.94272081
0.11300001 889384.75539057 16729.32803653
0.11400001 879879.94391842 18213.51569668
0.11500001 870402.95567195 15145.01214184
0.11600001 860954.88684164 18131.71077073
0.11700001 851538.70714521 15072.23582630
0.11800001 842153.28601880 15032.43686344
0.11900001 832801.90513481 16489.47849835
0.12000001 823485.12892521 16440.88137344
0.12100001 814207.75562766 20860.00368186
0.12200001 804967.63613413 17821.98430363
0.12300001 795768.30629042 17761.54943323
0.12400001 786609.22419268 20648.49310796
0.12500001 777492.05817089 16164.06065103
0.12600001 768420.94118558 16102.26158134
0.12700001 759394.31512601 17496.44584505
0.12800001 750414.08683048 15972.56459096
0.12900001 741482.06293491 18796.57118132
0.13000001 732599.51087237 15835.13917389
0.13100001 723766.28833308 15763.63050295
0.13200001 714984.87391663 18543.13357916
0.13300001 706256.25714401 17034.90172539
0.13400001 697580.69826628 21189.01470881
0.13500001 688960.64212185 15460.27753814
0.13600001 680396.13965038 16778.56959490
0.13700001 671888.57102089 20862.14111392
0.13800001 663437.22176178 16599.20007123
0.13900001 655045.93603231 20633.94795808
0.14000001 646713.21237239 15045.78359541
0.14100001 638441.96388586 13598.81447213
0.14200001 630231.40221312 14870.31063658
0.14300001 622083.68701293 17468.11075525
0.14400001 613996.11930657 16025.29946981
0.14500001 605974.67534971 21233.35362588
0.14600001 598016.67871584 15823.52206529
0.14700001 590124.81160547 17031.00286640
0.14800001 582296.09517969 16918.61384364
0.14900001 574534.75585251 14219.73587825
0.15000001 566839.78894529 15406.70619047
0.15100001 559212.05415956 17850.04961103
0.15200001 551653.15127342 15192.52850296
0.15300001 544162.36708629 13827.16640015
0.15400001 536738.72325347 14975.01108546
0.15500001 529385.88192662 13626.39324386
0.15600001 522100.68292555 17213.66032845
0.15700001 514888.33176959 18304.28105831
0.15800001 507743.24087513 12109.67686643
0.15900001 500670.79997037 15620.92969639
0.16000001 493666.81891788 13114.25966358
0.16100001 486736.40260897 14193.23417006
0.16200001 479876.56719087 11732.98262168
0.16300001 473087.81771276 13965.55303816
0.16400001 466371.36793946 13851.23028171
0.16500001 459725.73098573 12591.88836618
0.16600001 453152.70336790 11351.47575530
0.16700001 446650.93589149 13506.72493908
0.16800001 440221.53252865 12275.57801417
0.16900001 433865.11310326 12169.91699719
0.17000001 427579.24715418 12064.14902812
0.17100001 421366.33787029 13045.50243649
0.17200001 415225.27674226 12930.11572835
0.17300001 409155.80606827 14950.55385977
0.17400001 403159.32776617 13757.81270975
0.17500001 397233.44425780 13633.05245078
0.17600001 391377.86717337 11430.19115064
0.17700001 385596.78153530 11324.97800858
0.17800001 379884.90194679 13259.88312874
0.17900001 374244.03322714 16167.34299905
0.18000001 368675.18400020 11010.48489025
0.18100001 363177.29649969 12889.16286161
0.18200001 357747.76268760 12766.22951456
0.18300001 352388.92465873 9725.93478003
0.18400001 347100.00201606 19264.05102194
0.18500001 341880.64163771 12400.01145800
0.18600001 336730.72302055 10389.82694965
0.18700001 331648.83388595 11222.99706893
0.18800001 326633.95408980 9260.07303595
0.18900001 321690.46270770 11001.81434441
0.19000001 316810.27113584 9076.61469690
0.19100001 312000.14164814 10782.72540484
0.19200001 307255.06454695 10674.04144672
0.19300001 302577.94523177 10566.02234677
0.19400001 297964.86918109 11330.11468600
0.19500001 293417.86125539 9489.13408141
0.19600001 288934.59340632 9391.81940250
0.19700001 284517.39847562 10985.21727428
0.19800001 280162.63221445 10871.71145687
0.19900001 275871.61093637 11586.60820691
0.20000001 271641.71271811 10646.99743318
0.20100001 267475.76632977 8914.96771311
0.20200001 263370.06121550 12831.38998887
0.20300001 259325.76661742 8728.90571691
0.20400001 255342.57932404 10207.32009094
0.20500001 251418.14769252 11653.23169636
0.20600001 247552.57238220 9992.46005653
0.20700001 243746.25140451 9125.86008396
0.20800001 239997.20712820 7523.91279913
0.20900001 236308.00671451 8188.07281972
0.21000001 232672.56527272 10309.72185460
0.21100001 229094.66518313 10199.29497611
0.21200001 225571.17713610 9369.09928527
0.21300001 222102.51532311 7129.49107892
0.21400001 218688.49976264 7052.70445077
0.21500001 215328.83415168 7674.32001199
0.21600001 212020.53872742 7591.39574805
0.21700001 208765.01089320 10239.92426845
0.21800001 205561.16967634 8103.22169177
0.21900001 202407.52296631 7347.39343107
0.22000001 199303.48115761 6606.91071277
0.22100001 196250.61669271 7842.17501385
0.22200001 193245.85967288 6464.07431171
0.22300001 190288.93019930 7033.07919273
0.22400001 187379.00220956 7588.84994834
0.22500001 184518.04674473 7506.19449652
0.22600001 181701.30986585 7424.31587220
0.22700001 178931.13661382 9179.16774236
0.22800001 176205.24272411 7263.18044856
0.22900001 173522.89841021 5986.54027826
0.23000001 170884.73882351 6513.27212828
0.23100001 168290.53804286 5856.51100086
0.23200001 165736.71658260 8109.49792591
0.23300001 163225.59982833 6875.06258992
0.23400001 160754.59510454 6233.25971998
0.23500001 158323.34794250 6725.57613869
0.23600001 155932.37375965 7206.41499414
0.23700001 153580.45177149 6579.38686508
0.23800001 151266.27807309 6507.47559050
0.23900001 148990.06446380 6972.73534671
0.24000001 146750.35351925 6896.53318985
0.24100001 144548.18258140 6296.51913108
0.24200001 142381.65799565 5708.79284737
0.24300001 140249.69382227 8726.33636240
0.24400001 138152.65663024 6600.24348272
0.24500001 136088.84228169 5523.84636952
0.24600001 134058.91845411 7450.32474553
0.24700001 132062.23402627 7369.07300727
0.24800001 130097.51974295 4859.14259227
0.24900001 128163.21444442 5286.73284593
0.25000001 126261.39688363 5704.49018107
0.25100001 124389.01962962 6582.66723022
0.25200001 122548.53196707 6045.93211063
0.25300001 120735.93924813 7360.06320477
0.25400001 118953.21632041 5914.94896138
0.25500001 117197.18459059 7200.59536192
0.25600001 115470.34851639 4451.38214591
0.25700001 113769.90347362 5283.47456729
0.25800001 112096.43803666 5661.43087091
0.25900001 110450.04645024 5599.81761998
0.26000001 108828.73572278 5964.90328720
0.26100001 107232.20013876 5057.07079783
0.26200001 105662.00705906 5002.03965086
0.26300001 104114.48270415 5359.81382322
0.26400001 102592.08046012 4485.83893038
0.26500001 101092.92946684 4033.60807659
0.26600001 99616.40628524  5186.52843867
0.26700001 98162.83118048  5524.60440026
0.26800001 96731.62814539  5074.05779448
0.26900001 95321.46671411  6562.88329383
0.27000001 93933.24291108  5345.74110704
0.27100001 92565.62204406  4909.68082556
0.27200001 91219.23029504  5603.14148603
0.27300001 89892.87558987  4064.05709775
0.27400001 88584.89654288  4384.95258639
0.27500001 87298.52498003  3614.15910521
0.27600001 86028.88528337  5361.75052904
0.27700001 84779.90581219  5302.98335952
0.27800001 83548.28620838  3846.14553763
0.27900001 82335.18149022  3803.88556488
0.28000001 81139.37791750  4104.02992930
0.28100001 79961.21828839  4397.06760179
0.28200001 78800.58079849  3679.59329454
0.28300001 77656.51564327  3308.16772298
0.28400001 76528.35577435  3271.58736420
0.28500001 75417.18906683  4206.01683333
0.28600001 74321.67077087  3519.50288594
0.28700001 73242.49977188  5062.52182385
0.28800001 72177.27285615  4380.43889698
0.28900001 71128.79455993  3403.51298079
0.29000001 70094.63274744  3365.59395068
0.29100001 69075.65685809  3025.51391360
0.29200001 68070.84023889  3290.88492712
0.29300001 67080.50171266  3254.07529212
0.29400001 66103.50440736  2925.08020849
0.29500001 65141.66648660  3470.74815470
0.29600001 64192.11244889  2859.75874497
0.29700001 63256.70929605  4806.87756695
0.29800001 62334.62433131  3354.84964032
0.29900001 61425.91325307  3040.58284997
0.30000001 60529.21717421  3279.47314175
0.30100001 59646.19327397  2972.16995154
0.30200001 58774.81750106  2938.44714007
0.30300001 57916.62761384  3697.39768191
0.30400001 57070.43251490  3394.26413451
0.30500001 56236.85659531  3613.78057590
0.30600001 55413.99676685  3572.54054069
0.30700001 54603.94156564  2774.97244174
0.30800001 53805.16924006  3491.41759728
0.30900001 53018.30872905  2465.35147262
0.31000001 52242.82210698  3655.69165001
0.31100001 51478.21884818  2891.01690739
0.31200001 50725.74649522  2857.88869285
0.31300001 49983.50967770  3531.33512592
0.31400001 49253.68781493  2559.96054539
0.31500001 48533.41735546  2760.58090988
0.31600002 47825.13817208  2956.31105608
0.31700002 47126.75828921  2697.53577220
0.31800002 46438.91028432  2444.31215855
0.31900002 45762.33529013  2855.56985731
0.32000002 45096.27487371  2388.52431178
0.32100002 44440.18743544  3219.69173215
0.32200002 43795.39946100  3819.39696784
0.32300002 43159.20700292  2307.29131563
0.32400002 42534.41518433  2280.90812226
0.32500002 41919.49811596  2254.84991043
0.32600002 41314.78082945  3242.38415303
0.32700002 40720.02596288  2003.42537224
0.32800002 40136.20477079  2574.93833900
0.32900002 39560.19675221  2349.87579836
0.33000002 38995.54272850  2516.96742460
0.33100002 38439.60037133  2680.00906480
0.33200002 37894.88829331  2082.13473588
0.33300002 37359.02884570  2433.19366394
0.33400002 36833.44149302  2035.96857494
0.33500002 36317.00437025  2379.49023902
0.33600002 35809.72234476  2715.27232538
0.33700002 35312.06841209  1969.35414860
0.33800002 34824.59395806  2124.99682395
0.33900002 34345.77644750  1751.63468178
0.34000002 33876.36420827  1906.05372245
0.34100002 33416.36259744  3257.09301662
0.34200002 32966.48801862  1865.73847777
0.34300002 32525.03732157  2013.95040633
0.34400002 32093.50056565  2159.09035281
0.34500002 31670.57501760  2136.81379764
0.34600002 31257.42326336  1952.33874949
0.34700002 30852.23526475  2254.68145993
0.34800002 30457.00172538  1753.86652742
0.34900002 30070.31068776  1578.69138588
0.35000002 29692.92231295  1719.66567720
0.35100002 29325.08341107  1858.03737293
0.35200002 28964.43673244  1840.40039715
0.35300002 28613.95994802  1671.34147972
0.35400002 28271.77751952  1806.56666906
0.35500002 27938.64177308  1641.11589548
0.35600002 27613.56397197  1774.44770488
0.35700002 27297.19340164  1612.44529061
0.35800002 26989.71083985  1598.73559732
0.35900002 26691.34321276  2017.86564246
0.36000002 26401.00222405  1715.53720578
0.36100002 26118.53063245  1701.88353662
0.36200002 25845.97818959  1829.50765281
0.36300002 25580.30283314  1815.68998110
0.36400002 25323.52916850  1525.10961641
0.36500002 25074.08803250  1514.22424801
0.36600002 24833.77370226  1503.80923777
0.36700002 24600.88874645  2036.95368469
0.36800002 24376.95036452  1484.19069325
0.36900002 24160.69563673  1877.28613990
0.37000002 23951.74085043  1866.08021805
0.37100002 23750.54296771  1987.92054056
0.37200002 23557.89239769  1713.48338471
0.37300002 23372.58331760  1704.56258210
0.37400002 23194.64165307  1957.04798218
0.37500002 23024.60110111  1947.88134543
0.37600002 22862.15899935  1680.71169845
0.37700002 22706.81201238  1931.21445314
0.37800002 22558.90041751  1538.96825939
0.37900002 22418.98481474  1789.03507297
0.38000002 22285.39877674  1400.97166047
0.38100002 22158.27346174  1269.66912951
0.38200002 22039.41961257  1646.01413174
0.38300002 21926.61110637  2273.35114721
0.38400002 21821.13026273  1512.20439885
0.38500002 21721.75797160  1634.99679998
0.38600002 21630.04515090  1757.87385269
0.38700002 21543.91236307  1504.62691072
0.38800002 21464.36741930  1502.93507790
0.38900002 21391.22766447  1251.38687766
0.39000002 21324.87165193  1876.05567246
0.39100002 21263.91547952  1500.38194732
0.39200002 21209.56367786  1625.39498946
0.39300002 21160.74288298  1375.65996000
0.39400002 21118.87489359  2752.84547280
0.39500002 21081.65274558  1377.47525566
0.39600002 21050.30366190  1378.90020670
0.39700002 21023.85130531  1380.63638063
0.39800002 21004.08185222  1885.64153762
0.39900002 20988.63098297  1888.97687796
0.40000002 20978.80065106  1640.43739463
0.40100002 20973.68749653  1897.07012394
0.40200002 20974.10713406  1775.03877086
0.40300002 20979.03732842  1398.46269457
0.40400002 20988.78200840  1402.57542417
0.40500002 21002.82534714  2046.51539879
0.40600002 21022.34372949  1283.41414549
0.40700002 21045.68370424  1674.39467484
0.40800002 21073.15848627  1680.68983471
0.40900002 21104.43530776  1427.71511622
0.41000002 21140.62246747  1433.65138056
0.41100002 21180.33177681  1701.62793558
0.41200002 21223.12689129  1314.77277321
0.41300002 21270.91635479  2245.57074598
0.41400002 21321.52622846  1592.71808473
0.41500002 21375.58093085  1600.60357594
0.41600002 21432.12623410  1742.75342730
0.41700002 21493.32159779  1347.63132804
0.41800002 21557.81903983  1896.87258720
0.41900002 21623.49752656  1362.28040872
0.42000002 21692.65622821  1780.85869744
0.42100002 21765.23124439  1791.06096397
0.42200002 21840.14245749  1801.48423597
0.42300002 21917.04863032  2090.88653841
0.42400002 21996.34757329  1542.49394667
0.42500002 22078.34158723  1692.96731313
0.42600002 22161.21175875  1561.36824845
0.42700002 22247.30795519  1571.10496224
0.42800002 22334.50831863  1580.94824625
0.42900002 22424.45344842  1735.65277916
0.43000002 22515.64482034  1746.76380794
0.43100002 22607.01165546  1757.92130963
0.43200002 22701.05859009  1769.32059036
0.43300002 22795.60078821  1483.99368164
0.43400002 22891.83146119  1643.06128099
0.43500002 22988.52386077  1954.48439126
0.43600002 23086.84845719  1664.67728689
0.43700002 23185.34102143  1675.60467502
0.43800002 23284.00427576  1533.25175422
0.43900002 23384.42968173  1852.04691856
0.44000002 23484.50778566  1553.50026364
0.44100002 23585.31025249  2032.81798700
0.44200002 23686.24526727  2046.13639438
0.44300002 23787.47714744  1901.09526372
0.44400002 23888.44756939  1594.55395082
0.44500002 23988.97584649  2246.80758426
0.44600002 24089.22571039  1615.18266043
0.44700002 24190.16681231  1788.13721551
0.44800002 24289.72196292  1635.91285173
0.44900002 24389.31547446  1975.53464706
0.45000002 24488.70831713  2153.65955502
0.45100002 24586.44521633  3000.52991640
0.45200002 24683.93858903  2012.72844794
0.45300002 24780.25722442  1856.28915666
0.45400002 24875.73926972  1867.54621418
0.45500002 24970.51688815  1878.78177971
0.45600002 25063.71341707  2061.74116340
0.45700002 25156.03396327  1728.21961518
0.45800002 25246.66981728  2085.87995916
0.45900002 25335.95396577  2097.81708779
0.46000002 25424.29030681  2285.51668545
0.46100002 25510.23264452  2298.21696787
0.46200002 25595.25760491  2133.10886989
0.46300002 25678.36109781  2502.09962396
0.46400002 25759.27508376  2156.05142670
0.46500002 25839.49850716  1986.79913438
0.46600002 25916.62344024  2360.09742544
0.46700002 25992.07078630  2007.10780125
0.46800002 26066.08148427  2750.62337900
0.46900002 26137.34621679  3132.56109255
0.47000002 26206.58962465  1851.49564474
0.47100002 26273.90493655  1860.19255767
0.47200002 26339.05495369  2803.13405631
0.47300002 26401.78377872  2440.31699033
0.47400002 26461.62723716  2073.93013301
0.47500002 26519.53248312  1893.49470904
0.47600002 26575.66596560  2662.08458595
0.47700002 26628.19933419  2291.09037931
