# SAXS profile: number of points = 501, q_min = 0, q_max = 0.5, delta_q = 0.001
#    q    intensity    error
0.00000000 1646666.22097350 271.69992646
0.00100000 1646585.60183996 740.96353842
0.00200000 1646343.67323859 889.02561170
0.00300000 1645940.68046209 1580.10310953
0.00400000 1645376.47239664 1480.83888143
0.00500000 1644651.54842631 2072.26103304
0.00600000 1643765.80680066 2416.33583437
0.00700000 1642719.85646313 2365.51669162
0.00800000 1641513.45722417 3102.46056514
0.00900000 1640147.87523651 3444.31068523
0.01000000 1638622.42906670 2703.72712471
0.01100000 1636938.44651734 3830.43613163
0.01200000 1635095.82295794 3826.12439347
0.01300000 1633095.71155114 4115.40137462
0.01400000 1630938.06275941 4403.53296466
0.01500000 1628624.46861937 4299.56878861
0.01600000 1626154.11277063 5805.37044211
0.01700000 1623529.33468108 4383.52940028
0.01800000 1620750.05662636 5081.05165616
0.01900000 1617816.90186075 6309.48620196
0.02000000 1614731.12746342 6103.68393792
0.02100000 1611494.69384694 5849.72600388
0.02200000 1608106.06542046 6657.55941331
0.02300000 1604568.60094129 5776.44722632
0.02400000 1600881.57159732 6603.63678395
0.02500000 1597047.69837242 7474.18356973
0.02600000 1593066.94539935 7742.30570876
0.02700000 1588941.47692958 7340.90995964
0.02800000 1584670.97104906 10339.97856028
0.02900000 1580258.00995755 10666.74205697
0.03000000 1575703.90973197 8059.72586875
0.03100000 1571009.09289684 9049.01279146
0.03200000 1566174.72552923 10078.33482297
0.03300000 1561204.92676812 10350.78914165
0.03400000 1556097.65866624 12254.26962741
0.03500000 1550856.10058124 11724.47266181
0.03600000 1545481.43793458 9435.16461462
0.03700000 1539975.69064916 10533.43421119
0.03800000 1534340.02874812 12566.24541701
0.03900000 1528576.63760564 11922.89832547
0.04000000 1522685.43804503 14046.77381688
0.04100000 1516670.26763800 12421.53006790
0.04200000 1510531.97891971 11691.51805924
0.04300000 1504271.43357645 13899.46869143
0.04400000 1497892.20876853 12132.92745450
0.04500000 1491395.63061657 12348.75639529
0.04600000 1484781.45666577 14654.79365855
0.04700000 1478054.23396653 10641.99097950
0.04800000 1471214.16437529 12976.10953354
0.04900000 1464264.90351110 13178.38474502
0.05000000 1457206.22983714 14491.91663056
0.05100000 1450042.52664157 12441.36545815
0.05200000 1442772.26494922 11470.04004086
0.05300000 1435401.29529998 16277.45144752
0.05400000 1427929.44326025 23560.83691253
0.05500000 1420359.35556696 20282.73254367
0.05600000 1412692.16009620 18117.77779868
0.05700000 1404932.76456668 13445.20718451
0.05800000 1397080.36310519 13600.57796987
0.05900000 1389137.00929880 12502.23366762
0.06000000 1381106.89235244 22746.83157975
0.06100000 1372991.21317840 21706.99209475
0.06200000 1364792.23687991 18056.20213793
0.06300000 1356513.03232558 15627.03086304
0.06400000 1348152.12787520 19716.72579226
0.06500000 1339715.58522641 15915.82189700
0.06600000 1331205.04577795 14716.47246964
0.06700000 1322620.92555321 13490.73407200
0.06800000 1313967.13741209 14959.51655968
0.06900000 1305246.16056061 17816.61092581
0.07000000 1296458.50507212 23472.38233351
0.07100000 1287607.24930492 18078.00662697
0.07200000 1278695.03200275 22402.73801018
0.07300000 1269724.14915556 15503.33258761
0.07400000 1260697.18085130 17019.41273909
0.07500000 1251615.40141811 22829.46599194
0.07600000 1242480.11358227 15785.71058311
0.07700000 1233296.70859942 17315.48660063
0.07800000 1224065.04912619 15955.68866362
0.07900000 1214787.57110226 23323.92245914
0.08000000 1205468.03378287 14646.43729754
0.08100000 1196107.38414242 16183.33366674
0.08200000 1186707.40519975 16251.95867684
0.08300000 1177271.92375183 19283.71501608
0.08400000 1167801.87853827 14889.47465025
0.08500000 1158300.08212325 20918.90046519
0.08600000 1148768.21818599 17989.71114144
0.08700000 1139210.11943268 21052.60399570
0.08800000 1129625.16022246 16588.54625693
0.08900000 1120019.08741215 19656.33590734
0.09000000 1110390.85883444 21219.57030913
0.09100000 1100743.76533118 21266.37054532
0.09200000 1091079.99826688 18264.68002919
0.09300000 1081404.32226602 18297.36199257
0.09400000 1071712.96606054 16799.10153251
0.09500000 1062012.30731421 19880.87132738
0.09600000 1052303.02607795 21435.41364884
0.09700000 1042589.89794186 24521.71555243
0.09800000 1032872.28075646 21473.41572656
0.09900000 1023153.38991228 21486.22219849
0.10000000 1013433.60371696 19959.57576385
0.10100000 1003715.56594589 16892.53376936
0.10200000 994002.21559554 26107.46942062
0.10300000 984294.50718934 21496.99304825
0.10400000 974595.44076402 26094.79415409
0.10500000 964907.83325555 16876.23879766
0.10600001 955229.08162648 18397.71297780
0.10700001 945566.10540841 18381.80595414
0.10800001 935917.93064256 16832.48477477
0.10900001 926288.28389289 16812.13314393
0.11000001 916676.86786267 16788.93762515
0.11100001 907086.67372821 15239.05683599
0.11200001 897519.25651939 22819.42817128
0.11300001 887975.94597922 15184.38939114
0.11400001 878459.60490516 22730.14334716
0.11500001 868971.18035277 19656.12902515
0.11600001 859512.24932396 24135.10509757
0.11700001 850085.19344986 18055.81035921
0.11800001 840689.34091757 16506.93598637
0.11900001 831327.67063198 20949.45828668
0.12000001 822001.08682473 17903.18451437
0.12100001 812714.21340427 14872.67080592
0.12200001 803464.94183436 19271.10753778
0.12300001 794256.38416872 16250.48638572
0.12400001 785088.79082828 19136.54017810
0.12500001 775963.46587330 20531.99427449
0.12600001 766884.35329511 16070.06238058
0.12700001 757849.92300016 21826.07881099
0.12800001 748862.26666131 14490.48554282
0.12900001 739923.31919789 17314.20648529
0.13000001 731034.10835440 18674.26717812
0.13100001 722194.68337696 15729.40094540
0.13200001 713407.16741868 18502.21575920
0.13300001 704672.95442197 14163.92705161
0.13400001 695992.27497620 15503.22865600
0.13500001 687367.29450736 19631.21085671
0.13600001 678798.04454594 20923.95070971
0.13700001 670286.47879930 18037.40999501
0.13800001 661831.30353087 13799.18332933
0.13900001 653436.47839250 23327.68337870
0.14000001 645100.49063192 21830.20163251
0.14100001 636826.73705242 17633.73318064
0.14200001 628613.71411102 13483.76480365
0.14300001 620463.93046668 14742.22368324
0.14400001 612374.74284012 14651.06641354
0.14500001 604351.92050749 15882.36922014
0.14600001 596393.19506768 14465.51762877
0.14700001 588500.72933690 16984.13184992
0.14800001 580671.81552051 14275.81725809
0.14900001 572910.79682369 16757.64159773
0.15000001 565216.50671059 21763.66261776
0.15100001 557589.60334288 12713.04355608
0.15200001 550032.10092652 12623.23731192
0.15300001 542543.07103549 17545.84374526
0.15400001 535121.50610619 16174.04828533
0.15500001 527771.10576242 14819.81334920
0.15600001 520488.95178497 17160.52155024
0.15700001 513279.75046803 12164.73066023
0.15800001 506138.29404682 16899.95843588
0.15900001 499069.84015624 14373.21207492
0.16000001 492070.18392305 13071.84505294
0.16100001 485144.49095226 16504.61636128
0.16200001 478289.88685693 15202.44477139
0.16300001 471506.68126255 12758.97139729
0.16400001 464795.92978042 14954.80974670
0.16500001 458156.62085438 12548.91043765
0.16600001 451589.99146443 12443.56280230
0.16700001 445095.17208883 13459.67863946
0.16800001 438673.08729667 14456.47227444
0.16900001 432324.24235514 14331.54931078
0.17000001 426046.32743716 12020.89769626
0.17100001 419841.78911436 14081.49427184
0.17200001 413709.42232600 11809.33601797
0.17300001 407648.99144881 11703.60309719
0.17400001 401661.91023266 13706.71333400
0.17500001 395745.73447396 11492.45667188
0.17600001 389900.12504736 11387.03368981
0.17700001 384129.42698248 12307.50742181
0.17800001 378428.39402412 11176.88314541
0.17900001 372798.61367431 14091.78826249
0.18000001 367240.95822472 13958.82948147
0.18100001 361754.74195580 11851.08590628
0.18200001 356337.31885930 10759.60585122
0.18300001 350990.61073490 9687.34131391
0.18400001 345714.36004715 11512.28873342
0.18500001 340507.97530359 10450.19025576
0.18600001 335371.16695750 9407.16167758
0.18700001 330302.72273892 12108.89838769
0.18800001 325301.79076938 9222.30620403
0.18900001 320372.22551278 13695.91328777
0.19000001 315506.41703656 11751.03705775
0.19100001 310710.83408948 13422.70866689
0.19200001 305980.56274411 11515.57902300
0.19300001 301318.59861036 13152.55745083
0.19400001 296720.91827528 10414.90472361
0.19500001 292189.47328381 9449.40801253
0.19600001 287722.20552207 11052.84904745
0.19700001 283321.08148581 10097.56382134
0.19800001 278982.68905072 9993.16039406
0.19900001 274708.28938098 8241.24907091
0.20000001 270495.12237334 8155.42832499
0.20100001 266346.19710135 8877.31916895
0.20200001 262257.65878096 7985.74608731
0.20300001 258230.85956192 10272.42407890
0.20400001 254265.33027691 8600.52520313
0.20500001 250358.63812510 10056.90696884
0.20600001 246511.06840799 9950.41974662
0.20700001 242723.00781520 9087.54984216
0.20800001 238992.30277386 9740.13175997
0.20900001 235321.66827021 9636.42277119
0.21000001 231704.87955918 9533.49772013
0.21100001 228145.87483181 13059.07049272
0.21200001 224641.28168296 7895.01821798
0.21300001 221191.80542866 7810.28301892
0.21400001 217796.98621107 9131.13907859
0.21500001 214456.80448302 6948.40079375
0.21600001 211167.94987852 8935.57222157
0.21700001 207932.12686923 8159.25704411
0.21800001 204747.96664690 7398.56812459
0.21900001 201614.19876348 8649.24953590
0.22000001 198530.15760557 7239.40253938
0.22100001 195497.18185553 7161.06210997
0.22200001 192512.54861625 8371.40857242
0.22300001 189575.73671404 6369.74505479
0.22400001 186686.15132560 7560.78948621
0.22500001 183845.52301358 7478.83622985
0.22600001 181049.08961769 6164.72179300
0.22700001 178299.27253610 6707.61895001
0.22800001 175593.88832841 8444.31048904
0.22900001 172932.02060677 7159.38599169
0.23000001 170314.36928160 8261.95044457
0.23100001 167740.72479709 6421.11524890
0.23200001 165207.38726748 7506.19799549
0.23300001 162716.83383440 5711.36113770
0.23400001 160266.26247275 7909.14042710
0.23500001 157855.71469728 6705.71107750
0.23600001 155485.12275753 8291.24456320
0.23700001 153153.78426745 6014.34939265
0.23800001 150860.16756368 5949.17098926
0.23900001 148604.39474201 5349.75846375
0.24000001 146385.02800875 5821.00091410
0.24100001 144203.17557390 7851.86328140
0.24200001 142057.06766690 5695.77839753
0.24300001 139945.35441923 5634.20023543
0.24400001 137868.51227631 7600.00209874
0.24500001 135824.77271602 8019.09496049
0.24600001 133814.95770949 5949.41330120
0.24700001 131838.14898149 7847.00699859
0.24800001 129893.25630062 7277.27002851
0.24900001 127978.78778603 7198.80715352
0.25000001 126096.55885240 6646.54993155
0.25100001 124243.78540996 6105.33990388
0.25200001 122422.70504440 5575.13025148
0.25300001 120629.43896883 5055.58002637
0.25400001 118865.97710005 4546.62383918
0.25500001 117129.06122133 4497.75616370
0.25600001 115421.15485364 9343.92003326
0.25700001 113739.47368980 5282.06140807
0.25800001 112084.70866646 4789.94025149
0.25900001 110456.73443102 4738.59413130
0.26000001 108853.75813382 4687.78731584
0.26100001 107275.37975687 5902.29167350
0.26200001 105723.22503353 5004.93770991
0.26300001 104193.53614458 7839.52203047
0.26400001 102688.84283690 4490.06986551
0.26500001 101207.01640519 4845.79217478
0.26600001 99747.78663413  4394.38894811
0.26700001 98311.26494544  4742.53564539
0.26800001 96897.01387747  5473.71257296
0.26900001 95503.57161219  4641.47379999
0.27000001 94131.78710492  3826.45732689
0.27100001 92780.50660995  5678.16727324
0.27200001 91450.23442419  4493.86473227
0.27300001 90139.60830124  4445.68569181
0.27400001 88847.33082599  4764.43834102
0.27500001 87576.33290930  3988.22638943
0.27600001 86321.81566874  3945.33877186
0.27700001 85087.81536886  3902.97827568
0.27800001 83870.84818354  3860.99467886
0.27900001 82672.24490557  5208.35167555
0.28000001 81490.68135499  4121.79885801
0.28100001 80326.49306837  4756.93514465
0.28200001 79179.52726567  3697.28820066
0.28300001 78049.00310668  3657.37645868
0.28400001 76934.07837560  3946.71840747
0.28500001 75835.80995478  4229.36332136
0.28600001 74753.00581074  4505.36387346
0.28700001 73686.26100365  4138.22061384
0.28800001 72633.16062061  3463.51242813
0.28900001 71596.65586433  4048.79108077
0.29000001 70574.09191729  3080.55925801
0.29100001 69566.53427264  3351.71577991
0.29200001 68572.78166141  3315.15128634
0.29300001 67593.28928868  3577.03703848
0.29400001 66626.82376792  3243.06080042
0.29500001 65675.30848931  3499.18060195
0.29600001 64735.71017921  3460.77123001
0.29700001 63810.00709377  4278.46117817
0.29800001 62897.29068559  3385.13234495
0.29900001 61997.72524659  3626.86709862
0.30000001 61109.88317897  2759.11135615
0.30100001 60235.52283466  3547.27010766
0.30200001 59372.38117218  4047.71227803
0.30300001 58522.25295836  3202.33783348
0.30400001 57683.77209072  2902.93596790
0.30500001 56857.64241316  2870.74250135
0.30600001 56041.92970255  3613.02337897
0.30700001 55238.76968273  3317.64066421
0.30800001 54446.59694517  2775.95987667
0.30900001 53665.96568957  2994.56102725
0.31000001 52896.47576450  2467.62071124
0.31100001 52137.61936792  2684.04477214
0.31200001 51390.57869117  2895.34534054
0.31300001 50653.46108056  2624.35594284
0.31400001 49928.57725911  2830.95046463
0.31500001 49212.81576752  2799.22509339
0.31600002 48508.93469773  2767.91994491
0.31700002 47814.54560567  2280.75393338
0.31800002 47130.46732492  2255.19296828
0.31900002 46457.31544338  2898.93662093
0.32000002 45794.43877343  2646.00279762
0.32100002 45141.30497283  2834.42267345
0.32200002 44499.12284059  3233.97390557
0.32300002 43865.30158094  2558.22450933
0.32400002 43242.59075065  2108.07639891
0.32500002 42629.49979396  2918.41569409
0.32600002 42026.39830151  2473.67392116
0.32700002 41432.93361264  2038.50043027
0.32800002 40850.12493723  2217.54913723
0.32900002 40274.92237297  2392.33050224
0.33000002 39710.76122069  3154.62302076
0.33100002 39155.09698260  1949.92392207
0.33200002 38610.37178619  1928.58816205
0.33300002 38074.23836766  2289.02331906
0.33400002 37548.23129678  2264.15845442
0.33500002 37031.02252299  2799.54543531
0.33600002 36522.74725629  2400.09244961
0.33700002 36023.87919581  2191.69291407
0.33800002 35534.97099137  2891.12537677
0.33900002 35054.42426087  1966.55329417
0.34000002 34583.11455040  2122.71167163
0.34100002 34120.97769923  1925.44686275
0.34200002 33668.68994616  2771.60668763
0.34300002 33224.67948371  1885.83289681
0.34400002 32790.30845671  2036.27825160
0.34500002 32364.39620507  1847.68346685
0.34600002 31948.03974304  1662.89554738
0.34700002 31539.45235476  2634.17518543
0.34800002 31140.47098662  2282.28522670
0.34900002 30749.94095121  2098.68356932
0.35000002 30368.53000273  1758.79349841
0.35100002 29996.41947413  3326.00314882
0.35200002 29631.41826446  2510.37387426
0.35300002 29276.37567324  2176.40587063
0.35400002 28929.35107158  2002.63442278
0.35500002 28591.28136777  1526.77449735
0.35600002 28261.06113962  1664.71788528
0.35700002 27939.41048958  1500.34641435
0.35800002 27626.49940409  1487.68706337
0.35900002 27322.43310880  1918.03489509
0.36000002 27026.30658580  2487.90677060
0.36100002 26737.94558194  2758.55397635
0.36200002 26459.26924361  1584.77800641
0.36300002 26187.40204312  1858.78188507
0.36400002 25924.26574743  1703.22434028
0.36500002 25668.32410148  1550.11016591
0.36600002 25421.34699425  1399.44521832
0.36700002 25181.77855551  1390.03424211
0.36800002 24950.94996112  1657.24217492
0.36900002 24727.63593055  1921.33740282
0.37000002 24511.65141904  1909.70285252
0.37100002 24303.25159218  1627.34580370
0.37200002 24103.23400918  1483.43360737
0.37300002 23910.49587663  1475.51677044
0.37400002 23725.07105382  1467.98884100
0.37500002 23547.39763594  1460.88061854
0.37600002 23377.29129043  1454.18447361
0.37700002 23214.15535760  1974.36400669
0.37800002 23058.38456000  1441.95614677
0.37900002 22910.55058872  1697.67187905
0.38000002 22768.98012379  1821.74618601
0.38100002 22633.78476422  1815.68229980
0.38200002 22506.84186243  1422.31993888
0.38300002 22385.80137247  1289.42222014
0.38400002 22272.10599323  1286.21418204
0.38500002 22164.43202945  1411.65274283
0.38600002 22064.39372922  1408.92192833
0.38700002 21969.89141644  1534.37728922
0.38800002 21881.93622332  1404.49214303
0.38900002 21800.36878925  1785.45028843
0.39000002 21725.58629835  1401.62626644
0.39100002 21656.12440797  1910.07026327
0.39200002 21593.27616020  1527.50842794
0.39300002 21535.91224045  1909.15871057
0.39400002 21485.55425096  1273.01914968
0.39500002 21439.81188035  1910.28732904
0.39600002 21399.86247537  1529.23424494
0.39700002 21364.94017226  1403.03568759
0.39800002 21336.63285216  1787.79655139
0.39900002 21312.57108272  1406.62975810
0.40000002 21294.28633499  2177.44735235
0.40100002 21280.70339595  1796.51706580
0.40200002 21272.59630520  1285.92850758
0.40300002 21269.12967900  1288.90931962
0.40400002 21270.41508667  1938.26666661
0.40500002 21276.05323894  2073.13872583
0.40600002 21287.25429076  1689.46301683
0.40700002 21302.19628670  1434.06392197
0.40800002 21321.40331771  1831.29541773
0.40900002 21344.50096528  1706.49293303
0.41000002 21372.47159735  1844.65811097
0.41100002 21404.02135134  1851.87601506
0.41200002 21438.67936567  2257.81462438
0.41300002 21478.49578680  1467.19611672
0.41400002 21521.11511558  1473.65842737
0.41500002 21567.31285578  1480.38042457
0.41600002 21616.00058290  2028.12135079
0.41700002 21669.35830282  2717.33765993
0.41800002 21726.15682205  1638.58682516
0.41900002 21784.26947233  1509.64994597
0.42000002 21845.90929078  1379.56923708
0.42100002 21910.96380790  1664.35688971
0.42200002 21978.45621520  1952.34635811
0.42300002 22048.04863213  1402.25595945
0.42400002 22120.08016176  1410.15517713
0.42500002 22194.96984842  2269.21382483
0.42600002 22270.75913516  1711.73062824
0.42700002 22349.96887990  1865.32849111
0.42800002 22430.31942111  1732.06934778
0.42900002 22513.40778133  1742.53784485
0.43000002 22597.96810240  1753.15044846
0.43100002 22682.77982496  2057.78188323
0.43200002 22770.34892635  2070.50792599
0.43300002 22858.49667665  2380.94112667
0.43400002 22948.53735562  1796.87056010
0.43500002 23039.03159521  2109.45383282
0.43600002 23131.32178663  1819.50985796
0.43700002 23223.93948527  1830.97547579
0.43800002 23316.76048749  1535.40875086
0.43900002 23411.43875439  2008.70154032
0.44000002 23505.97163559  1710.41210712
0.44100002 23601.29387608  1721.24244395
0.44200002 23696.81124984  1889.58381861
0.44300002 23792.81347410  1743.06159772
0.44400002 23888.69743535  2710.77006994
0.44500002 23984.18991162  1604.54238113
0.44600002 24079.58691413  1775.99001702
0.44700002 24175.72371790  1787.06958192
0.44800002 24270.65320940  2615.40571379
0.44900002 24365.67647477  1809.15156399
0.45000002 24460.70524052  2316.67350312
0.45100002 24554.08833519  1664.76726802
0.45200002 24647.46033507  2177.23351188
0.45300002 24739.70506577  2190.20619327
0.45400002 24831.25776566  2542.10013424
0.45500002 24922.28112464  1704.68410972
0.45600002 25011.74007983  2571.83229560
0.45700002 25100.55132732  2759.05273266
0.45800002 25187.73281673  2774.68077859
0.45900002 25273.71185372  2441.44068078
0.46000002 25358.87043367  2279.63576568
0.46100002 25441.74160109  1939.42405417
0.46200002 25523.81509791  1949.89194682
0.46300002 25604.10826796  1960.25062190
0.46400002 25682.27999500  1970.47302601
0.46500002 25759.88451327  2520.86241795
0.46600002 25834.66091066  2714.57712385
0.46700002 25907.69512960  2182.46434116
0.46800002 25979.48703075  2193.18839908
0.46900002 26048.61416351  1836.42738557
0.47000002 26115.89684104  2029.59701920
0.47100002 26181.29501149  3336.54439441
0.47200002 26244.67931397  2048.26609414
0.47300002 26305.75090660  2618.47456935
0.47400002 26364.03195966  2066.28110277
0.47500002 26420.49489808  2075.06576765
0.47600002 26475.36528904  2273.17497146
0.47700002 26526.61911493  2282.35041683
