# SAXS profile: number of points = 501, q_min = 0, q_max = 0.5, delta_q = 0.001
#    q    intensity    error
0.00000000 1664650.74656090 349.57665678
0.00100000 1664569.59935049 649.18215916
0.00200000 1664326.09379539 1048.52547229
0.00300000 1663920.45760669 1397.69323418
0.00400000 1663352.56103990 1497.01736182
0.00500000 1662622.90102956 1645.99673717
0.00600000 1661731.37448360 2093.78161709
0.00700000 1660678.57972148 2590.65869203
0.00800000 1659464.27623512 2464.30455425
0.00900000 1658089.75614879 3730.70211081
0.01000000 1656554.32546539 3826.64065706
0.01100000 1654859.31200131 3872.37095868
0.01200000 1653004.62844494 3223.35916679
0.01300000 1650991.39210569 3813.79028397
0.01400000 1648819.59390266 5193.78195104
0.01500000 1646490.78965975 5137.05149249
0.01600000 1644004.22925806 5030.65316642
0.01700000 1641362.18686720 4431.67810334
0.01800000 1638564.61344976 6070.88216601
0.01900000 1635612.21808335 4906.83687566
0.02000000 1632506.08289289 5142.39439373
0.02100000 1629248.32012090 5376.51970016
0.02200000 1625837.30943873 7852.79456136
0.02300000 1622276.46330672 5840.19553374
0.02400000 1618565.06306149 7283.54311589
0.02500000 1614705.88164330 6297.35322601
0.02600000 1610698.73295084 7175.66318350
0.02700000 1606545.90855690 7422.24243748
0.02800000 1602247.02401047 9757.68482371
0.02900000 1597804.71669651 7190.12155526
0.03000000 1593220.36772764 9631.01756561
0.03100000 1588494.28259873 7624.77290731
0.03200000 1583627.68186608 9406.74886354
0.03300000 1578624.74320479 8856.08521765
0.03400000 1573483.18600189 11565.10195073
0.03500000 1568206.56950547 9315.14745302
0.03600000 1562795.93720438 9540.86963755
0.03700000 1557253.11086127 12426.88039939
0.03800000 1551579.57296295 10892.08910628
0.03900000 1545777.37528045 13911.99702179
0.04000000 1539846.35605155 11364.06663426
0.04100000 1533790.49419489 14494.32084219
0.04200000 1527610.68960247 11823.70728606
0.04300000 1521307.68194897 12048.75740031
0.04400000 1514885.21539633 14315.66595034
0.04500000 1508344.29108338 11448.33370127
0.04600000 1501684.99024666 11645.56764073
0.04700000 1494911.85737339 17221.38539787
0.04800000 1488024.94336903 14218.07899543
0.04900000 1481028.05513994 16661.56639588
0.05000000 1473920.94586241 12403.04533699
0.05100000 1466707.92935964 17160.48357291
0.05200000 1459387.35082225 16242.98197160
0.05300000 1451965.37953667 12937.01213477
0.05400000 1444441.80632253 15491.63909524
0.05500000 1436819.12207934 19310.84990158
0.05600000 1429098.61676708 14662.55249225
0.05700000 1421285.08752914 17311.25317417
0.05800000 1413377.64544951 18762.58911941
0.05900000 1405378.75460935 17707.77313513
0.06000000 1397292.15165728 15342.26854197
0.06100000 1389119.32693119 15502.57241301
0.06200000 1380862.49817413 22183.55707010
0.06300000 1372524.48581483 17129.10638385
0.06400000 1364104.15483891 13300.01613168
0.06500000 1355607.76348410 16104.62098353
0.06600000 1347036.27484601 13537.71519561
0.06700000 1338390.94011355 19112.22351925
0.06800000 1329674.96171094 19266.99109706
0.06900000 1320891.25808280 18030.16651698
0.07000000 1312040.11767724 16767.87348913
0.07100000 1303124.81565676 28147.49733655
0.07200000 1294147.84740289 15588.01155222
0.07300000 1285111.79150345 17117.68986489
0.07400000 1276018.87454775 18661.77691483
0.07500000 1266870.59838727 15886.55804842
0.07600000 1257668.11834151 15978.67419262
0.07700000 1248417.09601590 20449.07299157
0.07800000 1239117.12791772 17620.24638531
0.07900000 1229770.91559680 16232.97684726
0.08000000 1220381.96498841 17793.16988423
0.08100000 1210951.55356403 17873.64576920
0.08200000 1201481.23599881 17950.13050814
0.08300000 1191974.64491165 16520.76935383
0.08400000 1182433.28362350 19598.83259600
0.08500000 1172859.49137601 15129.88814903
0.08600000 1163255.37454645 19734.62835575
0.08700000 1153624.33637776 25887.33132393
0.08800000 1143966.07594541 22907.92174665
0.08900000 1134286.10334070 15312.86311434
0.09000000 1124583.89959225 21490.79933075
0.09100000 1114862.34070263 20000.63133186
0.09200000 1105123.59378997 16958.12234351
0.09300000 1095372.29839554 20078.17517311
0.09400000 1085605.33166379 18563.85204390
0.09500000 1075828.44437276 20139.50942527
0.09600000 1066042.67679199 18613.10601175
0.09700000 1056252.73026499 18632.29903783
0.09800000 1046457.99335385 21755.86270474
0.09900000 1036661.44804693 20214.89918747
0.10000000 1026863.90031592 18668.38658566
0.10100000 1017067.75446693 17117.25111273
0.10200000 1007275.93262349 28012.34500386
0.10300000 997489.55644491 15560.83781253
0.10400000 987711.48878202 15556.45668017
0.10500000 977944.78772362 18659.18742767
0.10600001 968186.30692143 18647.26914873
0.10700001 958443.88207821 20184.82910642
0.10800001 948715.65946229 17062.65193843
0.10900001 939005.90428937 17042.95796499
0.11000001 929314.21828141 27851.54843285
0.11100001 919643.57866672 20085.01670355
0.11200001 909995.46431844 16966.86623097
0.11300001 900371.31660822 15396.35023887
0.11400001 890773.92613061 18439.02113909
0.11500001 881204.55142150 24532.73586677
0.11600001 871664.19857185 21416.79036746
0.11700001 862155.88252305 19838.20779113
0.11800001 852678.48520782 27396.56102006
0.11900001 843235.16378660 21249.52712831
0.12000001 833826.96215686 15133.96007603
0.12100001 824458.41384650 15087.58968414
0.12200001 815127.28320997 16543.00899211
0.12300001 805837.04315512 16487.42667975
0.12400001 796587.42357263 17923.21787488
0.12500001 787380.24271403 22322.23093278
0.12600001 778219.12595967 16307.58255295
0.12700001 769102.96922787 17720.13324610
0.12800001 760033.38568659 26471.96407107
0.12900001 751012.53058242 16109.21954025
0.13000001 742041.35605961 20413.55866739
0.13100001 733119.96755871 20322.08645866
0.13200001 724250.91563138 18783.44838236
0.13300001 715434.93658389 18694.31577424
0.13400001 706672.38061912 14310.11638220
0.13500001 697965.81136283 21357.75483468
0.13600001 689315.34131071 15581.97402503
0.13700001 680722.11360781 16909.13809934
0.13800001 672185.53259147 15416.57591697
0.13900001 663709.69325230 15331.69463714
0.14000001 655292.73499417 16631.33039850
0.14100001 646937.97051445 22047.64707496
0.14200001 638644.23620102 16438.70341515
0.14300001 630413.92465963 14978.63555642
0.14400001 622244.11240643 14887.19109155
0.14500001 614141.23741727 14794.66310728
0.14600001 606102.27298832 14701.01132484
0.14700001 598129.91900407 19917.72724248
0.14800001 590221.55538443 15829.74286224
0.14900001 582380.91083753 14413.92822329
0.15000001 574607.31660353 16919.31323569
0.15100001 566901.48486934 15510.42535788
0.15200001 559265.25663988 14118.65207009
0.15300001 551697.76616881 19116.32849983
0.15400001 544197.92444803 13917.86257456
0.15500001 536769.57290950 12560.40859885
0.15600001 529409.55012057 13714.35504312
0.15700001 522122.86911537 13611.74384027
0.15800001 514904.12116537 13508.51025636
0.15900001 507758.76944464 14623.45325024
0.16000001 500682.60292132 13300.63397443
0.16100001 493680.46376885 16795.01017021
0.16200001 486749.83663972 15471.34428793
0.16300001 479891.00978213 14166.38327753
0.16400001 473105.11716696 12880.28742294
0.16500001 466390.87092796 12774.44655782
0.16600001 459749.66203324 16123.42140874
0.16700001 453180.53413372 13704.17999924
0.16800001 446684.30655025 13588.13724684
0.16900001 440261.96306759 14594.68476482
0.17000001 433910.98876004 12242.79912597
0.17100001 427633.65228209 13239.53849984
0.17200001 421428.69602754 20778.54283886
0.17300001 415296.38752927 14091.00709431
0.17400001 409237.47911201 18262.22336783
0.17500001 403250.06743871 12774.96273979
0.17600001 397333.74212980 13713.97475731
0.17700001 391492.62467564 11498.13892979
0.17800001 385721.46371122 12427.94614777
0.17900001 380021.97261450 13338.77186881
0.18000001 374395.27880394 15247.24844949
0.18100001 368840.39472999 13090.14622730
0.18200001 363354.53647922 10971.49074726
0.18300001 357939.98569707 13830.80170069
0.18400001 352596.17722551 9784.54438024
0.18500001 347322.78538213 9690.30616995
0.18600001 342119.47654683 11515.74212461
0.18700001 336984.86641967 12353.86578660
0.18800001 331918.19479201 15055.81002709
0.18900001 326923.54931949 15839.44671290
0.19000001 321993.04934489 12915.14181945
0.19100001 317133.27403815 11873.47034101
0.19200001 312339.01512535 10850.65789816
0.19300001 307613.90221654 9846.72147523
0.19400001 302953.40465802 9747.52625548
0.19500001 298359.71525282 8771.77604294
0.19600001 293830.38260644 10419.22585960
0.19700001 289367.84584061 9453.64797037
0.19800001 284968.67591328 17012.63075602
0.19900001 280633.76309918 9260.91461994
0.20000001 276360.78186323 8332.27796697
0.20100001 272152.40266973 12369.32728594
0.20200001 268004.98466273 9792.90260242
0.20300001 263919.76355380 9691.13417574
0.20400001 259896.10022587 8790.98600565
0.20500001 255932.04431685 8699.13059751
0.20600001 252027.57489373 9390.54788441
0.20700001 248182.99546405 7743.30982450
0.20800001 244396.40929042 9194.19335212
0.20900001 240670.34095891 9855.45092815
0.21000001 236998.58965520 9001.20686061
0.21100001 233385.21982747 9648.14544377
0.21200001 229826.70802792 9545.85276921
0.21300001 226323.83131495 7991.49486153
0.21400001 222876.03184098 7906.52760335
0.21500001 219483.51954288 9244.64628021
0.21600001 216142.71884227 8442.53499713
0.21700001 212855.55214728 9048.48994959
0.21800001 209620.60004297 8263.24444438
0.21900001 206436.30791150 8856.11802813
0.22000001 203302.33249464 9435.26169720
0.22100001 200219.98709762 9334.25623985
0.22200001 197186.50842188 7255.47792045
0.22300001 194201.34210216 6525.16540318
0.22400001 191263.77480134 7100.66797526
0.22500001 188375.85835103 6385.94190007
0.22600001 185532.55368176 8212.59887708
0.22700001 182736.36444424 11249.25112715
0.22800001 179985.02527016 6800.73450144
0.22900001 177277.80017055 7339.30127414
0.23000001 174615.31776885 9075.63157024
0.23100001 171997.14092744 8379.70110228
0.23200001 169419.99300773 7105.47484279
0.23300001 166886.02156121 7615.00952399
0.23400001 164392.44525521 6953.80076318
0.23500001 161939.41663200 8598.98342986
0.23600001 159526.95089320 9641.01173322
0.23700001 157153.99280355 5610.39780845
0.23800001 154819.31067186 5550.27255011
0.23900001 152522.92222619 5490.82545986
0.24000001 150263.47847291 5432.02500373
0.24100001 148042.05447798 5373.92683174
0.24200001 145856.75620995 6911.42271993
0.24300001 143706.37173427 6311.58414512
0.24400001 141591.22093848 5723.82537720
0.24500001 139509.71228225 5147.90862673
0.24600001 137462.47313148 7130.17881862
0.24700001 135448.83550157 6550.30599472
0.24800001 133467.50544189 5982.01387689
0.24900001 131516.98302536 5918.26451612
0.25000001 129599.18919005 7319.11455576
0.25100001 127711.29868636 4827.48731873
0.25200001 125855.56179617 4776.21879613
0.25300001 124027.90867851 6143.10260748
0.25400001 122230.57159071 5142.85154299
0.25500001 120460.15872993 6013.37140830
0.25600001 118719.32355258 4576.63013948
0.25700001 117005.02982078 5433.71384196
0.25800001 115317.97275994 4928.11379907
0.25900001 113658.33775828 4875.94292053
0.26000001 112023.91644381 5701.45749717
0.26100001 110414.53798264 5207.14985764
0.26200001 108831.67389259 4293.40973821
0.26300001 107271.91212315 4247.96792108
0.26400001 105737.28832061 4623.36315059
0.26500001 104226.02552923 5406.20420002
0.26600001 102737.72324754 5760.50441507
0.26700001 101272.48547455 5699.61575221
0.26800001 99829.90516704  6042.20529616
0.26900001 98408.42001030  4782.64943882
0.27000001 97008.98051601  5520.78134242
0.27100001 95630.45401775  4682.06725028
0.27200001 94273.19536327  5018.63379266
0.27300001 92936.09520086  5347.54317093
0.27400001 91617.48268909  4535.06560773
0.27500001 90320.56754515  5608.90751000
0.27600001 89040.52417227  3699.63395445
0.27700001 87781.23974066  4392.57344451
0.27800001 86539.35158939  5432.50805313
0.27900001 85316.16709336  5016.59086251
0.28000001 84110.19604816  3545.24493122
0.28100001 82921.94643050  3858.35835002
0.28200001 81751.32763528  4164.41282684
0.28300001 80597.40014229  6866.89881713
0.28400001 79459.33493174  3736.57540202
0.28500001 78338.24627726  5041.06638654
0.28600001 77232.84744882  3657.36166405
0.28700001 76143.89357387  5592.00780875
0.28800001 75068.74036717  4555.92206853
0.28900001 74010.60326128  3541.40753368
0.29000001 72966.48879528  3503.48612534
0.29100001 71937.72289320  4096.13413543
0.29200001 70922.97901774  4052.18459799
0.29300001 69922.79268807  3391.95483386
0.29400001 68935.88638772  4880.66098728
0.29500001 67964.07612324  3922.88665953
0.29600001 67004.53451227  4477.57823074
0.29700001 66059.06141972  4429.26027786
0.29800001 65126.81172082  3213.03140835
0.29900001 64207.95345244  4911.90867164
0.30000001 63300.90990247  2858.03621740
0.30100001 62407.75698653  4523.31444052
0.30200001 61525.88425266  4474.16251466
0.30300001 60657.23604887  3595.76112320
0.30400001 59800.56882893  2735.87615344
0.30500001 58956.22532625  2976.69995765
0.30600001 58122.68831849  3479.51490092
0.30700001 57301.73390907  3441.54230151
0.30800001 56492.07076919  3403.92988535
0.30900001 55694.12046506  3625.68741393
0.31000001 54907.44556737  3073.71894839
0.31100001 54131.53069029  3546.69805875
0.31200001 53367.64377272  2756.17209314
0.31300001 52613.79561220  3221.54285786
0.31400001 51872.33245233  2696.06460686
0.31500001 51140.04970792  3878.46155348
0.31600002 50419.96289877  2876.96321922
0.31700002 49709.44441096  2845.36873281
0.31800002 49009.42072529  2814.12107129
0.31900002 48320.52686182  3479.07809878
0.32000002 47641.92610441  3211.54239076
0.32100002 46973.11358497  2495.68164294
0.32200002 46315.57694455  3590.38369475
0.32300002 45666.39994948  2441.32585690
0.32400002 45028.54645477  3073.19844106
0.32500002 44400.26392222  2605.40761033
0.32600002 43782.06458807  2577.01244368
0.32700002 43173.73066316  3398.63623874
0.32800002 42576.09736936  2311.24355514
0.32900002 41986.21305594  2286.14940915
0.33000002 41407.41981305  2878.22988750
0.33100002 40837.26513340  2440.43507994
0.33200002 40278.11303041  2816.64857760
0.33300002 39727.58539122  2189.38733459
0.33400002 39187.24479216  2559.90688727
0.33500002 38655.85076872  2337.90596521
0.33600002 38133.50516491  2505.94341058
0.33700002 37620.59011076  2288.83681073
0.33800002 37117.67058271  1887.43363851
0.33900002 36623.21529054  2241.34088193
0.34000002 36138.01931046  2402.99770785
0.34100002 35662.15282705  2561.25593734
0.34200002 35196.18541566  2716.26573809
0.34300002 34738.35870039  1971.74933321
0.34400002 34290.40324623  2129.43414244
0.34500002 33850.87261718  2459.60452085
0.34600002 33421.08189103  2261.43761326
0.34700002 32998.94356085  2239.30841609
0.34800002 32586.61723561  2047.09139169
0.34900002 32182.54716182  2027.50056722
0.35000002 31787.85887200  1673.63084888
0.35100002 31402.39543664  2321.26518062
0.35200002 31024.12833253  1971.27320761
0.35300002 30655.82373738  1790.60674931
0.35400002 30295.47715492  2581.17477585
0.35500002 29944.17008759  2078.72438594
0.35600002 29600.82805055  2060.66174234
0.35700002 29266.06436638  1728.74650400
0.35800002 28940.01953538  1714.26213837
0.35900002 28622.82790008  1854.75933578
0.36000002 28313.67672848  1533.18566747
0.36100002 28012.18176926  1977.38000475
0.36200002 27720.58079337  1811.26283483
0.36300002 27435.66058576  2396.77942230
0.36400002 27159.43881548  2230.46901837
0.36500002 26890.55959059  2066.80850803
0.36600002 26630.62085580  1905.82047182
0.36700002 26378.08773794  1601.67756332
0.36800002 26134.22510201  1446.52942792
0.36900002 25898.08766755  1581.07832700
0.37000002 25669.04842083  1714.17913474
0.37100002 25447.74739183  1845.97968325
0.37200002 25234.81389339  1553.07669464
0.37300002 25029.13033137  2246.61484497
0.37400002 24830.84347576  1676.08201401
0.37500002 24640.18247492  1806.61826464
0.37600002 24457.23611221  1521.36244443
0.37700002 24281.25793741  1789.77160735
0.37800002 24112.55139309  1507.87847280
0.37900002 23951.82962337  1774.83065917
0.38000002 23797.34853228  1496.02038635
0.38100002 23649.33743293  2439.19277838
0.38200002 23509.45808745  1620.74211733
0.38300002 23375.66578366  1615.72609551
0.38400002 23249.05897157  1611.15986306
0.38500002 23128.53406253  1473.05640423
0.38600002 23015.67488851  1736.87798775
0.38700002 22908.33551666  1599.91822828
0.38800002 22807.52676101  2129.31079928
0.38900002 22713.07551381  1860.20097271
0.39000002 22625.50249675  1326.98578430
0.39100002 22543.14934465  1723.19841754
0.39200002 22467.56060225  1721.80158833
0.39300002 22397.31673099  1456.04962966
0.39400002 22334.22878885  1455.63343028
0.39500002 22275.62258866  1720.12365779
0.39600002 22222.89400116  2117.39744075
0.39700002 22175.18031183  1323.85832734
0.39800002 22134.14684468  1457.20162656
0.39900002 22097.29653653  1591.00542601
0.40000002 22066.22125833  1725.46825305
0.40100002 22039.89158593  2126.40884096
0.40200002 22019.08254874  1730.36968408
0.40300002 22002.86316899  1600.04828546
0.40400002 21991.51719155  1736.78015249
0.40500002 21984.42812881  2543.81829931
0.40600002 21982.91763730  2013.08577802
0.40700002 21985.26498811  1749.14776533
0.40800002 21991.82103006  1349.19828412
0.40900002 22002.36533996  1488.46008577
0.41000002 22017.72148288  1628.87111248
0.41100002 22036.72655230  2042.80464819
0.41200002 22058.80756366  1503.19751265
0.41300002 22086.07883656  1783.00922896
0.41400002 22116.23801834  1789.75664644
0.41500002 22149.96905684  2073.23720196
0.41600002 22186.11890256  1387.74180311
0.41700002 22227.04880929  1532.99962902
0.41800002 22271.51738484  1679.71792076
0.41900002 22317.21428515  1546.58302324
0.42000002 22366.55780987  1836.18265041
0.42100002 22419.38130352  1561.06159413
0.42200002 22474.53728628  1568.61040422
0.42300002 22531.94153879  1719.63785973
0.42400002 22591.78067492  2448.38434666
0.42500002 22654.59387563  1881.91720242
0.42600002 22718.30559551  1891.63980505
0.42700002 22785.43460376  1755.38996506
0.42800002 22853.76822189  2205.96008215
0.42900002 22924.88573948  1774.38624032
0.43000002 22997.54643977  2081.50802690
0.43100002 23070.48501853  1943.45775006
0.43200002 23146.26426069  2255.02490246
0.43300002 23222.64151035  1662.97343736
0.43400002 23301.00090048  1520.39038080
0.43500002 23379.84795547  1834.85055450
0.43600002 23460.57207679  2306.76085876
0.43700002 23541.58897434  2010.68720958
0.43800002 23623.00254156  2488.91966573
0.43900002 23706.23768822  2503.37881851
0.44000002 23789.42469940  2517.87282951
0.44100002 23873.50666026  1741.09492324
0.44200002 23957.72730475  2069.58837130
0.44300002 24042.57068263  1761.35881168
0.44400002 24127.38355185  2254.70409977
0.44500002 24211.88574426  2267.68532628
0.44600002 24296.29438440  1629.06661568
0.44700002 24381.64920917  1966.13628541
0.44800002 24465.71473068  1977.31915824
0.44900002 24550.08919742  2485.69664904
0.45000002 24634.44782642  1666.52047444
0.45100002 24717.37339499  2346.17319384
0.45200002 24800.28915799  3033.32351067
0.45300002 24882.08166675  2372.25777854
0.45400002 24963.36392316  2044.49960220
0.45500002 25044.15616672  1884.32239929
0.45600002 25123.52770537  2583.32685874
0.45700002 25202.33153137  2423.96036157
0.45800002 25279.59923818  2262.65063705
0.45900002 25355.67294180  2274.40397067
0.46000002 25431.00077293  2286.11992283
0.46100002 25504.20850386  1767.44173308
0.46200002 25576.71206185  2486.82383164
0.46300002 25647.62573371  2320.59728637
0.46400002 25716.41206625  1973.09180930
0.46500002 25784.71940870  2162.82236651
0.46600002 25850.35358250  1810.81735428
0.46700002 25914.24354902  2910.68797338
0.46800002 25977.11193318  1827.48991112
0.46900002 26037.36483689  2019.19773880
0.47000002 26095.89670645  2028.04270866
0.47100002 26152.67030052  2407.09188855
0.47200002 26207.52103823  2231.30844695
0.47300002 26260.17821503  2427.22838746
0.47400002 26310.10709187  1874.59521915
0.47500002 26358.40803299  2070.18946503
0.47600002 26405.15251606  3022.86200332
0.47700002 26448.43492948  1896.35287433
