# SAXS profile: number of points = 501, q_min = 0, q_max = 0.5, delta_q = 0.001
#    q    intensity    error
0.00000000 1682732.95097188 353.37391970
0.00100000 1682651.35258351 555.27495954
0.00200000 1682406.49642411 832.79124210
0.00300000 1681998.61073023 1412.87888334
0.00400000 1681427.54696199 1765.49899140
0.00500000 1680693.83413269 2117.67431483
0.00600000 1679797.35106723 1940.16601947
0.00700000 1678738.71051939 2820.28115088
0.00800000 1677517.63777999 2717.57868794
0.00900000 1676135.47050203 3268.46430720
0.01000000 1674591.47733144 3315.69126829
0.01100000 1672887.03175266 3613.43614591
0.01200000 1671022.01021566 3584.34236906
0.01300000 1668997.53705528 4205.87397888
0.01400000 1666813.63261652 5250.46317550
0.01500000 1664471.79806398 4793.67899188
0.01600000 1661971.29204828 5085.63238101
0.01700000 1659314.52109464 4480.14940793
0.01800000 1656501.24397414 5193.13163354
0.01900000 1653532.29026373 6944.83593248
0.02000000 1650408.77577498 6758.42424252
0.02100000 1647132.68250542 5979.09190858
0.02200000 1643702.50116043 6804.92866397
0.02300000 1640121.54697931 6494.88162167
0.02400000 1636389.24491188 6750.10594305
0.02500000 1632508.29491675 8276.81743324
0.02600000 1628478.51109593 7254.87209876
0.02700000 1624302.14234701 8186.48317238
0.02800000 1619978.87452704 8456.29011283
0.02900000 1615511.36788336 11631.68238282
0.03000000 1610900.94280794 8988.82767404
0.03100000 1606147.89816020 8480.46129250
0.03200000 1601253.62348444 10304.06754171
0.03300000 1596222.05274572 10582.95269758
0.03400000 1591051.05150830 13364.82944933
0.03500000 1585744.06433385 11131.92384567
0.03600000 1580302.47198726 13156.01868728
0.03700000 1574727.64703256 11668.73240416
0.03800000 1569021.36670123 10096.65296199
0.03900000 1563185.64275608 13130.76000724
0.04000000 1557220.25323589 11492.28600142
0.04100000 1551129.26938344 11726.53782026
0.04200000 1544913.45736899 10961.16148855
0.04300000 1538573.77384913 10154.58737876
0.04400000 1532113.66795093 13444.29806065
0.04500000 1525534.39776638 12631.42540042
0.04600000 1518836.03138008 12849.35342280
0.04700000 1512023.00986378 16329.84926600
0.04800000 1505095.39363545 14381.18715532
0.04900000 1498057.18101808 12358.97231868
0.05000000 1490907.88611981 12545.99044592
0.05100000 1483651.97028910 12729.73449808
0.05200000 1476287.66411357 15257.43371963
0.05300000 1468821.28767939 14276.94358180
0.05400000 1461252.55404189 16877.46778625
0.05500000 1453583.98253865 18315.15903438
0.05600000 1445816.94140040 16070.25605357
0.05700000 1437956.13773865 15012.26277874
0.05800000 1430000.53373715 13921.05584594
0.05900000 1421952.98197982 12797.57743554
0.06000000 1413817.03636182 14230.06913579
0.06100000 1405594.09301274 14379.22824348
0.06200000 1397286.42704374 18486.10029389
0.06300000 1388896.88251226 22666.79818239
0.06400000 1380424.47188698 20188.70884551
0.06500000 1371875.28219541 19014.19230067
0.06600000 1363250.23479929 13700.66550077
0.06700000 1354550.91215843 15198.06194567
0.06800000 1345780.15488626 19500.35535710
0.06900000 1336941.00491128 16845.45745057
0.07000000 1328033.93820507 18386.63073547
0.07100000 1319061.92305892 15670.45637991
0.07200000 1310027.71050663 15779.28451226
0.07300000 1300933.86019496 18772.47648221
0.07400000 1291782.46229596 24705.34074920
0.07500000 1282575.17290323 16083.49342208
0.07600000 1273313.04663063 25001.50284268
0.07700000 1264001.86374411 16267.70474916
0.07800000 1254641.14577106 20814.49758446
0.07900000 1245233.57010265 14942.80354211
0.08000000 1235782.76367444 19519.18966790
0.08100000 1226289.99555209 19608.37794887
0.08200000 1216756.84219481 18178.34807541
0.08300000 1207186.68732574 16731.60827158
0.08400000 1197581.32185782 15269.16257040
0.08500000 1187942.99286823 19921.80492563
0.08600000 1178273.71354406 16914.11995207
0.08700000 1168577.46451286 18510.26790708
0.08800000 1158853.25779915 18564.83006182
0.08900000 1149106.65979910 18615.52876311
0.09000000 1139337.65534701 21772.74361647
0.09100000 1129548.71087774 20264.10482518
0.09200000 1119742.21965779 24992.64751708
0.09300000 1109922.38430121 21909.86889570
0.09400000 1100086.69701662 18811.48340308
0.09500000 1090240.71285687 15699.46700306
0.09600000 1080385.48545600 15719.60955233
0.09700000 1070525.64022443 15736.72765113
0.09800000 1060660.51685971 17325.89035753
0.09900000 1050793.25935120 18914.27955772
0.10000000 1040924.57421292 15770.00804094
0.10100000 1031056.92018028 20507.72310690
0.10200000 1021193.12281033 18932.92138744
0.10300000 1011334.41421111 23665.22640577
0.10400000 1001483.88156830 17350.70906444
0.10500000 991644.24494494 17343.85866010
0.10600001 981812.46466721 17333.89987932
0.10700001 971996.60296578 17320.98027993
0.10800001 962194.59995347 18878.25893953
0.10900001 952410.48126176 17286.25104849
0.11000001 942644.32794535 21973.04031867
0.11100001 932899.09139146 17239.97602046
0.11200001 923175.74353234 15647.82958953
0.11300001 913476.50088489 23430.67335083
0.11400001 903803.38707747 20267.79190951
0.11500001 894158.34148642 21781.69822427
0.11600001 884541.93240532 27942.68096055
0.11700001 874957.38498274 17035.42108790
0.11800001 865403.50406792 20081.68925771
0.11900001 855883.38957038 16946.49191170
0.12000001 846398.12103668 16898.33928249
0.12100001 836952.69716866 19911.10560362
0.12200001 827544.04170961 15268.18828885
0.12300001 818176.64685230 18261.70361813
0.12400001 808849.19573770 15165.92313466
0.12500001 799564.32468061 15111.76644854
0.12600001 790325.18596274 19572.40415269
0.12700001 781130.89008810 16497.48517613
0.12800001 771983.12058879 17925.44890488
0.12900001 762883.84334129 16363.85921093
0.13000001 753834.22701355 20737.98056262
0.13100001 744834.02090406 16222.48573998
0.13200001 735886.49693979 16149.02993661
0.13300001 726991.82477179 20457.55091351
0.13400001 718150.24730838 20359.56047106
0.13500001 709364.86599747 17365.25273836
0.13600001 700635.31230361 15837.86198139
0.13700001 691963.05381659 20053.09024517
0.13800001 683347.22647288 19946.90648135
0.13900001 674792.47959554 19838.89983568
0.14000001 666296.28100459 15501.38370863
0.14100001 657862.26976265 18216.20710886
0.14200001 649489.28929414 18111.00968618
0.14300001 641179.94502364 15234.43621233
0.14400001 632930.76450903 17896.11821065
0.14500001 624748.83900494 13682.00021962
0.14600001 616630.57830569 16316.04587167
0.14700001 608579.20110291 17563.59657242
0.14800001 600591.79115254 21477.16346488
0.14900001 592671.99450741 16002.14460669
0.15000001 584819.28507951 18544.62040486
0.15100001 577034.77884746 19734.59036776
0.15200001 569319.56452136 13065.88462231
0.15300001 561673.33608670 14272.12014345
0.15400001 554094.59213062 16747.50983748
0.15500001 546587.61427262 21743.25632189
0.15600001 539149.01516361 15236.35188760
0.15700001 531784.02055791 16384.26644667
0.15800001 524486.90874216 13759.91470030
0.15900001 517263.29512514 13655.75163586
0.16000001 510109.11534707 18478.70357569
0.16100001 503028.99508743 14668.32618916
0.16200001 496020.45385724 15766.01087010
0.16300001 489083.96727898 13234.61277935
0.16400001 482220.64299692 15515.44992090
0.16500001 475429.01361896 14205.81959761
0.16600001 468710.94314686 18785.93548827
0.16700001 462064.58800626 12808.43098428
0.16800001 455491.52956484 11546.71081966
0.16900001 448992.76021877 13739.17911143
0.17000001 442565.45798880 12486.98498679
0.17100001 436212.02247180 16881.40606682
0.17200001 429930.84541814 13388.04715854
0.17300001 423722.98603224 15482.83864079
0.17400001 417588.47893236 14250.20751655
0.17500001 411525.73967267 14123.56405259
0.17600001 405534.37064405 15073.71326876
0.17700001 399618.42675370 12803.77499792
0.17800001 393772.77041567 12687.35926204
0.17900001 387998.76056350 14666.35384204
0.18000001 382298.28184363 13493.21849502
0.18100001 376669.59016340 11311.38832692
0.18200001 371110.04954657 13243.06274364
0.18300001 365622.48917850 10091.18117803
0.18400001 360205.50422640 10995.27353594
0.18500001 354859.62481903 13860.81760025
0.18600001 349583.94811129 14708.74531167
0.18700001 344377.24083445 10682.58251538
0.18800001 339238.67852507 9617.41699057
0.18900001 334172.60968479 13333.48775640
0.19000001 329171.00278266 10373.82464285
0.19100001 324240.42710143 11205.74969010
0.19200001 319375.67381663 12019.70405204
0.19300001 314580.45286592 12816.00825535
0.19400001 309850.13788780 9969.42865763
0.19500001 305187.03888986 10766.99924083
0.19600001 300588.53486171 12435.34827488
0.19700001 296057.38500024 10551.48570005
0.19800001 291589.71568868 8703.95342465
0.19900001 287186.72609400 11200.28284699
0.20000001 282846.11248232 9380.59176381
0.20100001 278570.41948054 12661.02616378
0.20200001 274355.94242521 11695.79437837
0.20300001 270204.20660342 11575.54875800
0.20400001 266114.22604784 8183.01283775
0.20500001 262084.37124172 9718.08894499
0.20600001 258114.55270383 8014.45724028
0.20700001 254204.84623246 8724.31073509
0.20800001 250353.65610349 12557.73998376
0.20900001 246563.30646605 10873.44232915
0.21000001 242827.72785738 8454.04774500
0.21100001 239150.87837310 8365.49812096
0.21200001 235529.32194383 8277.67841104
0.21300001 231963.82854300 8190.64317307
0.21400001 228453.86875384 7367.63761563
0.21500001 224999.41434753 8747.97764341
0.21600001 221597.28094004 7212.99183562
0.21700001 218249.18509606 9277.77329708
0.21800001 214953.70637371 8473.47550588
0.21900001 211709.10726920 7685.04095723
0.22000001 208515.50963298 12442.12104809
0.22100001 205373.85540763 10258.42456267
0.22200001 202281.66577614 8119.58644818
0.22300001 199238.11615197 6694.40101925
0.22400001 196242.43391427 9272.45544091
0.22500001 193297.03373436 6552.76975346
0.22600001 190396.63380882 8427.90739409
0.22700001 187543.84276495 6413.99972587
0.22800001 184736.18121398 6980.25693727
0.22900001 181973.32213302 8161.50388363
0.23000001 179255.41730088 8695.68070450
0.23100001 176582.46389294 7374.08404091
0.23200001 173950.93975782 6687.54419527
0.23300001 171363.04783207 6014.84326337
0.23400001 168815.77677262 7735.98333648
0.23500001 166309.79067650 7064.84024208
0.23600001 163844.78950780 8154.55555949
0.23700001 161419.44967054 6915.20955096
0.23800001 159033.15139784 6271.47262201
0.23900001 156685.52696060 7332.88300860
0.24000001 154375.30203710 6696.80091913
0.24100001 152103.58567545 8282.04063178
0.24200001 149868.27609412 7101.50859864
0.24300001 147668.60724465 5404.67128081
0.24400001 145504.35948271 5347.28546394
0.24500001 143374.33326341 6348.61577722
0.24600001 141278.99135050 5757.82556486
0.24700001 139217.90001860 5178.90612569
0.24800001 137189.42811354 5636.42792069
0.24900001 135192.02957285 5576.67148370
0.25000001 133228.00630290 6520.84507699
0.25100001 131294.34295064 6451.80431782
0.25200001 129393.42766621 8347.81738082
0.25300001 127520.79718806 5830.25112327
0.25400001 125679.11550444 6249.39431412
0.25500001 123864.58417074 6183.32033435
0.25600001 122080.27425895 6118.05323395
0.25700001 120323.07734839 5122.15364507
0.25800001 118593.30095423 4607.34996006
0.25900001 116891.51278745 6382.27690017
0.26000001 115215.28880617 5863.88240124
0.26100001 113564.92355207 4909.41187745
0.26200001 111941.04768086 5740.89690195
0.26300001 110340.94130985 6554.25222394
0.26400001 108766.34799122 5188.15504468
0.26500001 107215.65386829 5989.06670848
0.26600001 105688.28945417 4232.81619293
0.26700001 104184.44164607 5025.85770283
0.26800001 102703.69985194 4972.91338215
0.26900001 101244.44744344 5740.56044170
0.27000001 99807.73800262  4462.90321598
0.27100001 98392.38774504  4817.29153196
0.27200001 96998.66834773  4369.30522249
0.27300001 95625.62009738  5895.31975799
0.27400001 94271.33316412  5444.16974787
0.27500001 92939.29930538  4232.45589067
0.27600001 91624.63704505  5710.50577409
0.27700001 90331.09207098  3766.80671763
0.27800001 89055.28210718  5217.74922560
0.27900001 87798.57531738  4793.80243921
0.28000001 86559.49417119  4013.33113719
0.28100001 85338.59490401  4692.76955588
0.28200001 84135.75680209  5357.34456793
0.28300001 82950.02609923  3533.67127908
0.28400001 81780.47606782  3845.72706911
0.28500001 80628.43457340  3458.96000692
0.28600001 79492.47141063  4448.79637307
0.28700001 78373.27407752  3385.72560040
0.28800001 77268.21212321  3684.53486950
0.28900001 76180.77544638  3313.86388877
0.29000001 75107.54536319  3934.13341234
0.29100001 74050.06788514  4216.41106496
0.29200001 73007.09012321  5454.72499676
0.29300001 71979.02462037  4443.98519042
0.29400001 70964.62160292  3454.20312003
0.29500001 69965.57790866  4349.06052867
0.29600001 68979.32166321  3380.33181812
0.29700001 68007.32889100  3343.92051987
0.29800001 67049.11993111  5713.59102540
0.29900001 66104.55666967  3569.64622915
0.30000001 65172.18057840  3236.77650165
0.30100001 64254.08707332  2910.71028222
0.30200001 63347.55922881  3167.06137358
0.30300001 62454.68633282  3987.10736424
0.30400001 61574.06876273  3098.71515718
0.30500001 60706.17979335  2786.41378443
0.30600001 59849.34343459  3858.48735390
0.30700001 59005.46758967  3816.47382438
0.30800001 58173.28774246  3235.59841742
0.30900001 57353.11148885  3200.30377259
0.31000001 56544.62133540  2901.58738120
0.31100001 55747.04752722  3130.75433735
0.31200001 54961.85592034  3612.64296069
0.31300001 54186.99756022  3317.87001770
0.31400001 53424.88703699  3281.62384162
0.31500001 52672.19560854  3994.65950409
0.31600002 51932.11453281  2469.37216295
0.31700002 51201.91050775  2686.56437155
0.31800002 50482.43129104  2415.58445165
0.31900002 49774.32828127  3344.83501888
0.32000002 49076.98944866  3071.97430000
0.32100002 48389.57216457  3038.38138008
0.32200002 47713.71396367  2774.07546120
0.32300002 47046.60736850  2743.75827165
0.32400002 46391.11643515  2487.72373663
0.32500002 45745.34104386  2460.64201127
0.32600002 45109.83511612  3318.95627583
0.32700002 44484.67955290  2407.51097140
0.32800002 43870.39163675  2165.00392979
0.32900002 43264.14812363  2998.20560694
0.33000002 42669.10437484  2118.52113253
0.33100002 42083.08099625  2305.31128614
0.33200002 41508.27990206  2280.67254722
0.33300002 40942.43488100  2666.58091008
0.33400002 40386.75757039  2232.37813042
0.33500002 39840.55876497  2409.55710821
0.33600002 39303.53313997  2384.15243318
0.33700002 38776.12259361  2752.32931204
0.33800002 38258.95121054  2723.65486566
0.33900002 37750.47960712  3080.43928182
0.34000002 37251.54418171  2858.12486270
0.34100002 36762.15671951  2074.48860193
0.34200002 36282.72297881  2240.09542280
0.34300002 35811.71120840  2587.03814022
0.34400002 35350.77556674  2195.28326666
0.34500002 34898.56788209  2173.48291063
0.34600002 34456.21935877  1972.79093282
0.34700002 34021.65185425  2663.89546635
0.34800002 33597.18083915  2110.57500027
0.34900002 33181.17873943  2090.41435959
0.35000002 32774.68884567  1725.58744945
0.35100002 32377.56403847  3077.16383196
0.35200002 31987.86357326  2032.50894771
0.35300002 31608.28017538  2014.07970817
0.35400002 31236.78989951  2328.70279730
0.35500002 30874.46934900  2473.04511199
0.35600002 30520.42962302  2124.67980884
0.35700002 30174.97973453  2430.59473274
0.35800002 29838.54803440  2410.20883164
0.35900002 29511.08419770  2231.03807102
0.36000002 29191.78224305  1738.80859167
0.36100002 28880.29242241  2038.65993866
0.36200002 28578.86116780  1711.73097072
0.36300002 28284.22056856  2162.04592267
0.36400002 27998.39576774  1532.91224089
0.36500002 27720.11944562  1674.01809262
0.36600002 27450.86794657  2115.63849286
0.36700002 27189.12594715  1801.00778805
0.36800002 26936.25573915  1789.10619094
0.36900002 26691.11714992  1925.76419359
0.37000002 26453.24301687  2060.97226107
0.37100002 26223.25083789  2194.88619910
0.37200002 26001.79481063  1600.28053743
0.37300002 25787.61802662  2170.02815974
0.37400002 25580.98381159  1870.60952983
0.37500002 25382.05777788  1861.01256443
0.37600002 25190.91225983  1424.54615578
0.37700002 25006.94264796  1417.89371531
0.37800002 24830.20142373  1552.75671959
0.37900002 24661.67892768  2530.28837785
0.38000002 24499.38854789  1540.15413402
0.38100002 24343.71041200  1813.36307449
0.38200002 24196.22383260  2224.11700006
0.38300002 24054.99911120  1801.23841878
0.38400002 23920.99014749  1934.01214505
0.38500002 23793.10257511  1653.14484524
0.38600002 23672.99396737  1511.63910140
0.38700002 23558.43671901  1371.10108200
0.38800002 23450.46022203  1505.16786066
0.38900002 23348.98917405  1639.09911767
0.39000002 23254.46602582  1773.03684614
0.39100002 23165.14241523  2043.16565782
0.39200002 23082.82403021  1360.73254105
0.39300002 23005.80789898  1631.57197349
0.39400002 22936.00514757  1902.54171713
0.39500002 22870.60621190  1494.36548068
0.39600002 22811.29686505  1630.09535121
0.39700002 22757.03775761  1494.45474035
0.39800002 22709.55130779  1495.08338118
0.39900002 22666.25624879  2583.95333479
0.40000002 22628.77843523  1633.34530484
0.40100002 22596.02313154  1771.30233720
0.40200002 22568.88112553  1500.71782155
0.40300002 22546.44770905  2049.47219386
0.40400002 22528.84599081  1916.07844230
0.40500002 22515.65880094  1782.56479173
0.40600002 22507.90552096  1648.92923659
0.40700002 22504.18743421  1790.43323710
0.40800002 22504.63153179  1380.65920989
0.40900002 22509.12489811  1522.74237151
0.41000002 22518.51570003  2360.05314977
0.41100002 22531.57745408  1949.43217370
0.41200002 22547.68481438  1396.82914044
0.41300002 22569.07459572  2102.30939820
0.41400002 22593.29007818  2109.64856101
0.41500002 22621.08954366  1552.71165985
0.41600002 22651.37620780  1841.89674361
0.41700002 22686.51484012  1991.42236703
0.41800002 22725.22873723  1428.28069381
0.41900002 22765.10320388  2294.72251168
0.42000002 22808.65982564  1872.47701711
0.42100002 22855.84983179  2025.48550807
0.42200002 22905.19002432  1889.33468868
0.42300002 22956.94622108  2044.08658838
0.42400002 23011.08718265  1613.65256515
0.42500002 23068.19740649  2063.68103777
0.42600002 23126.31732847  1629.36476459
0.42700002 23187.71411809  1637.51644862
0.42800002 23250.39600052  1795.39566424
0.42900002 23315.94737403  1654.26654458
0.43000002 23383.06315604  1965.22963608
0.43100002 23450.36618076  1975.45894068
0.43200002 23520.50944356  1680.42287683
0.43300002 23591.36909646  1996.53766125
0.43400002 23664.08736598  1852.89812856
0.43500002 23737.47927487  1862.91746177
0.43600002 23812.59403916  2653.55654250
0.43700002 23888.05941948  1569.44557823
0.43800002 23963.95957484  1735.82949406
0.43900002 24041.66448941  1904.09991780
0.44000002 24119.30333194  2393.23798653
0.44100002 24197.86616252  1604.31860260
0.44200002 24276.60864138  1935.81686480
0.44300002 24355.87728391  1784.31165438
0.44400002 24435.23987157  2772.78897583
0.44500002 24514.25574812  1968.00454473
0.44600002 24593.11865440  2638.34989428
0.44700002 24673.10844074  2155.44285553
0.44800002 24751.58469736  1833.72123921
0.44900002 24830.55571195  2514.09388498
0.45000002 24909.42795281  1685.12288087
0.45100002 24986.95781637  1694.11582024
0.45200002 25064.40067722  1703.12610673
0.45300002 25140.70383032  1712.08201198
0.45400002 25216.61382524  1893.13737265
0.45500002 25291.99742921  2421.96178861
0.45600002 25365.90685168  2956.01609506
0.45700002 25439.24557200  2621.51438044
0.45800002 25511.13906612  2985.95141351
0.45900002 25581.76534797  1941.65608193
0.46000002 25651.68712175  2305.95852310
0.46100002 25719.48355897  2138.83235413
0.46200002 25786.57880204  2865.40477229
0.46300002 25852.13818931  2339.10157423
0.46400002 25915.56946876  1807.61105612
0.46500002 25978.52022807  2179.07838001
0.46600002 26038.81002952  2553.62622063
0.46700002 26097.32231462  2198.43853598
0.46800002 26154.89271085  1839.99678942
0.46900002 26209.76745566  2032.56756252
0.47000002 26263.00198290  2041.02929584
0.47100002 26314.47670038  1863.06503869
0.47200002 26364.02519703  2431.68597930
0.47300002 26411.45377493  2253.42534288
0.47400002 26456.13458206  2450.49958181
0.47500002 26499.13760197  2081.24236590
0.47600002 26540.59005164  2278.77516984
0.47700002 26578.71032249  3049.10979272
