# SAXS profile: number of points = 501, q_min = 0, q_max = 0.5, delta_q = 0.001
#    q    intensity    error
0.00000000 1682732.95097188 353.37391970
0.00100000 1682651.35824501 605.75450335
0.00200000 1682406.52082758 832.79125418
0.00300000 1681998.66758006 1412.87893110
0.00400000 1681427.64847616 1513.28494113
0.00500000 1680693.99276915 1966.41204937
0.00600000 1679797.58317915 1763.78753415
0.00700000 1678739.01800472 2014.48690533
0.00800000 1677518.04096169 3170.50923128
0.00900000 1676135.97158323 3268.46528431
0.01000000 1674592.11644211 3592.00024487
0.01100000 1672887.78373574 3613.43777020
0.01200000 1671022.91625130 3584.34431251
0.01300000 1668998.61339715 3504.89724272
0.01400000 1666814.84959937 6000.53372457
0.01500000 1664473.19734044 5592.63019210
0.01600000 1661972.90618773 4661.83421026
0.01700000 1659316.31173889 4480.15424267
0.01800000 1656503.29544729 5193.13806491
0.01900000 1653534.57051871 7440.90590309
0.02000000 1650411.26061637 5718.67527672
0.02100000 1647135.44054718 6522.65664029
0.02200000 1643705.53262192 6804.94121422
0.02300000 1640124.84324399 8266.22958622
0.02400000 1636392.84079984 8591.06280593
0.02500000 1632512.18138037 7003.47757797
0.02600000 1628482.68909011 7914.42623097
0.02700000 1624306.65816535 10233.13241513
0.02800000 1619983.76135956 8456.31562210
0.02900000 1615516.59721091 8723.79002548
0.03000000 1610906.54988859 7490.71580129
0.03100000 1606153.80588721 9251.44634760
0.03200000 1601259.92738796 11096.73180789
0.03300000 1596228.80128862 8954.84398805
0.03400000 1591058.14274180 10023.66676177
0.03500000 1585751.64761519 10275.67115106
0.03600000 1580310.39296418 8770.72308628
0.03700000 1574736.09282680 13463.99421635
0.03800000 1569030.26536897 15604.00671124
0.03900000 1563194.98280386 11255.00439741
0.04000000 1557230.00083130 10534.66144379
0.04100000 1551139.57162530 11726.61570521
0.04200000 1544924.22159882 11957.71402993
0.04300000 1538584.99955974 11170.12761530
0.04400000 1532125.48248019 14478.58648185
0.04500000 1525546.64867502 12631.52683795
0.04600000 1518848.87314299 16061.82758015
0.04700000 1512036.38014080 10886.66244333
0.04800000 1505109.36384820 15487.57607461
0.04900000 1498071.68977508 12359.09201593
0.05000000 1490922.95111534 13686.67332857
0.05100000 1483667.56317124 16201.65054457
0.05200000 1476303.88409706 16431.26299572
0.05300000 1468838.12033568 14277.10719523
0.05400000 1461269.98570944 15672.12132759
0.05500000 1453602.05789081 13431.28364147
0.05600000 1445835.53262054 16070.46269499
0.05700000 1437975.41164496 13761.42533181
0.05800000 1430020.47305098 18983.52266614
0.05900000 1421973.55642360 15357.31512665
0.06000000 1413838.22688641 15523.94445647
0.06100000 1405615.91295330 16993.89718175
0.06200000 1397308.98599678 14525.02758839
0.06300000 1388920.13948136 14666.99735868
0.06400000 1380448.46486986 17497.18511051
0.06500000 1371899.92484662 13581.80989131
0.06600000 1363275.56914926 16441.10413320
0.06700000 1354576.96181667 17961.69135428
0.06800000 1345806.95143665 15322.01285932
0.06900000 1336968.43039550 19653.43684697
0.07000000 1328062.11961950 18387.02090717
0.07100000 1319090.94023841 18520.03766838
0.07200000 1310057.42369531 17214.15535378
0.07300000 1300964.32778224 21661.05707252
0.07400000 1291813.65681711 26159.22777648
0.07500000 1282607.11524233 16083.89397903
0.07600000 1273345.72706032 16177.85822073
0.07700000 1264035.34050859 16268.13559513
0.07800000 1254675.33993942 17841.48417064
0.07900000 1245268.52392706 14943.22298802
0.08000000 1235818.57383083 22522.79456463
0.08100000 1226326.49488904 19608.96157329
0.08200000 1216794.20022472 15149.08850367
0.08300000 1207224.78540727 15211.03301002
0.08400000 1197620.32691310 19850.55785034
0.08500000 1187982.71005764 16857.47544709
0.08600000 1178314.39020660 18452.40421700
0.08700000 1168618.71629415 20053.49811327
0.08800000 1158895.36738959 24754.00620998
0.08900000 1149149.71862288 20167.57850910
0.09000000 1139381.31117781 21773.57787943
0.09100000 1129593.27984309 15588.38799420
0.09200000 1119787.52768642 17183.14041973
0.09300000 1109968.60548861 20345.72549470
0.09400000 1100133.66497054 17244.59600887
0.09500000 1090288.58535378 18840.18764045
0.09600000 1080434.07863462 17292.34824142
0.09700000 1070575.10460459 15737.45477755
0.09800000 1060710.79967298 17326.71172732
0.09900000 1050844.41239783 20491.46700532
0.10000000 1040976.50066315 20502.03314471
0.10100000 1031109.68155417 15775.97886975
0.10200000 1021246.67782204 22089.56668030
0.10300000 1011388.90788411 17355.43447570
0.10400000 1001539.20547945 22083.94051976
0.10500000 991700.29680947 17344.83900726
0.10600001 981869.31125300 22062.60446198
0.10700001 972054.30521836 15747.28048557
0.10800001 962253.03418250 18879.40541916
0.10900001 952469.74624803 17287.32670804
0.11000001 942704.44591578 15696.02976330
0.11100001 932959.93469826 20375.84593297
0.11200001 923237.46898841 21908.42617048
0.11300001 913538.94598418 17183.66838298
0.11400001 903866.69053112 17150.87126037
0.11500001 894222.39898371 18671.36456998
0.11600001 884606.65532070 17077.33228516
0.11700001 875022.91463426 20134.27821396
0.11800001 865469.81694986 20083.22804821
0.11900001 855950.45562508 20029.24160504
0.12000001 846465.97480200 15363.35816635
0.12100001 837021.31957309 15317.49086977
0.12200001 827613.47098821 16796.41618501
0.12300001 818246.81482260 15219.39147275
0.12400001 808920.04352580 19717.42698998
0.12500001 799635.88730527 19647.05467687
0.12600001 790397.54706050 15057.07398104
0.12700001 781203.97745026 28498.32244041
0.12800001 772056.77244665 19421.08902620
0.12900001 762958.23201552 14877.68622552
0.13000001 753909.40047991 17777.18450124
0.13100001 744909.85385921 20648.90212232
0.13200001 735962.96889600 16150.70811377
0.13300001 727068.95565439 16075.49536737
0.13400001 718228.13759589 20361.76866081
0.13500001 709443.24607977 20261.70006334
0.13600001 700714.41264433 17279.61823056
0.13700001 692042.81380813 15757.81561344
0.13800001 683427.56374368 17099.35845120
0.13900001 674873.36774359 18424.04380824
0.14000001 666377.78860540 18322.05816178
0.14100001 657944.27874281 18218.47793763
0.14200001 649571.88412259 19506.64460024
0.14300001 641263.25841479 20776.93055264
0.14400001 633014.58998228 15144.87477971
0.14500001 624833.10934620 15052.23031420
0.14600001 616715.47486279 14958.43454845
0.14700001 608664.55405323 18917.29523243
0.14800001 600677.52381170 14767.65761963
0.14900001 592758.36586555 14670.77024735
0.15000001 584906.06941415 15897.74771678
0.15100001 577121.99374063 17105.89670161
0.15200001 569407.15918767 13067.89491999
0.15300001 561761.44716742 14274.35904612
0.15400001 554183.16013136 14173.23498921
0.15500001 546676.46193289 23026.01366328
0.15600001 539238.32970707 19048.59489590
0.15700001 531873.77173650 20168.65437614
0.15800001 524576.92941243 13762.27639270
0.15900001 517353.77028824 16141.43839488
0.16000001 510199.78285453 16017.72293879
0.16100001 503120.02522441 14670.98062808
0.16200001 496111.82304925 13342.92811078
0.16300001 489175.56402562 12033.71944312
0.16400001 482312.41436497 14324.67938290
0.16500001 475521.14792985 16576.66799944
0.16600001 468803.28185025 12917.87504128
0.16700001 462157.13036247 15140.26830552
0.16800001 455584.24761903 15013.77958918
0.16900001 449085.74597853 19467.86800740
0.17000001 442658.51711295 18166.70640014
0.17100001 436305.18931601 13508.00929909
0.17200001 430024.23526782 17854.60709147
0.17300001 423816.41222015 13273.93065759
0.17400001 417681.96325944 16446.22808003
0.17500001 411619.29988862 11953.42503330
0.17600001 405627.99585169 15077.19331789
0.17700001 399712.01546090 17075.69810699
0.17800001 393866.36036532 10575.31227530
0.17900001 388092.32912287 12574.19205751
0.18000001 382391.91923962 14534.71753685
0.18100001 376763.17728820 11314.19874841
0.18200001 371203.59283503 13246.40083605
0.18300001 365715.88457827 13121.88655854
0.18400001 360298.88741371 10998.12405786
0.18500001 354952.73859283 15845.09099934
0.18600001 349676.93316056 11770.12612625
0.18700001 344470.11658896 12628.27507077
0.18800001 339331.35305962 15392.07090200
0.18900001 334264.98272827 10479.20770365
0.19000001 329263.22692281 10376.73108676
0.19100001 324332.40622763 10274.85111478
0.19200001 319467.39408512 14797.73039324
0.19300001 314671.90869208 11904.03886832
0.19400001 309941.20795445 12692.09306549
0.19500001 305277.71895305 11667.71496974
0.19600001 300678.92996230 8885.06280026
0.19700001 296147.38508165 16711.59772991
0.19800001 291679.37961105 8706.62989285
0.19900001 287275.92993318 9480.10613582
0.20000001 282934.86460493 9383.53522810
0.20100001 278658.71718363 9287.69548269
0.20200001 274443.84239830 10863.86001480
0.20300001 270291.58598529 8270.92292207
0.20400001 266201.06119927 9004.25132066
0.20500001 262170.61301843 8911.17955770
0.20600001 258200.26457787 10422.25417232
0.20700001 254290.01065486 10314.00331969
0.20800001 250438.21088816 10206.60976722
0.20900001 246647.23354616 11654.08233596
0.21000001 242911.03713995 9225.76162670
0.21100001 239233.61886964 17497.54771129
0.21200001 235611.22617028 8280.55693521
0.21300001 232045.00320039 9683.23844133
0.21400001 228534.32460160 9581.30201189
0.21500001 225079.18268423 8021.82245012
0.21600001 221676.26623945 7937.11908796
0.21700001 218327.46967390 7853.23945547
0.21800001 215031.08397806 7770.14858692
0.21900001 211785.70305821 6988.92853137
0.22000001 208591.12092931 6914.79598576
0.22100001 205448.70158579 6841.44208629
0.22200001 202355.67994309 8122.55737699
0.22300001 199311.14863537 6696.85491081
0.22400001 196314.55591433 9275.86320557
0.22500001 193368.15027473 9832.77090643
0.22600001 190466.76441702 7133.93299859
0.22700001 187613.15079997 8982.91808510
0.22800001 184804.37833056 8887.24297419
0.22900001 182040.45695261 10048.63369899
0.23000001 179321.55414785 8077.53978859
0.23100001 176647.55615278 7376.80229381
0.23200001 174014.96207919 7298.18785476
0.23300001 171425.98972234 9025.57878574
0.23400001 168877.62042949 6548.23004185
0.23500001 166370.50471294 7067.41937447
0.23600001 163904.36416651 7574.84054822
0.23700001 161477.84908218 7494.18733036
0.23800001 159090.36732589 5703.38993840
0.23900001 156741.63176580 6771.23881256
0.24000001 154430.17656523 7815.71160565
0.24100001 152157.14083260 7180.29581553
0.24200001 149920.72821884 7103.99404268
0.24300001 147719.66789811 6487.84812098
0.24400001 145554.19924722 6953.85219798
0.24500001 143422.89323342 6350.76601279
0.24600001 141326.27984155 6806.98059057
0.24700001 139263.81974413 6216.73720747
0.24800001 137234.02995840 6150.82951371
0.24900001 135235.25494497 5578.45453038
0.25000001 133269.90928399 5519.37355411
0.25100001 131334.85821123 5460.90366277
0.25200001 129432.55574454 9332.73487349
0.25300001 127558.57784810 5831.97845513
0.25400001 125715.45324394 5770.33957690
0.25500001 123899.57457632 5233.51827771
0.25600001 122113.88388887 6119.73758063
0.25700001 120355.12488742 6986.61533027
0.25800001 118623.93084349 4608.53993132
0.25900001 116920.69320278 5927.87942586
0.26000001 115242.99596823 4511.76350563
0.26100001 113591.11180661 4910.54399575
0.26200001 111965.76462965 4417.04962364
0.26300001 110364.12432995 5681.54538934
0.26400001 108788.10180575 4756.75997654
0.26500001 107235.89782889 4706.58377842
0.26600001 105706.93949440 5503.63206521
0.26700001 104201.64792434 6283.35966717
0.26800001 102719.35727878 5388.14414103
0.26900001 101258.59287349 4100.97320544
0.27000001 99820.27672489  5680.77221724
0.27100001 98403.36538599  4014.85749774
0.27200001 97008.15085606  5561.47755177
0.27300001 95633.47425342  5109.69677117
0.27400001 94277.70053950  4277.85086443
0.27500001 92944.03096079  3847.88306388
0.27600001 91627.86375515  5710.70687880
0.27700001 90332.74275852  4143.56310643
0.27800001 89055.32812219  3726.96565830
0.27900001 87797.09310567  3687.47808496
0.28000001 86556.45153046  4378.02552562
0.28100001 85333.96086230  3609.62671532
0.28200001 84129.53512924  4285.55872232
0.28300001 82942.31264009  3886.67695427
0.28400001 81771.15046508  3845.28853262
0.28500001 80617.48204354  4150.18817204
0.28600001 79479.92676231  4105.93321088
0.28700001 78359.16914212  3723.62789388
0.28800001 77252.54270037  4353.56724995
0.28900001 76163.54762031  4638.36026963
0.29000001 75088.74259050  3933.14852306
0.29100001 74029.76806332  3891.00479359
0.29200001 72985.18282564  3849.23872443
0.29300001 71955.60141420  3173.24217257
0.29400001 70939.57670858  3139.07641795
0.29500001 69939.02626233  4657.93936956
0.29600001 68951.23124558  4300.48849636
0.29700001 67977.74978424  3342.46611512
0.29800001 67017.98597091  3306.33249439
0.29900001 66071.95922427  3270.56213643
0.30000001 65138.10419851  3529.18265255
0.30100001 64218.42175091  2909.09464303
0.30200001 63310.45507848  3165.20635149
0.30300001 62416.05777619  4269.25855400
0.30400001 61534.03957990  3096.70068846
0.30500001 60664.63890120  3898.30988035
0.30600001 59806.38406458  2754.08411656
0.30700001 58961.10451663  3268.80378916
0.30800001 58127.52627792  3233.05316464
0.30900001 57305.89289526  3197.66897495
0.31000001 56496.06394083  3426.20395990
0.31100001 55697.01647441  3388.60664274
0.31200001 54910.49544633  3351.46224824
0.31300001 54134.26575996  2549.72403801
0.31400001 53370.86039015  3026.12792740
0.31500001 52616.76779619  3491.64887627
0.31600002 51875.38573743  2960.00965033
0.31700002 51143.90764194  2927.47741203
0.31800002 50423.16789123  3136.57330719
0.31900002 49713.81773280  2624.88970058
0.32000002 49015.16703559  3068.10452587
0.32100002 48326.55689830  2801.00737045
0.32200002 47649.57357005  2770.34633854
0.32300002 46981.20914001  3881.58768294
0.32400002 46324.58749058  2709.98849652
0.32500002 45677.63625553  3573.81842986
0.32600002 45041.07970487  3313.89759621
0.32700002 44414.75116051  2840.76761874
0.32800002 43799.43608097  3026.10318213
0.32900002 43192.05645471  2565.60827490
0.33000002 42595.99202122  2960.84754560
0.33100002 42008.85894917  2301.24540221
0.33200002 41433.12142200  2483.50141564
0.33300002 40866.29527213  2456.88178811
0.33400002 40309.73714398  2633.23370363
0.33500002 39762.44661645  2805.63836612
0.33600002 39224.58957819  1982.80309708
0.33700002 38696.30178768  2158.09285290
0.33800002 38178.17331435  2135.49622547
0.33900002 37668.92523662  2305.33833366
0.34000002 37169.12173061  3041.92106649
0.34100002 36679.03384533  2822.45178807
0.34200002 36198.80282959  2048.67134316
0.34300002 35727.07489254  2396.57229729
0.34400002 35265.36095479  2007.48076743
0.34500002 34812.50964443  2529.47707056
0.34600002 34369.49778603  2683.39866673
0.34700002 33934.26205914  2657.05284507
0.34800002 33509.17934792  1929.62618414
0.34900002 33092.60399972  1911.09797150
0.35000002 32685.57752449  2237.16445962
0.35100002 32287.94876181  1875.28415290
0.35200002 31897.70623672  1688.98362523
0.35300002 31517.71621968  2175.66805369
0.35400002 31145.73174434  2487.76544091
0.35500002 30782.99641946  1972.57450399
0.35600002 30428.54171756  1792.39333477
0.35700002 30082.70403708  1776.98541164
0.35800002 29746.00463964  1601.82242571
0.35900002 29418.23025940  2541.73521480
0.36000002 29098.67668016  2048.40144192
0.36100002 28786.87806881  1875.75306381
0.36200002 28485.28467979  1861.22858914
0.36300002 28190.40736492  1693.11594653
0.36400002 27904.45850378  1680.54609299
0.36500002 27626.05773275  1668.33770551
0.36600002 27356.71507490  2409.57957793
0.36700002 27094.90966161  1794.76690100
0.36800002 26841.96627478  1782.84348442
0.36900002 26596.83778866  1771.34948063
0.37000002 26358.93953282  1760.25006538
0.37100002 26129.05244582  1895.40155420
0.37200002 25907.64958107  1449.53306273
0.37300002 25693.58343271  1729.69211863
0.37400002 25487.01918988  1863.73836655
0.37500002 25288.24240838  1568.88263334
0.37600002 25097.39840335  1561.18374164
0.37700002 24913.63886455  2118.90508581
0.37800002 24737.17229469  1546.93914273
0.37900002 24568.93149744  1960.60082637
0.38000002 24406.95167653  1534.34308983
0.38100002 24251.58047450  1528.57718972
0.38200002 24104.47088300  1523.28210961
0.38300002 23963.63188148  1518.33578794
0.38400002 23830.09772001  1926.66349194
0.38500002 23702.63028112  1509.62059412
0.38600002 23583.01967707  1642.79322853
0.38700002 23469.00447921  1365.89612540
0.38800002 23361.60691750  1772.09477668
0.38900002 23260.65609979  1632.89813556
0.39000002 23166.73207440  1766.34757070
0.39100002 23078.00492094  1764.08277973
0.39200002 22996.37926248  1762.32760827
0.39300002 22920.01934953  1896.40249083
0.39400002 22850.94359867  1760.09401408
0.39500002 22786.28756976  1759.55720950
0.39600002 22727.72936880  2165.49815686
0.39700002 22674.27810401  1624.38536033
0.39800002 22627.59616165  1489.68786388
0.39900002 22585.12449004  1490.61828697
0.40000002 22548.53766435  1356.29460477
0.40100002 22516.63736662  1493.52862729
0.40200002 22490.44311283  1631.45682070
0.40300002 22468.89912982  1633.93842214
0.40400002 22452.36967490  1773.17597909
0.40500002 22440.13345683  1503.26461150
0.40600002 22433.38411730  1780.42561483
0.40700002 22430.69151511  1921.86174007
0.40800002 22432.21803825  1513.83830604
0.40900002 22437.88203486  1793.90875369
0.41000002 22448.25697074  1522.32861860
0.41100002 22462.49315016  1527.00035670
0.41200002 22479.72622612  1531.88101626
0.41300002 22502.29893389  1816.61067901
0.41400002 22527.68930792  1542.58359845
0.41500002 22556.75407927  1407.54152124
0.41600002 22588.20695885  1695.47089467
0.41700002 22624.67454102  1560.42387703
0.41800002 22664.58079639  1709.36276466
0.41900002 22705.75980151  1430.46293528
0.42000002 22750.57527939  1436.69889697
0.42100002 22799.12622862  2597.73256558
0.42200002 22849.81619036  1739.78508717
0.42300002 22902.93128685  2039.27709841
0.42400002 22958.41963990  1609.95925354
0.42500002 23016.97614455  1617.86332986
0.42600002 23076.47810150  2660.48728639
0.42700002 23139.23693319  1782.64689781
0.42800002 23203.33562897  2538.32902141
0.42900002 23270.38070507  2101.31547724
0.43000002 23338.92861968  1508.86180676
0.43100002 23407.70892931  1820.18353260
0.43200002 23479.32467124  1524.98220966
0.43300002 23551.68557259  1993.17924446
0.43400002 23625.94089441  1849.91125970
0.43500002 23700.80372585  1550.03263712
0.43600002 23777.47633351  1714.47501227
0.43700002 23854.45084674  2194.13249286
0.43800002 23931.91771318  1891.10022731
0.43900002 24011.14816097  2218.63019521
0.44000002 24090.36684569  1752.93562660
0.44100002 24170.46850800  1762.75235182
0.44200002 24250.78205710  1933.75745287
0.44300002 24331.66414058  2430.73336284
0.44400002 24412.57943743  1629.53975467
0.44500002 24493.21603769  1966.31547669
0.44600002 24573.69303149  2636.26591335
0.44700002 24655.21984051  2319.56319252
0.44800002 24735.31491475  1999.10824615
0.44900002 24815.80524904  2177.58701380
0.45000002 24896.31208960  2189.50627049
0.45100002 24975.46233247  2032.00371167
0.45200002 25054.51753751  2042.94545683
0.45300002 25132.46106349  1711.52067954
0.45400002 25209.96142021  1892.63794332
0.45500002 25286.89986403  2075.54883921
0.45600002 25362.43305501  2434.03281565
0.45700002 25437.40890472  2271.81509695
0.45800002 25510.85040970  2283.34877414
0.45900002 25583.11848204  2294.80583660
0.46000002 25654.60231899  2483.62216821
0.46100002 25723.97523853  1960.93872537
0.46200002 25792.62316255  1791.29776354
0.46300002 25859.76559321  1979.82374765
0.46400002 25924.76255111  1808.25227364
0.46500002 25989.27147281  2361.64521067
0.46600002 26051.09029452  2189.85475395
0.46700002 26111.15971397  2199.60419856
0.46800002 26170.29028761  2393.40401169
0.46900002 26226.69774483  2033.88050651
0.47000002 26281.38573710  2413.81398743
0.47100002 26334.36053785  2610.26194023
0.47200002 26385.40582216  1872.04463181
0.47300002 26434.33146159  2255.37726720
0.47400002 26480.43275179  2452.75019989
0.47500002 26524.88819949  3408.97879298
0.47600002 26567.82613756  2661.29927034
0.47700002 26607.36094123  3052.39659186
