# SAXS profile: number of points = 501, q_min = 0, q_max = 0.5, delta_q = 0.001
#    q    intensity    error
0.00000000 1646666.22097351 395.19989303
0.00100000 1646585.57446202 740.96352610
0.00200000 1646343.56312240 1037.19647761
0.00300000 1645940.42517165 1185.07714834
0.00400000 1645376.02317000 1480.83847712
0.00500000 1644650.84649164 1776.22298452
0.00600000 1643764.79752169 2071.14372920
0.00700000 1642718.48001615 2759.76716112
0.00800000 1641511.65144297 2659.24898761
0.00900000 1640145.60211107 2952.26221000
0.01000000 1638619.62851795 4055.58375570
0.01100000 1636935.06911707 4125.07655378
0.01200000 1635091.81203965 3826.11500792
0.01300000 1633090.99383893 5144.23685748
0.01400000 1630932.62755441 4036.55843214
0.01500000 1628618.16991562 3908.68378185
0.01600000 1626146.99748822 4146.67502897
0.01700000 1623521.31331370 4383.50774259
0.01800000 1620741.05097614 6004.84586407
0.01900000 1617806.89312341 5338.76298821
0.02000000 1614720.05369882 7120.91575893
0.02100000 1611482.47212606 5849.68163903
0.02200000 1608092.67127370 6102.71196474
0.02300000 1604553.96421259 6354.03398751
0.02400000 1600865.69129637 7203.89593931
0.02500000 1597030.50349225 8096.94502250
0.02600000 1593048.37160558 7742.21544012
0.02700000 1588921.46001624 9342.85861281
0.02800000 1584649.49357574 8271.87073581
0.02900000 1580235.00184977 11377.69253572
0.03000000 1575679.29268648 12455.74538122
0.03100000 1570982.94552550 9802.93403114
0.03200000 1566146.86830627 9302.91282621
0.03300000 1561175.29161400 9554.39322514
0.03400000 1556066.32466965 10620.15315589
0.03500000 1550822.95423434 9211.88877354
0.03600000 1545446.50529468 9434.95135085
0.03700000 1539938.78670300 11410.94693720
0.03800000 1534301.19174554 10770.79486452
0.03900000 1528535.87002492 10088.33720936
0.04000000 1522642.64912851 11237.10327128
0.04100000 1516625.44533852 12421.16297325
0.04200000 1510484.99583393 14613.94301268
0.04300000 1504222.34712815 11913.44154225
0.04400000 1497840.91471772 12132.51197267
0.04500000 1491342.13070572 16464.41788801
0.04600000 1484725.72206660 11514.04850988
0.04700000 1477996.24104007 17026.51748865
0.04800000 1471153.78584060 11894.27891194
0.04900000 1464202.14714664 13177.81993771
0.05000000 1457141.21580773 17835.40931201
0.05100000 1449975.11498773 13571.76770851
0.05200000 1442702.36312848 13763.38118564
0.05300000 1435328.81906451 17439.24596461
0.05400000 1427854.55588462 16491.72088954
0.05500000 1420281.92297462 14316.44245144
0.05600000 1412612.12346801 15701.18448503
0.05700000 1404850.13569222 18333.29512655
0.05800000 1396995.09555341 21017.79219397
0.05900000 1389049.19419260 16251.87633111
0.06000000 1381016.45046105 16427.19144569
0.06100000 1372898.01620576 17875.13300633
0.06200000 1364696.28874058 14186.01858456
0.06300000 1356414.24402221 24740.99696774
0.06400000 1348050.66131211 19715.24184371
0.06500000 1339611.40862061 14588.36892229
0.06600000 1331097.98982610 14715.28896603
0.06700000 1322510.98529186 14838.57394940
0.06800000 1313854.42566870 25836.94849018
0.06900000 1305130.58886526 13703.87182469
0.07000000 1296340.03035560 17947.82856074
0.07100000 1287485.96387092 16685.81887329
0.07200000 1278570.84954772 16800.42175010
0.07300000 1269597.18019149 15501.78229648
0.07400000 1260567.20395168 15599.51987996
0.07500000 1251482.45344440 17120.28076559
0.07600000 1242344.33997565 20088.70891918
0.07700000 1233157.99603273 17313.53907611
0.07800000 1223923.41738846 21755.23976432
0.07900000 1214642.87441061 18948.42972956
0.08000000 1205320.47708183 20502.50227696
0.08100000 1195956.98259660 17652.32589134
0.08200000 1186553.98111794 16249.85753394
0.08300000 1177115.63409647 22247.48652854
0.08400000 1167642.61293451 16376.18841508
0.08500000 1158137.90393392 17927.97559453
0.08600000 1148603.05331496 22483.90582429
0.08700000 1139042.03921064 25560.10456013
0.08800000 1129454.03023016 19601.67561521
0.08900000 1119845.09690924 16629.70047019
0.09000000 1110213.78132561 18185.30259238
0.09100000 1100563.99321163 30375.56763972
0.09200000 1090897.31545711 16739.82009224
0.09300000 1081218.76692022 15245.18532998
0.09400000 1071524.47044011 22903.83663208
0.09500000 1061821.00461542 24464.35709623
0.09600000 1052108.88675948 16839.00352415
0.09700000 1042392.90168307 18387.81165015
0.09800000 1032672.57839534 18402.22621223
0.09900000 1022950.60892153 18413.11182642
0.10000000 1013228.26625316 18420.49074675
0.10100000 1003507.33852162 19959.76190194
0.10200000 993791.40324849 16889.48569263
0.10300000 984080.95628343 19957.16273223
0.10400000 974379.09717310 16881.11865270
0.10500000 964688.82539208 18406.26365448
0.10600001 955007.46641084 18393.44466855
0.10700001 945341.99732748 18377.44929285
0.10800001 935691.18561591 22947.82740719
0.10900001 926058.99321290 16807.97151789
0.11000001 916444.97584895 19836.45243594
0.11100001 906852.23052451 15235.11818998
0.11200001 897282.37214567 18250.72430863
0.11300001 887736.62881110 16698.32677411
0.11400001 878217.85195947 21208.96212343
0.11500001 868727.05229121 27208.53255896
0.11600001 859265.83107622 21112.16246375
0.11700001 849836.46346785 24067.36977886
0.11800001 840438.38400948 16502.00844724
0.11900001 831074.44877982 17951.20893918
0.12000001 821745.77583780 25354.96710782
0.12100001 812456.75862707 20815.14313659
0.12200001 803205.12117347 17782.96222056
0.12300001 793994.61829539 16245.13065570
0.12400001 784824.99309927 20601.65703955
0.12500001 775697.70712468 17592.82482657
0.12600001 766616.57358145 17524.85569790
0.12700001 757580.37220547 16000.09821501
0.12800001 748590.84142241 17382.28015704
0.12900001 739650.10723134 17307.81332497
0.13000001 730759.10772955 21539.12571557
0.13100001 721918.04062762 15723.37566603
0.13200001 713128.89525001 22763.07540944
0.13300001 704392.98040378 26900.76918980
0.13400001 695710.58924657 15496.95410608
0.13500001 687084.08287751 16819.81914187
0.13600001 678513.58513181 16732.14579828
0.13700001 670000.56500599 16642.81481951
0.13800001 661544.08063990 17931.15315130
0.13900001 653147.84176614 13716.10532392
0.14000001 644810.72248286 13637.74742368
0.14100001 636535.63371088 23048.95638373
0.14200001 628321.53199267 16172.99699630
0.14300001 620170.60644839 14735.25430424
0.14400001 612080.44042356 19969.12531076
0.14500001 604056.59833032 19843.26019120
0.14600001 596096.90568657 15772.72486853
0.14700001 588203.61976568 14363.93307232
0.14800001 580373.96380809 16862.76631401
0.14900001 572612.22113333 18037.28581671
0.15000001 564917.11267564 16633.98516757
0.15100001 557289.60862960 13976.82404393
0.15200001 549731.58487792 15139.60856193
0.15300001 542241.99908762 16283.52800101
0.15400001 534820.00283384 17408.39191376
0.15500001 527469.30755105 19748.45180670
0.15600001 520186.72817881 13475.43782944
0.15700001 512977.24750196 19452.09814335
0.15800001 505835.61180085 20509.10584847
0.15900001 498766.90251352 11970.40622533
0.16000001 491767.18489203 14251.41369087
0.16100001 484841.52741054 12959.81463944
0.16200001 477986.88458977 11686.77987991
0.16300001 471203.78675867 15069.09781192
0.16400001 464493.22935297 16094.69115690
0.16500001 457854.03437454 12540.62259358
0.16600001 451287.68786264 13565.70853763
0.16700001 444793.23198548 14571.42696783
0.16800001 438371.60778951 14446.53701682
0.16900001 432023.20998528 14321.57008725
0.17000001 425745.86435230 12012.42012992
0.17100001 419541.78005383 15153.84981113
0.17200001 413410.16447863 11800.79370231
0.17300001 407350.37890135 10631.84539141
0.17400001 401364.08957203 11589.38863371
0.17500001 395448.68007079 12527.81477630
0.17600001 389604.04746338 13447.18433330
0.17700001 383834.26206226 14347.72539354
0.17800001 378134.26245803 12183.48651185
0.17900001 372505.45387442 10057.64772967
0.18000001 366948.95577971 9962.66462001
0.18100001 361463.93032614 10854.76234043
0.18200001 356047.66048938 11728.21049054
0.18300001 350702.37388630 11615.26317181
0.18400001 345427.42921793 9585.61161363
0.18500001 340222.40775916 11390.64674989
0.18600001 335087.11987092 12218.95240336
0.18700001 330020.26191285 10237.22900819
0.18800001 325020.85254642 11057.20992604
0.18900001 320092.92793051 10034.91376475
0.19000001 315228.82780929 14450.09014953
0.19100001 310435.13473892 13410.79845438
0.19200001 305706.61253304 8850.20685102
0.19300001 301046.47817983 10512.54351478
0.19400001 296450.79005878 11272.54182466
0.19500001 291921.23161031 12873.72692236
0.19600001 287455.95187319 10193.18853512
0.19700001 283056.84988097 12610.18325812
0.19800001 278720.69597644 9983.77580170
0.19900001 274448.51862404 9880.14713740
0.20000001 270237.51781204 8962.42770181
0.20100001 266090.81659271 9675.06254858
0.20200001 262004.71549809 10371.45715318
0.20300001 257980.22652279 9473.03436566
0.20400001 254016.99151286 8592.12514404
0.20500001 250112.87575316 9274.18587129
0.20600001 246267.86256089 8411.27924335
0.20700001 242482.32608815 9835.08361103
0.20800001 238754.26102221 11227.41965529
0.20900001 235086.26446107 7405.21768058
0.21000001 231472.13717487 7326.09348791
0.21100001 227915.86089772 8697.26966301
0.21200001 224414.00926926 7170.02793511
0.21300001 220967.31775170 7802.35635867
0.21400001 217575.38911970 7718.48729392
0.21500001 214238.06880131 6941.31375733
0.21600001 210952.18037390 9613.09131413
0.21700001 207719.33272470 9509.39150174
0.21800001 204538.11287245 6719.07732554
0.21900001 201407.37401082 7975.73238793
0.22000001 198326.34791394 9204.32624189
0.22100001 195296.49300829 7804.04822961
0.22200001 192314.98297590 7076.23013319
0.22300001 189381.35074165 7635.85642297
0.22400001 186494.93108699 10070.72675491
0.22500001 183657.50140891 7471.18751061
0.22600001 180864.33845035 8005.96032009
0.22700001 178117.78701524 6700.79146439
0.22800001 175415.56501116 6628.07743739
0.22900001 172757.08449090 7748.15560583
0.23000001 170142.78037980 5895.44761897
0.23100001 167572.44840137 6997.82577619
0.23200001 165042.48042245 5768.23496357
0.23300001 162555.34972259 5705.69304511
0.23400001 160108.29727354 6208.19952040
0.23500001 157701.07165394 7815.66548082
0.23600001 155333.90874419 8835.39314726
0.23700001 153006.07747465 5462.31722420
0.23800001 150715.93637783 7024.11654712
0.23900001 148463.63866052 5879.16036904
0.24000001 146247.76122159 7930.28522735
0.24100001 144069.44741616 5229.72118858
0.24200001 141926.84554314 5690.55714123
0.24300001 139818.65920410 6140.83580272
0.24400001 137745.35729571 5568.35633208
0.24500001 135705.19865005 5508.27427377
0.24600001 133698.83087204 7430.31287721
0.24700001 131725.61370236 4900.19306154
0.24800001 129784.27410295 4847.44286706
0.24900001 127873.41964766 5754.30415637
0.25000001 125994.68295604 4743.70003771
0.25100001 124145.53710865 5161.97167719
0.25200001 122328.00491462 6963.52200921
0.25300001 120538.28126442 5970.26135348
0.25400001 118778.21904731 4543.26709351
0.25500001 117044.92865468 5842.88311488
0.25600001 115340.60255742 6224.93261454
0.25700001 113662.40411927 4398.73524753
0.25800001 112011.17012026 4786.79758157
0.25900001 110386.75511427 4735.59201847
0.26000001 108787.28848261 5110.82705473
0.26100001 107212.39276114 5056.13668185
0.26200001 105663.72796157 4168.43426532
0.26300001 104137.46171145 6185.76551836
0.26400001 102636.24893959 4895.74930608
0.26500001 101157.87623733 6457.91912457
0.26600001 99702.06017474  4791.68123874
0.26700001 98268.94535605  4345.45296927
0.26800001 96858.05676046  5471.51188532
0.26900001 95467.95513383  5799.67854883
0.27000001 94099.57399001  3825.14786371
0.27100001 92751.55331259  4162.68990966
0.27200001 91424.63167722  4492.60661322
0.27300001 90117.29147953  4074.20294060
0.27400001 88828.30719423  6595.50212130
0.27500001 87560.46147411  4350.00393190
0.27600001 86309.10426266  5379.21517775
0.27700001 85078.37018997  3547.76820483
0.27800001 83864.51927550  3509.73029779
0.27900001 82669.04382325  3819.31000539
0.28000001 81490.55745457  4465.27530706
0.28100001 80329.44676099  3397.93575881
0.28200001 79185.54159687  4369.85431985
0.28300001 78057.99179693  3990.32472952
0.28400001 76946.04794178  6907.83178093
0.28500001 75850.70934035  4230.19426013
0.28600001 74770.75049803  3540.76905743
0.28700001 73706.89251721  3502.55169820
0.28800001 72656.59476527  3779.59623859
0.28900001 71622.91650891  3427.15671717
0.29000001 70603.11377522  4006.37388081
0.29100001 69598.31400659  3048.40629778
0.29200001 68607.25003951  3618.34653836
0.29300001 67630.35382827  3877.24836851
0.29400001 66666.44951325  3834.98768978
0.29500001 65717.53299100  3793.21618380
0.29600001 64780.47212210  2885.97016965
0.29700001 63857.14000679  3425.29715211
0.29800001 62946.99595199  3952.44206293
0.29900001 62049.80650156  3350.68970970
0.30000001 61164.28308275  3313.88101430
0.30100001 60292.19314290  3823.73107014
0.30200001 59431.35744172  4862.07958248
0.30300001 58583.47550869  2938.54727063
0.30400001 57747.13962493  2906.12493921
0.30500001 56923.15050988  3657.88182494
0.30600001 56109.58141989  3359.00025073
0.30700001 55308.38030659  3832.87093671
0.30800001 54518.24385775  2779.61279468
0.30900001 53739.55344519  2748.77828886
0.31000001 52972.06266452  3459.60557641
0.31100001 52214.90782609  3909.85248313
0.31200001 51469.74258360  3141.45588732
0.31300001 50734.40622611  2628.54971103
0.31400001 50011.20134768  2363.02937556
0.31500001 49297.18691684  3271.36147869
0.31600002 48594.83537124  2541.75298444
0.31700002 47902.08111007  2741.91525256
0.31800002 47219.50914013  3163.23506707
0.31900002 46547.77840876  2457.72281635
0.32000002 45886.33510586  2209.42713996
0.32100002 45234.59928037  2403.31437356
0.32200002 44593.75996550  2160.56777263
0.32300002 43961.18608399  2350.16511933
0.32400002 43339.78052000  2535.37728047
0.32500002 42727.77468513  2925.14359345
0.32600002 42125.80883326  2479.52522534
0.32700002 41533.50145442  2452.13804198
0.32800002 40951.69595746  3435.64269504
0.32900002 40377.48826035  2798.16006895
0.33000002 39814.33729625  3755.88568670
0.33100002 39259.51731591  2346.14886590
0.33200002 38715.60250086  1933.84443649
0.33300002 38180.29861673  2295.39966154
0.33400002 37655.07317796  2838.25127520
0.33500002 37138.55502945  1871.78326212
0.33600002 36630.93768729  2407.20218412
0.33700002 36132.63846280  2564.69479955
0.33800002 35644.31879852  2356.26780576
0.33900002 35164.27096714  1972.71569468
0.34000002 34693.43072362  1774.56906555
0.34100002 34231.78329359  1931.69962274
0.34200002 33779.87317719  2780.75929164
0.34300002 33336.19545852  2408.20687397
0.34400002 32902.11250260  2554.02660397
0.34500002 32476.45409241  1854.08085195
0.34600002 32060.32920066  2002.48825671
0.34700002 31651.83501305  2313.11621230
0.34800002 31253.06232069  1799.70767897
0.34900002 30862.57882444  1620.28546502
0.35000002 30481.17015065  1604.83368444
0.35100002 30109.08484292  1907.71170600
0.35200002 29744.04312455  2519.91545286
0.35300002 29388.91064865  1872.66147523
0.35400002 29041.75331493  2319.71015590
0.35500002 28703.53349062  1839.32251320
0.35600002 28373.10776494  1519.37999278
0.35700002 28051.29726996  1656.99020822
0.35800002 27737.99383636  1493.69103884
0.35900002 27433.60539399  1925.83918988
0.36000002 27137.18036630  2351.16541830
0.36100002 26848.42281740  2332.59108486
0.36200002 26569.34372671  2170.05125167
0.36300002 26297.02459997  1866.56289452
0.36400002 26033.38301973  1852.92612420
0.36500002 25776.89960702  1556.66704100
0.36600002 25529.41109343  1686.47297672
0.36700002 25289.24324864  1395.96629345
0.36800002 25057.80585426  1803.03450565
0.36900002 24833.91379090  1653.93873682
0.37000002 24617.19107761  1506.94142320
0.37100002 24408.07978297  1906.75928297
0.37200002 24207.31063540  1354.39909421
0.37300002 24013.81788411  1886.04534596
0.37400002 23827.62581833  1876.42562208
0.37500002 23649.13332636  1467.19230107
0.37600002 23478.12961332  1327.68829253
0.37700002 23314.17092316  1718.48762015
0.37800002 23157.59591340  2106.41502407
0.37900002 23008.75217778  1704.94861714
0.38000002 22866.26977701  1306.80737966
0.38100002 22730.17857564  1302.43929409
0.38200002 22602.25934423  1428.34984692
0.38300002 22480.17222523  2460.23016488
0.38400002 22365.49492199  1549.92887152
0.38500002 22256.78429584  1933.00180767
0.38600002 22155.65190767  1929.20348126
0.38700002 22060.12850503  1540.67944778
0.38800002 21971.14436705  1410.21796801
0.38900002 21888.43404266  1408.52079737
0.39000002 21812.54485375  1407.23639791
0.39100002 21742.00626939  1406.27303213
0.39200002 21677.97639611  1533.50012291
0.39300002 21619.46870266  1916.56599129
0.39400002 21567.94302377  1661.27089011
0.39500002 21521.01777286  1661.85307116
0.39600002 21479.95755209  1662.87099268
0.39700002 21443.79966080  1536.23388048
0.39800002 21414.27414074  1666.13767846
0.39900002 21389.03724744  1540.01075478
0.40000002 21369.50818603  1285.37597829
0.40100002 21354.68223587  1416.45613982
0.40200002 21345.39634764  1419.36219738
0.40300002 21340.68332300  1293.24547065
0.40400002 21340.75542835  1555.74114444
0.40500002 21345.13609024  1559.90261938
0.40600002 21355.03215905  1434.09725259
0.40700002 21368.79086546  1700.10108181
0.40800002 21386.75564554  1574.49302523
0.40900002 21408.63165977  1843.28327324
0.41000002 21435.32096989  1585.78512049
0.41100002 21465.63351829  1857.20670000
0.41200002 21499.04679531  1331.86601208
0.41300002 21537.59391588  1604.98157466
0.41400002 21579.02904046  2014.94193213
0.41500002 21623.93413122  1349.33355372
0.41600002 21671.46555015  1897.77032815
0.41700002 21723.58833818  1362.06905334
0.41800002 21779.18552475  1916.35062513
0.41900002 21836.06522934  1925.94104449
0.42000002 21896.47620369  1521.03879156
0.42100002 21960.33502001  1390.08927264
0.42200002 22026.64087418  1537.34947266
0.42300002 22095.09033539  1686.29737430
0.42400002 22165.91952531  1413.07743670
0.42500002 22239.64410785  1847.44732358
0.42600002 22314.25803704  1572.15112450
0.42700002 22392.32988987  2156.38147058
0.42800002 22471.56423346  2024.46331773
0.42900002 22553.54037915  1600.17376573
0.43000002 22636.95661209  1756.17517719
0.43100002 22720.65735163  1913.98826600
0.43200002 22807.20439125  1925.72639403
0.43300002 22894.21802298  2086.57912949
0.43400002 22983.21352362  1949.55117953
0.43500002 23072.69779883  1659.84995831
0.43600002 23163.95538093  3188.63442907
0.43700002 23255.53542622  1680.67762490
0.43800002 23347.34077077  2152.39144766
0.43900002 23441.02720943  2475.37259062
0.44000002 23534.54948015  1712.49157408
0.44100002 23628.96380998  2349.90056226
0.44200002 23723.58332090  1734.07540502
0.44300002 23818.64867266  2220.85090749
0.44400002 23913.58784968  1915.47847754
0.44500002 24008.19273854  2409.22225549
0.44600002 24102.71185490  1777.69559710
0.44700002 24198.02191798  2439.16072493
0.44800002 24292.12081488  2290.50418019
0.44900002 24386.35477305  2139.90273275
0.45000002 24480.57736528  2152.94447842
0.45100002 24573.13987052  1832.66485840
0.45200002 24665.75951036  2346.45381342
0.45300002 24757.23389879  2023.16125009
0.45400002 24848.09720185  2374.23580016
0.45500002 24938.39308078  2046.94340108
0.45600002 25027.17376671  1887.17412732
0.45700002 25115.30653246  1725.42164055
0.45800002 25201.83572457  1908.66111906
0.45900002 25287.18965019  2617.22425284
0.46000002 25371.74853988  2807.13039149
0.46100002 25454.05099841  1940.36239957
0.46200002 25535.50153112  1950.78473193
0.46300002 25615.28858289  2317.67142083
0.46400002 25692.89937724  2508.91174310
0.46500002 25770.01903168  1981.45685726
0.46600002 25844.26088150  1991.42961661
0.46700002 25916.87350252  2365.17398794
0.46800002 25988.18573100  2925.23032453
0.46900002 26056.85157334  2020.70893529
0.47000002 26123.75269018  2030.20753654
0.47100002 26188.75954367  2781.24639536
0.47200002 26251.78259908  1862.56406368
0.47300002 26312.45363067  2244.97865017
0.47400002 26370.42786917  2818.33961210
0.47500002 26426.58852430  2452.91606309
0.47600002 26481.11358126  2084.19614320
0.47700002 26532.08663738  2092.58577227
