# SAXS profile: number of points = 501, q_min = 0, q_max = 0.5, delta_q = 0.001
#    q    intensity    error
0.00000000 1682732.95097188 328.13292544
0.00100000 1682651.34094332 504.79541427
0.00200000 1682406.45361583 984.20780653
0.00300000 1681998.50768238 1211.03896867
0.00400000 1681427.36813428 1765.49880363
0.00500000 1680693.53789024 1815.14909277
0.00600000 1679796.93661522 2116.54422630
0.00700000 1678738.14416727 2014.48585672
0.00800000 1677516.90480687 2264.64791710
0.00900000 1676134.54438105 2514.20192405
0.01000000 1674590.34632197 4420.91870518
0.01100000 1672885.66038012 3011.19431979
0.01200000 1671020.37583600 3584.33886332
0.01300000 1668995.62495193 4556.35825708
0.01400000 1666811.43745848 3750.32590054
0.01500000 1664469.21529265 5992.08944187
0.01600000 1661968.40177846 5509.42549819
0.01700000 1659311.26505048 5376.16873993
0.01800000 1656497.61148206 7081.52760774
0.01900000 1653528.23629910 5952.70191928
0.02000000 1650404.29686377 6758.40590138
0.02100000 1647127.74448814 8153.28270487
0.02200000 1643697.10708159 6237.83080477
0.02300000 1640115.64870755 8266.18324575
0.02400000 1636382.83637277 7363.72309945
0.02500000 1632501.35435560 8913.45780186
0.02600000 1628471.02185880 7254.83873420
0.02700000 1624294.04527633 8186.44236314
0.02800000 1619970.21594481 7046.87076253
0.02900000 1615502.17412995 10904.64017606
0.03000000 1610891.03524444 10486.90112147
0.03100000 1606137.36544634 9251.35165065
0.03200000 1601242.42115475 11096.61048969
0.03300000 1596210.12576166 9768.80642001
0.03400000 1591038.48655194 13364.72390369
0.03500000 1585730.80889424 9419.24143979
0.03600000 1580288.41817630 11401.78146406
0.03700000 1574712.90409228 10771.03676212
0.03800000 1569005.81883527 13768.02669746
0.03900000 1563169.32057001 10316.91799354
0.04000000 1557203.14856920 10534.47978823
0.04100000 1551111.41074938 15635.20374530
0.04200000 1544894.71752173 13950.39994642
0.04300000 1538554.22058168 12185.34999263
0.04400000 1532093.23247412 11375.79277943
0.04500000 1525513.13893847 12631.24937732
0.04600000 1518813.92445131 13919.93026469
0.04700000 1512000.03315987 14152.32096857
0.04800000 1505071.49816630 12168.50362885
0.04900000 1498032.39038868 12358.76779598
0.05000000 1490882.20982057 13686.29932347
0.05100000 1483625.37763446 13886.73418156
0.05200000 1476260.10926079 16430.77578177
0.05300000 1468792.79741213 15466.38887776
0.05400000 1461223.13519814 13260.60057032
0.05500000 1453553.64185203 15872.80650948
0.05600000 1445785.59347969 14833.76088131
0.05700000 1437923.76316969 12509.93732352
0.05800000 1429967.16475474 20248.33599837
0.05900000 1421918.66108905 16636.44911176
0.06000000 1413781.75536429 15523.32439913
0.06100000 1405557.82014622 14378.85717204
0.06200000 1397249.12907346 18485.60684172
0.06300000 1388858.50013273 17332.95489206
0.06400000 1380385.09278991 20188.13292619
0.06500000 1371834.94451618 17655.51656181
0.06600000 1363208.86352129 19180.34960716
0.06700000 1354508.45588838 17960.78296563
0.06800000 1345736.80257709 15321.21421451
0.06900000 1336896.52550037 18248.63842746
0.07000000 1327988.44702911 15557.38538547
0.07100000 1319015.49707096 18518.97844626
0.07200000 1309980.15148766 17213.13999693
0.07300000 1300885.36229712 14439.82819808
0.07400000 1291732.86347494 14531.99539512
0.07500000 1282524.45723727 20469.09129694
0.07600000 1273261.44067465 22059.25549384
0.07700000 1263949.14535082 20703.48797160
0.07800000 1254587.62378036 20813.60965460
0.07900000 1245178.86359016 22413.22059589
0.08000000 1235727.13450031 16515.49392736
0.08100000 1226233.34991381 24132.27345855
0.08200000 1216699.18465803 16662.69611579
0.08300000 1207128.06926839 21293.74014125
0.08400000 1197521.74351021 19848.92383036
0.08500000 1187882.36496632 29114.99813213
0.08600000 1178212.23655243 18450.80449070
0.08700000 1168514.97304629 16966.83820536
0.08800000 1158789.70197816 15469.84324793
0.08900000 1149042.21368460 15512.07061334
0.09000000 1139272.17986407 17106.17258423
0.09100000 1129482.40451571 15586.85791461
0.09200000 1119674.97491479 21867.25328756
0.09300000 1109854.24470190 15648.94558567
0.09400000 1100017.55288051 25080.40138439
0.09500000 1090170.74575842 18838.15137215
0.09600000 1080314.74876861 17290.43836683
0.09700000 1070453.90242915 20456.37503713
0.09800000 1060587.90577973 20474.65048375
0.09900000 1050719.79818833 18912.95725672
0.10000000 1040850.27119578 15768.88235018
0.10100000 1030981.76248438 18928.82604947
0.10200000 1021117.30862295 18931.51579234
0.10300000 1011257.77239277 17353.18419057
0.10400000 1001406.52170307 20503.79949647
0.10500000 991566.00346645 23648.85029534
0.10600001 981733.50669022 23635.23528569
0.10700001 971917.04373572 18894.06821933
0.10800001 962114.21072222 18876.68170274
0.10900001 952329.39103531 23570.15353747
0.11000001 942562.70403545 17263.03673697
0.11100001 932816.52663880 18805.58206228
0.11200001 923092.65818864 21904.98981004
0.11300001 913392.81656639 21866.62505810
0.11400001 903719.06060666 23383.73179421
0.11500001 894073.44190350 17112.56648383
0.11600001 884456.41818648 17074.43195715
0.11700001 874871.38713689 21679.31399424
0.11800001 865316.87160839 18535.08826282
0.11900001 855796.24815428 18485.19983082
0.12000001 846310.56793334 15360.53753155
0.12100001 836864.63386972 19909.01057764
0.12200001 827455.44395042 16793.20902612
0.12300001 818087.60997385 18259.71631491
0.12400001 808759.69393358 16680.66947333
0.12500001 799474.33282278 18132.07872281
0.12600001 790234.89714700 18064.77060005
0.12700001 781040.19310907 14995.97241440
0.12800001 771892.19105010 19416.94898097
0.12900001 762792.48984830 14874.45425311
0.13000001 753742.61704558 16292.14743537
0.13100001 744742.03657858 17695.07162321
0.13200001 735794.24407526 16147.00544741
0.13300001 726899.29303376 17532.81177452
0.13400001 718057.44009194 20356.92938635
0.13500001 709271.88919227 21703.72083257
0.13600001 700542.19020818 15835.75695632
0.13700001 691869.79301781 17186.04646894
0.13800001 683253.77744684 18519.59451100
0.13900001 674698.89599768 22669.88397459
0.14000001 666202.63826990 16908.22375669
0.14100001 657768.54911482 14010.47075692
0.14200001 649395.32303449 15322.48336969
0.14300001 641086.09932235 22155.93663762
0.14400001 632836.95001696 16517.04517455
0.14500001 624654.91042665 13679.94318366
0.14600001 616536.70082590 14954.09838398
0.14700001 608485.36052457 16210.05076911
0.14800001 600497.91896870 16105.35494657
0.14900001 592578.33849570 17332.91721878
0.15000001 584725.55583007 13244.03446444
0.15100001 576941.15817878 19731.38854074
0.15200001 569226.09582662 13063.73951566
0.15300001 561580.02440608 14269.74909353
0.15400001 554001.53097113 14168.58982322
0.15500001 546494.63724335 15345.57013800
0.15600001 539056.26257042 12694.77558266
0.15700001 531691.59623674 15121.30971065
0.15800001 524394.64180036 15008.17535669
0.15900001 517171.34913616 17376.95815118
0.16000001 510017.37283670 13548.61214893
0.16100001 502937.58961305 14665.66080540
0.16200001 495929.26696467 15763.11249459
0.16300001 488993.08119616 12029.23036530
0.16400001 482130.09841335 15512.53664879
0.16500001 475338.87051204 11835.93843454
0.16600001 468621.21252746 16434.54669926
0.16700001 461975.26298792 16298.48804774
0.16800001 455402.49974224 13853.34469626
0.16900001 448904.27192256 13736.47136944
0.17000001 442477.44242257 13619.45632087
0.17100001 436124.25067738 12377.20681869
0.17200001 429843.66234971 11154.44356472
0.17300001 423636.27712149 14373.97956154
0.17400001 417502.16879926 14247.26218312
0.17500001 411439.98477575 15206.82255549
0.17600001 405449.22721215 11841.14523998
0.17700001 399533.69668654 13867.81526698
0.17800001 393688.47671349 12684.64331883
0.17900001 387914.94455687 12568.44479730
0.18000001 382215.27820945 12452.57435226
0.18100001 376586.98953748 11308.90783000
0.18200001 371028.01400830 13240.13530532
0.18300001 365541.16444582 12106.72393836
0.18400001 360124.75062870 12991.50099266
0.18500001 354779.38657668 12867.84895904
0.18600001 349504.35189973 9803.59753394
0.18700001 344298.29566864 13592.89735519
0.18800001 339160.31179579 16345.83199928
0.18900001 334094.80309771 14282.55350724
0.19000001 329093.97771707 14142.81436062
0.19100001 324163.96623223 10269.51493547
0.19200001 319299.88287443 10168.10525059
0.19300001 314505.32858282 10067.31604364
0.19400001 309775.72283194 11779.22241730
0.19500001 305113.13755379 11661.42466837
0.19600001 300515.35165841 8880.22906115
0.19700001 295984.78079908 10548.89808619
0.19800001 291517.85434989 8701.80836358
0.19900001 287115.52443862 8613.46614023
0.20000001 282775.59785255 10230.82161383
0.20100001 278500.60436801 10126.28245341
0.20200001 274286.83972516 10857.64506369
0.20300001 270135.72915073 14879.07666488
0.20400001 266046.37985477 11453.29719410
0.20500001 262017.18024683 8905.96437755
0.20600001 258048.13556113 11217.35298306
0.20700001 254139.08191850 9514.96767679
0.20800001 250288.48561162 10985.16215276
0.20900001 246498.84301153 10870.59949068
0.21000001 242763.93657686 10756.87053822
0.21100001 239087.76518124 7602.99129218
0.21200001 235466.78752858 9780.11348235
0.21300001 231901.90747362 8188.45674001
0.21400001 228392.60870198 8102.22817675
0.21500001 224938.83815605 8016.82057090
0.21600001 221537.33572606 7932.14468069
0.21700001 218189.75635383 9275.24698113
0.21800001 214894.95212817 11294.87921788
0.21900001 211650.92733311 7682.92902545
0.22000001 208457.82622210 6910.37726600
0.22100001 205316.81319331 7520.75522288
0.22200001 202225.26761304 8793.76617796
0.22300001 199182.32293361 6692.52636703
0.22400001 196187.16660803 8607.71234195
0.22500001 193242.33267730 7861.09846504
0.22600001 190342.41677728 7129.27555752
0.22700001 187490.17041127 8335.81337068
0.22800001 184682.98781802 10150.17749048
0.22900001 181920.65186472 6276.26278614
0.23000001 179203.33509707 6209.39585477
0.23100001 176530.82303769 7986.25481192
0.23200001 173899.76091297 7293.35631762
0.23300001 171312.32883556 10222.20714507
0.23400001 168765.52911087 6543.88370077
0.23500001 166259.94718291 7651.28313123
0.23600001 163795.32781440 6405.21659713
0.23700001 161370.43239438 7489.20212165
0.23800001 158984.41694173 7409.46910203
0.23900001 156637.26826463 7330.62450152
0.24000001 154327.41259873 6694.72347520
0.24100001 152055.97566732 8279.44826671
0.24200001 149821.08368181 6553.17451022
0.24300001 147621.60357986 7023.83623058
0.24400001 145457.66430757 6414.68329940
0.24500001 143327.89218089 6346.55936599
0.24600001 141232.78120295 7325.74470754
0.24700001 139171.94906562 5694.91642517
0.24800001 137143.68763293 7171.24376557
0.24900001 135146.57312934 6588.39575174
0.25000001 133182.71135995 5515.76225191
0.25100001 131249.24469449 5457.34385258
0.25200001 129348.40960409 7854.03580273
0.25300001 127476.00877292 6799.57062964
0.25400001 125634.28076482 5766.61375993
0.25500001 123819.90472320 4754.68456632
0.25600001 122035.70561778 5645.37200898
0.25700001 120278.52224720 4654.77903120
0.25800001 118548.81416959 5987.30814292
0.25900001 116847.10183012 5924.14834309
0.26000001 115170.95606013 5410.73177172
0.26100001 113520.46497541 5353.62538155
0.26200001 111896.54187572 4414.31878587
0.26300001 110296.40668192 4367.73791127
0.26400001 108721.71028945 6050.36346390
0.26500001 107170.95475829 5986.56981608
0.26600001 105643.47197035 7192.73612946
0.26700001 104139.48911002 4186.40766032
0.26800001 102658.65920821 5799.18793309
0.26900001 101199.25145719 4508.42686576
0.27000001 99762.27265966  4055.33657552
0.27100001 98346.70237534  4012.54564680
0.27200001 96952.83762382  4367.24077744
0.27300001 95579.56110520  5106.81619153
0.27400001 94224.93925980  4664.13471409
0.27500001 92892.71144698  5384.06181027
0.27600001 91577.80933024  4566.06978930
0.27700001 90283.96249841  4141.32555580
0.27800001 89007.79544548  4469.97169882
0.27900001 87750.71921033  4422.63645751
0.28000001 86511.37228463  4375.74541725
0.28100001 85290.08585083  5411.65620336
0.28200001 84086.78866904  4997.27808712
0.28300001 82900.63681615  3531.56729552
0.28400001 81730.70141223  4192.78518090
0.28500001 80578.26505428  3802.48850789
0.28600001 79441.78152211  3419.96885640
0.28700001 78322.08611822  3721.86570850
0.28800001 77216.65487671  4016.81057681
0.28900001 76128.67473501  4636.23651081
0.29000001 75054.87777724  3276.14557005
0.29100001 73996.98604920  4861.60221356
0.29200001 72953.41323987  4168.19346276
0.29300001 71924.75422738  4757.82271736
0.29400001 70909.76031773  3451.53274685
0.29500001 69910.22716489  3104.01423306
0.29600001 68923.29856464  3991.69302533
0.29700001 67950.77697165  3948.61983674
0.29800001 66991.96253751  3905.96656065
0.29900001 66046.81780379  2972.10694187
0.30000001 65113.77707364  3821.85332626
0.30100001 64194.91568140  3489.63578164
0.30200001 63287.84403388  4314.64897127
0.30300001 62394.27447081  3698.73276573
0.30400001 61512.99617589  3658.48562076
0.30500001 60644.45728375  3340.29686533
0.30600001 59786.92728980  3579.14457165
0.30700001 58942.36923489  3540.07886385
0.30800001 58109.47860703  2693.37446095
0.30900001 57288.56067365  3463.09365668
0.31000001 56479.47690443  2898.24449457
0.31100001 55681.10669175  3127.05109986
0.31200001 54895.16017917  4639.19020639
0.31300001 54119.63197154  2803.93826520
0.31400001 53356.84628635  3025.33332768
0.31500001 52603.40457198  3740.10224215
0.31600002 51862.53667364  2959.27648271
0.31700002 51131.67268404  3658.47135376
0.31800002 50411.39150360  2412.18519766
0.31900002 49702.56400073  3578.58477749
0.32000002 49004.45732005  2831.47767802
0.32100002 48316.33947679  2567.04723795
0.32200002 47639.75094721  3231.40445976
0.32300002 46971.91392975  2511.11863759
0.32400002 46315.75643676  4064.20781977
0.32500002 45669.19565112  2679.86852770
0.32600002 45032.96328951  2650.64034473
0.32700002 44407.10198092  2403.31247301
0.32800002 43792.10927381  2593.36883400
0.32900002 43185.15912016  2137.66547767
0.33000002 42589.50427356  2748.93968351
0.33100002 42002.63476941  2510.07757268
0.33200002 41427.22744925  2690.07714180
0.33300002 40860.70968602  2661.25814788
0.33400002 40304.35491761  2430.35271662
0.33500002 39757.41638333  3606.79298510
0.33600002 39219.82198160  2180.81830456
0.33700002 38691.70877653  2354.00367344
0.33800002 38173.85262482  2329.36859748
0.33900002 37664.84560499  2112.99793851
0.34000002 37165.17725254  2661.39846909
0.34100002 36675.30038772  2257.73159879
0.34200002 36195.28709657  2234.69713118
0.34300002 35723.71442826  3318.01875324
0.34400002 35262.08500356  2007.29428389
0.34500002 34809.38221368  1987.26772470
0.34600002 34366.52242661  2504.28860783
0.34700002 33931.38234885  1771.21824250
0.34800002 33506.49573891  1754.06513501
0.34900002 33089.99864148  2779.56001753
0.35000002 32682.96925473  2064.91009531
0.35100002 32285.47656703  2897.94451391
0.35200002 31895.22682460  2026.62280842
0.35300002 31515.25448539  2677.53614790
0.35400002 31143.36146133  2155.89929927
0.35500002 30780.62781008  2465.52840436
0.35600002 30426.28860671  1792.26061527
0.35700002 30080.43904647  2261.44751463
0.35800002 29743.70675168  2082.20828978
0.35900002 29415.94124736  1588.46090260
0.36000002 29096.38703563  2678.46803543
0.36100002 28784.63025098  1719.30604633
0.36200002 28482.92475446  1861.07439161
0.36300002 28188.04310229  1692.97394891
0.36400002 27902.05354836  2138.69250579
0.36500002 27623.66789101  1971.50127077
0.36600002 27354.20213524  2409.35823820
0.36700002 27092.37008475  2093.69845932
0.36800002 26839.41339718  1634.11776209
0.36900002 26594.15326662  2066.36580670
0.37000002 26356.21816603  1613.39597146
0.37100002 26126.19650340  2186.76275092
0.37200002 25904.75371907  2898.74207848
0.37300002 25690.59036496  2017.73906284
0.37400002 25483.96705426  1433.47321471
0.37500002 25285.13037582  1426.08142075
0.37600002 25094.13579994  2270.51751474
0.37700002 24910.27040009  1977.37735803
0.37800002 24733.73749724  1687.33565199
0.37900002 24565.31817651  1540.24552263
0.38000002 24403.29033225  1394.64810856
0.38100002 24247.80830948  1667.27937834
0.38200002 24100.55757965  1523.03480840
0.38300002 23959.66427724  2070.11509162
0.38400002 23826.00233957  1788.73721038
0.38500002 23698.39404911  2058.20562067
0.38600002 23578.61865948  1505.61276583
0.38700002 23464.53899771  1638.76348124
0.38800002 23356.95130075  1635.45380756
0.38900002 23255.91864163  1360.47130499
0.39000002 23161.85221051  1494.28696615
0.39100002 23073.06453414  1356.69625888
0.39200002 22991.29261616  1626.40411672
0.39300002 22914.82136040  1489.69260722
0.39400002 22845.57783663  1895.04077133
0.39500002 22780.82270394  1894.45330581
0.39600002 22722.19687911  1623.72826591
0.39700002 22668.62489579  1488.64866744
0.39800002 22621.76081111  1624.69493843
0.39900002 22579.22967834  1490.22922938
0.40000002 22542.49462907  1491.52422780
0.40100002 22510.47702752  1628.85819489
0.40200002 22484.13157571  2038.74872722
0.40300002 22462.55549732  1769.60020592
0.40400002 22445.84254530  1636.30199908
0.40500002 22433.50867160  1639.44089140
0.40600002 22426.66169303  1779.89208960
0.40700002 22423.88664246  1646.81031305
0.40800002 22425.24400963  1788.52542073
0.40900002 22430.78814317  1517.44288978
0.41000002 22441.10839351  1383.49439801
0.41100002 22455.26280875  1526.50883807
0.41200002 22472.41753901  1670.59959901
0.41300002 22494.89872558  2095.39991557
0.41400002 22520.18052428  1401.88130406
0.41500002 22549.09833595  2251.30208454
0.41600002 22580.55062042  1553.65485906
0.41700002 22616.88667216  1559.88674769
0.41800002 22656.74560073  1423.97652848
0.41900002 22697.82933307  1572.95964732
0.42000002 22742.57475935  1579.81303052
0.42100002 22791.05784926  1875.47623928
0.42200002 22841.69625456  2318.88911364
0.42300002 22894.75738407  1601.71730249
0.42400002 22950.17551274  1609.38113409
0.42500002 23008.62635048  1911.32668150
0.42600002 23068.10657167  1773.01475511
0.42700002 23130.78393552  1633.49603893
0.42800002 23194.87961897  1492.59057421
0.42900002 23261.90064530  1500.39266272
0.43000002 23330.32652109  1659.13624917
0.43100002 23399.08590416  1971.13908997
0.43200002 23470.67648762  1829.30461213
0.43300002 23542.97995830  2452.23690866
0.43400002 23617.18071768  1695.12322634
0.43500002 23692.03689886  2169.24300126
0.43600002 23768.65645739  1558.03550462
0.43700002 23845.61630860  1723.32277229
0.43800002 23923.03595668  2678.06438708
0.43900002 24002.30135372  1900.98235730
0.44000002 24081.43474129  2070.88307872
0.44100002 24161.52693425  1762.10024282
0.44200002 24241.87802919  1933.04744566
0.44300002 24322.67367475  1619.89014351
0.44400002 24403.54597694  1628.93677116
0.44500002 24484.16353801  1965.58874198
0.44600002 24564.61880156  2305.88087618
0.44700002 24646.17632196  2318.71237826
0.44800002 24726.25435749  2664.50129584
0.44900002 24806.76397566  2009.34797726
0.45000002 24887.32482911  2357.07864627
0.45100002 24966.39441357  2200.53810790
0.45200002 25045.43291457  2042.20469664
0.45300002 25123.35367308  2395.26065271
0.45400002 25200.88386289  1891.95644567
0.45500002 25277.82229556  1901.90343966
0.45600002 25353.34732995  2085.56645020
0.45700002 25428.29036136  1921.61599368
0.45800002 25501.74226358  1931.37454187
0.45900002 25573.99831007  2117.52716043
0.46000002 25645.47614051  2128.06171100
0.46100002 25714.88848530  2316.65441344
0.46200002 25783.52052241  1969.73214366
0.46300002 25850.63668362  1979.12483830
0.46400002 25915.65160877  2169.14014246
0.46500002 25980.20176455  2360.82104624
0.46600002 26041.96087443  2189.08733486
0.46700002 26102.07675234  2748.54881229
0.46800002 26161.18260146  2208.52713989
0.46900002 26217.58423234  2587.67568638
0.47000002 26272.26096032  3526.65711716
0.47100002 26325.24474261  2236.59289934
0.47200002 26376.27024526  2058.53610886
0.47300002 26425.18171198  2442.47966140
0.47400002 26471.31677303  2074.68955042
0.47500002 26515.75921956  2650.51541722
0.47600002 26558.65719832  3040.43522017
0.47700002 26598.21853922  2669.92930352
