# SAXS profile: number of points = 501, q_min = 0, q_max = 0.5, delta_q = 0.001
#    q    intensity    error
0.00000000 1682732.95097188 302.89193117
0.00100000 1682651.32338740 555.27494990
0.00200000 1682406.38273284 1059.91605468
0.00300000 1681998.34423312 1211.03885099
0.00400000 1681427.07791245 2269.92664143
0.00500000 1680693.10101046 2268.93577617
0.00600000 1679796.29727962 2998.43651272
0.00700000 1678737.27059380 3021.72721265
0.00800000 1677515.75789204 2491.11100564
0.00900000 1676133.09194323 3268.45966901
0.01000000 1674588.55002746 3315.68547222
0.01100000 1672883.50185825 3312.30947790
0.01200000 1671017.80276976 5213.57577322
0.01300000 1668992.60341182 3855.37308392
0.01400000 1666807.94174730 4500.38164222
0.01500000 1664465.20410577 5193.13166805
0.01600000 1661963.83957840 4661.80877842
0.01700000 1659306.13193297 4928.13943291
0.01800000 1656491.82505906 5665.20229662
0.01900000 1653521.82309638 6448.73540106
0.02000000 1650397.17024322 6238.50158572
0.02100000 1647119.89445911 6522.59507778
0.02200000 1643688.47367612 7939.01568854
0.02300000 1640106.25451886 7675.69762053
0.02400000 1636372.65442726 7977.31705408
0.02500000 1632490.32183707 8276.72630972
0.02600000 1628459.07548329 7254.78551310
0.02700000 1624281.21235904 8186.37768523
0.02800000 1619956.40256470 9865.53494405
0.02900000 1615487.28041770 10904.53964349
0.03000000 1610875.17749381 8239.62691162
0.03100000 1606120.53242481 10793.13047452
0.03200000 1601224.44537009 11889.09205446
0.03300000 1596191.04607442 8140.57471026
0.03400000 1591018.26360723 12529.26940401
0.03500000 1585709.39948732 10275.39738318
0.03600000 1580265.89756201 10524.57136414
0.03700000 1574689.03043858 10770.87346633
0.03800000 1568980.72323355 9178.53765570
0.03900000 1563142.96650283 11254.62988002
0.04000000 1557175.45772728 11491.95541055
0.04100000 1551082.34431835 12703.36498898
0.04200000 1544864.27551587 16939.43756690
0.04300000 1538522.35833655 11169.67284000
0.04400000 1532059.95780446 12409.68623455
0.04500000 1525478.38740001 12630.96163457
0.04600000 1518777.63660322 12848.85940297
0.04700000 1511962.28259212 13063.35472915
0.04800000 1505032.09611347 14380.58234747
0.04900000 1497991.46141875 12358.43013196
0.05000000 1490839.78352828 13685.90985009
0.05100000 1483581.34289999 21986.67652601
0.05200000 1476214.41923666 11735.90517984
0.05300000 1468745.34734369 15465.88922852
0.05400000 1461174.02901996 15671.09219204
0.05500000 1453502.83187813 17093.19410027
0.05600000 1445733.03863458 16069.32347428
0.05700000 1437869.51109305 17513.25146261
0.05800000 1429911.17419256 16451.12882723
0.05900000 1421860.88786863 17915.44802390
0.06000000 1413722.15825652 12935.55835238
0.06100000 1405496.35089877 15685.34000903
0.06200000 1397185.82374495 14523.74731672
0.06300000 1388793.24948016 13332.41581837
0.06400000 1380317.97749280 17495.53118293
0.06500000 1371765.93943446 13580.48343567
0.06600000 1363137.89254020 16439.44375321
0.06700000 1354435.55511713 19341.34063223
0.06800000 1345661.84682607 16713.12091991
0.06900000 1336819.73807714 18247.59027909
0.07000000 1327909.54490927 18384.90851021
0.07100000 1318934.62010768 15668.94402078
0.07200000 1309897.30298616 15777.71375360
0.07300000 1300800.51110395 15882.77498478
0.07400000 1291645.86397757 17437.21998088
0.07500000 1282435.47954437 21929.64772811
0.07600000 1273170.35729341 16175.63014774
0.07700000 1263856.07903152 23659.38690882
0.07800000 1254492.30145701 17838.88136329
0.07900000 1245081.55165224 19423.27311680
0.08000000 1235627.63435902 16514.16410791
0.08100000 1226131.90583035 15081.42314931
0.08200000 1216595.47099534 19690.59862204
0.08300000 1207022.29684371 19771.02615019
0.08400000 1197413.75685407 21373.83656310
0.08500000 1187772.33516902 18386.71661158
0.08600000 1178099.93120790 18449.04578893
0.08700000 1168400.56249018 24676.62103855
0.08800000 1158673.16768474 21655.60252106
0.08900000 1148923.49554959 15510.46791844
0.09000000 1139151.22699741 23324.12246843
0.09100000 1129359.38829242 20260.70837784
0.09200000 1119549.83489723 21864.80930290
0.09300000 1109726.92880508 21906.01060402
0.09400000 1099888.11560190 17240.74702233
0.09500000 1090039.06699729 20405.53229330
0.09600000 1080180.88172700 17288.29582473
0.09700000 1070317.86326298 22027.14266151
0.09800000 1060449.85284646 23621.52158278
0.09900000 1050579.39909126 18910.43007286
0.10000000 1040707.88726323 26803.43289695
0.10100000 1030837.21882512 23657.71528470
0.10200000 1020970.58599592 17351.39592515
0.10300000 1011108.93160282 17350.63008249
0.10400000 1001255.36232197 25231.63631754
0.10500000 991412.98305931 25221.54747569
0.10600001 981578.34127005 31508.66623736
0.10700001 971759.75123170 18891.01045291
0.10800001 961954.93162437 18873.55664669
0.10900001 952168.10355324 18852.92933768
0.11000001 942399.10738746 17260.04046422
0.11100001 932651.21606101 26636.51998457
0.11200001 922925.14006122 23465.37279074
0.11300001 913223.24709353 18739.34191262
0.11400001 903547.53163812 18703.43478555
0.11500001 893899.93490759 17109.24555977
0.11600001 884280.93123000 26382.52282564
0.11700001 874693.92795451 17030.29157931
0.11800001 865137.57506577 21619.78901915
0.11900001 855615.06171216 23101.60775435
0.12000001 846127.44318190 30714.42763430
0.12100001 836679.66932085 22966.85800478
0.12200001 827268.48671056 19842.03558854
0.12300001 817898.85406043 28904.54686432
0.12400001 808569.21351566 18192.80816130
0.12500001 799282.16484833 25680.93716667
0.12600001 790040.73687614 15050.27674671
0.12700001 780844.45032741 19489.87839866
0.12800001 771694.73547614 16425.52321873
0.12900001 762593.41235719 17844.68669022
0.13000001 753541.72000409 17768.51459521
0.13100001 744539.74289561 16216.07636465
0.13200001 735590.23821867 16142.52853867
0.13300001 726693.75733064 18988.50877422
0.13400001 717850.15811502 21804.69958074
0.13500001 709063.10347464 24590.30958789
0.13600001 700332.12641206 21587.73881453
0.13700001 691658.21753911 17180.79093380
0.13800001 683040.78455962 18513.82133852
0.13900001 674484.49404218 15580.59254713
0.14000001 665986.88774296 15494.18567405
0.14100001 657551.48601148 16807.01677512
0.14200001 649177.03745179 13924.84811011
0.14300001 640866.44688784 15226.98749628
0.14400001 632616.04155104 13759.39955276
0.14500001 624432.88707811 15042.58895930
0.14600001 616313.50098334 19025.59867288
0.14700001 608261.03414947 18904.75383323
0.14800001 600272.62183463 16099.31247715
0.14900001 592351.87886411 15993.50148392
0.15000001 584498.25852800 15886.66341637
0.15100001 576712.80724487 17093.76841331
0.15200001 568996.94793736 16976.02474276
0.15300001 561349.92549028 15560.62066888
0.15400001 553770.62398403 15450.20113827
0.15500001 546263.08743646 12782.55684926
0.15600001 538823.84553296 16496.09280952
0.15700001 531458.32972746 13855.11930991
0.15800001 524160.90709074 13751.36204657
0.15900001 516936.90072108 14887.78344348
0.16000001 509782.34852226 14773.49315752
0.16100001 502702.12974870 14658.79479543
0.16200001 495693.36192814 18179.55490690
0.16300001 488756.69466143 12023.41525627
0.16400001 481893.41531786 14312.23511062
0.16500001 475101.80726504 14196.04267129
0.16600001 468383.75260514 14079.61626805
0.16700001 461737.63086798 13962.94661670
0.16800001 455164.68357841 16153.79538292
0.16900001 448666.13337128 19449.67780002
0.17000001 442239.22355816 12477.78028189
0.17100001 435886.08275595 16868.79219922
0.17200001 429605.49092278 12263.08931749
0.17300001 423398.11202405 12155.76037026
0.17400001 417264.14761353 13143.82127056
0.17500001 411202.08611290 14112.45626189
0.17600001 405211.44212543 13985.87358550
0.17700001 399296.22462164 15991.81455140
0.17800001 393451.34685972 10564.16916215
0.17900001 387678.16889229 13607.50437085
0.18000001 381978.68673118 11407.79401807
0.18100001 376351.03306526 16439.01390081
0.18200001 370792.40012205 13231.72742339
0.18300001 365306.11431452 14115.42892392
0.18400001 359890.25217263 10985.65046654
0.18500001 354545.64353410 11870.18870629
0.18600001 349271.26666755 12736.17734073
0.18700001 344065.91865955 9702.65936460
0.18800001 338928.70157065 11530.35497220
0.18900001 333864.15456158 11418.15462548
0.19000001 328864.08625178 11306.34781955
0.19100001 323935.18344641 11195.20046888
0.19200001 319072.05679564 10160.85012877
0.19300001 314278.46701575 10974.60458677
0.19400001 309549.96933547 14486.93924946
0.19500001 304888.57305552 11652.84181284
0.19600001 300291.88201482 12423.07574602
0.19700001 295762.62412502 9662.56538679
0.19800001 291297.06377109 9564.73954094
0.19900001 286896.01938105 13771.00958111
0.20000001 282557.54588060 13630.57665748
0.20100001 278283.92018381 11804.80445212
0.20200001 274071.70318682 9180.03213212
0.20300001 269922.13385355 9911.54122357
0.20400001 265834.22609656 8991.84312272
0.20500001 261806.85125822 8089.83208626
0.20600001 257839.36979049 12809.46049667
0.20700001 253932.14623816 11091.75667198
0.20800001 250083.41207921 10976.16147500
0.20900001 246295.59920178 10085.80526408
0.21000001 242562.49026047 8444.81349762
0.21100001 238888.26454253 9115.97660589
0.21200001 235269.24710530 9020.22336044
0.21300001 231706.47206085 8181.55591526
0.21400001 228199.23671095 7359.42573186
0.21500001 224747.52068786 8010.00201601
0.21600001 221348.18856653 8645.86065417
0.21700001 218002.96389989 8554.43670788
0.21800001 214710.23769609 7758.55480598
0.21900001 211468.50823770 7676.30721198
0.22000001 208277.86448368 9666.17614773
0.22100001 205139.19989146 9563.58995114
0.22200001 202049.93404389 7434.42767468
0.22300001 199009.48008052 8024.06261627
0.22400001 196016.84904255 6615.56896801
0.22500001 193074.59492037 8508.79780050
0.22600001 190177.32813164 9713.30749365
0.22700001 187327.68318754 7047.26777477
0.22800001 184523.03724067 8239.87661765
0.22900001 181763.50006277 10033.34567795
0.23000001 179048.82403694 6824.44625091
0.23100001 176379.13218422 6751.79349932
0.23200001 173750.82506666 7894.36911026
0.23300001 171166.21889288 7209.52148074
0.23400001 168622.35549088 7132.72597461
0.23500001 166119.63097013 8232.88930026
0.23600001 163657.93128348 5818.03973230
0.23700001 161236.06109898 6331.74041883
0.23800001 158853.10100589 6833.86072851
0.23900001 156508.85507288 6197.75095404
0.24000001 154202.06797272 5574.40502089
0.24100001 151933.73008075 7721.27252793
0.24200001 149701.91480930 8730.61608465
0.24300001 147505.61871376 5398.70590030
0.24400001 145344.80244233 8012.13261364
0.24500001 143218.35024683 8455.61179856
0.24600001 141126.33204059 6274.47701934
0.24700001 139068.72884626 5173.35695781
0.24800001 137043.73971189 6654.15909650
0.24900001 135049.90356040 8609.43175927
0.25000001 133089.28779686 5511.89311486
0.25100001 131159.16259445 6940.94321287
0.25200001 129261.68386533 5886.57736172
0.25300001 127392.61976636 5339.02494700
0.25400001 125554.27229444 7203.67671371
0.25500001 123743.28944152 5702.09104724
0.25600001 121962.43715109 6112.14782701
0.25700001 120208.70771876 5117.28492970
0.25800001 118482.34101147 5523.64699930
0.25900001 116784.07592967 4554.57917676
0.26000001 115111.32035858 4957.26924580
0.26100001 113464.39703718 6242.81142037
0.26200001 111843.98431077 5294.69446780
0.26300001 110247.20251567 5675.52625406
0.26400001 108676.03336206 5615.83428972
0.26500001 107128.74389387 5129.32450035
0.26600001 105604.71986135 5498.30999976
0.26700001 104104.26402653 5440.48909547
0.26800001 102626.91355125 4140.99615775
0.26900001 101170.93108925 6555.87664482
0.27000001 99737.52512484  4459.76364700
0.27100001 98325.43477599  4412.84572157
0.27200001 96934.98705572  4763.38548934
0.27300001 95565.21366995  5498.82265480
0.27400001 94214.09021508  4274.96454582
0.27500001 92885.27903804  6152.72117466
0.27600001 91573.75545573  3804.88971926
0.27700001 90283.45990551  4894.26659311
0.27800001 89010.71366379  4097.60839744
0.27900001 87757.11072666  4054.37870746
0.28000001 86521.10147151  4740.92397951
0.28100001 85303.31598320  5412.49565530
0.28200001 84103.43618279  4284.22924192
0.28300001 82920.69410127  5651.87477745
0.28400001 81754.13570773  4193.98736031
0.28500001 80604.99158283  3803.74973283
0.28600001 79471.84547324  3763.38942051
0.28700001 78355.51879158  4061.95028642
0.28800001 77253.29662733  3683.82362404
0.28900001 76168.60381977  3313.33442299
0.29000001 75098.11408808  3605.83611862
0.29100001 74043.42945081  5188.96378153
0.29200001 73003.13526909  3529.33674165
0.29300001 71977.64537961  4443.90003609
0.29400001 70965.84097236  3768.28633401
0.29500001 69969.34213574  3106.63893789
0.29600001 68985.63357768  3073.31012137
0.29700001 68016.02482613  3648.37974438
0.29800001 67060.41719845  3308.42583910
0.29900001 66118.19882619  4165.44672324
0.30000001 65188.08969675  3826.21510588
0.30100001 64272.33236039  4076.15151126
0.30200001 63368.09842777  3456.09625186
0.30300001 62477.56831015  3703.67042476
0.30400001 61599.04074141  3099.97187207
0.30500001 60733.35143398  2787.66096279
0.30600001 59878.65474184  3033.15339955
0.30700001 59036.76970771  3272.99866755
0.30800001 58206.54240458  3777.02271545
0.30900001 57388.37034513  2935.41528213
0.31000001 56581.94727741  3167.45755855
0.31100001 55786.07680557  2871.86736992
0.31200001 55002.84094297  3615.33690635
0.31300001 54229.75257947  4086.75434788
0.31400001 53469.32627460  3536.99610053
0.31500001 52718.43062622  3248.50984900
0.31600002 51979.85949357  2718.80667954
0.31700002 51251.38728788  3667.03693408
0.31800002 50533.43097327  2901.62974387
0.31900002 49826.76306196  2870.02168826
0.32000002 49130.84228792  3311.91023545
0.32100002 48444.89835334  2339.88870126
0.32200002 47770.39237367  2777.37074411
0.32300002 47104.59843181  2976.06866984
0.32400002 46450.41740971  3170.24113833
0.32500002 45805.76490270  2463.89221079
0.32600002 45171.46541995  2658.79258052
0.32700002 44547.52376870  2630.08592785
0.32800002 43934.29277778  3252.23617688
0.32900002 43329.07764592  2359.26838954
0.33000002 42735.10193627  3182.69686742
0.33100002 42149.91756228  2518.87919280
0.33200002 41576.01575948  3322.75533685
0.33300002 41011.04971878  3081.98053231
0.33400002 40456.24357915  2236.21896974
0.33500002 39910.72058695  2212.65045412
0.33600002 39374.39104137  2587.48822982
0.33700002 38847.60608396  2757.40321042
0.33800002 38331.12180157  2923.70645387
0.33900002 37823.16988540  2700.57445771
0.34000002 37324.79815494  2100.07986764
0.34100002 36835.94179947  2834.52585571
0.34200002 36356.88580771  2805.84279509
0.34300002 35886.30874684  2222.08034284
0.34400002 35425.66776328  2566.58975100
0.34500002 34973.83578074  2178.17059558
0.34600002 34531.73668686  2696.06546951
0.34700002 34097.37185003  1957.87118436
0.34800002 33673.12680436  1939.06709887
0.34900002 33257.31217452  2269.81166341
0.35000002 32850.82358532  2421.43432116
0.35100002 32453.78854216  1713.56011618
0.35200002 32064.09564540  2207.13212829
0.35300002 31684.48433987  1850.69081795
0.35400002 31312.94087297  1834.15559851
0.35500002 30950.50835360  1818.03294680
0.35600002 30596.37903270  2293.81064473
0.35700002 30250.81391383  1624.46878412
0.35800002 29914.05760905  1771.95928640
0.35900002 29586.36086778  2236.72898755
0.36000002 29266.81895849  2060.23781817
0.36100002 28955.02340106  1886.70941418
0.36200002 28653.18457196  2340.24896076
0.36300002 28358.23174602  1858.03143201
0.36400002 28071.97059611  1844.32855553
0.36500002 27793.24745208  2288.77403609
0.36600002 27523.53869399  1666.68796456
0.36700002 27261.27020546  1956.26884261
0.36800002 27007.90926577  1793.86541841
0.36900002 26762.19087689  2079.42232963
0.37000002 26523.72840086  1918.85922206
0.37100002 26293.05106341  1613.86755072
0.37200002 26071.00171974  1458.67261532
0.37300002 25856.09065027  2030.73745587
0.37400002 25648.78441683  1731.29303015
0.37500002 25449.12223901  1722.39667473
0.37600002 25257.16156865  1856.78032068
0.37700002 25072.43492572  1421.60712763
0.37800002 24894.93731612  1839.86042951
0.37900002 24725.50170573  1550.28903039
0.38000002 24562.41101271  1824.86441264
0.38100002 24405.90499693  1817.99594935
0.38200002 24257.52556653  1672.31389178
0.38300002 24115.30224550  1389.04147514
0.38400002 23980.44062631  1523.35756295
0.38500002 23851.53858900  1657.20497967
0.38600002 23730.44377645  1790.81802443
0.38700002 23614.99274131  1649.27117119
0.38800002 23505.96946046  1783.04539790
0.38900002 23403.51965624  1642.92715770
0.39000002 23307.94829625  1503.71235557
0.39100002 23217.67501553  1911.27909783
0.39200002 23134.24204423  1636.51635974
0.39300002 23056.18146840  2316.45466188
0.39400002 22985.27589461  1770.44095966
0.39500002 22918.73404675  1497.51015356
0.39600002 22858.44340743  1905.70851717
0.39700002 22803.04484215  1497.47602573
0.39800002 22754.41352241  1634.22205661
0.39900002 22710.00546951  1907.64054982
0.40000002 22671.41165850  1636.42257104
0.40100002 22637.52345097  1774.55554740
0.40200002 22609.23828306  2050.09277845
0.40300002 22585.68491095  1779.30034159
0.40400002 22566.89648171  1508.03292884
0.40500002 22552.57716439  2060.17802158
0.40600002 22543.62291606  1513.91706866
0.40700002 22538.77351082  1517.31030464
0.40800002 22538.01823227  2074.06122610
0.40900002 22541.37729423  1663.55372314
0.41000002 22549.63535714  1668.22210276
0.41100002 22561.48343545  1533.72971661
0.41200002 22576.50286070  1398.61441849
0.41300002 22596.71155304  1543.58143933
0.41400002 22619.83776031  1830.51045749
0.41500002 22646.36764620  1413.13340808
0.41600002 22675.60825085  1418.35936330
0.41700002 22709.62027546  1851.06123636
0.41800002 22747.20993455  1715.59465456
0.41900002 22785.92833616  1866.16761916
0.42000002 22828.35764124  1585.77193869
0.42100002 22874.41682771  1737.54078457
0.42200002 22922.67133114  1890.77663434
0.42300002 22973.38707466  1607.21823590
0.42400002 23026.42566530  1614.72817629
0.42500002 23082.41677392  1769.95980210
0.42600002 23139.49562580  2223.12714759
0.42700002 23199.74589196  1638.36613253
0.42800002 23261.46368686  1796.25031102
0.42900002 23325.96875425  1654.97756154
0.43000002 23392.05345641  1663.52596038
0.43100002 23458.28778383  1976.12625655
0.43200002 23527.53158890  2444.98119858
0.43300002 23597.33098619  3379.60990399
0.43400002 23669.04098775  1698.84549740
0.43500002 23741.54235859  2484.31511013
0.43600002 23815.70791556  2029.45564620
0.43700002 23890.25980546  1883.50817232
0.43800002 23965.20702939  1578.10895767
0.43900002 24042.02486872  1745.45108819
0.44000002 24118.70494715  1595.45240786
0.44100002 24196.42574195  1925.06772326
0.44200002 24274.36762147  1774.33498538
0.44300002 24352.78494607  2108.46422055
0.44400002 24431.27436281  1956.94516920
0.44500002 24509.48707303  2623.49562063
0.44600002 24587.52143643  2967.46810279
0.44700002 24666.79540105  2154.89134836
0.44800002 24744.51699941  1666.54329889
0.44900002 24822.79540998  1675.53876958
0.45000002 24900.95207289  1853.00443632
0.45100002 24977.72119318  1693.48957716
0.45200002 25054.48488430  2213.18802714
0.45300002 25130.10755944  2567.04060886
0.45400002 25205.46204223  2236.35472568
0.45500002 25280.12983324  2074.99315505
0.45600002 25353.45519164  2085.57532291
0.45700002 25426.17208057  1921.45591519
0.45800002 25497.47859513  2106.60178137
0.45900002 25567.56642988  2469.82703418
0.46000002 25637.00032620  1950.07852224
0.46100002 25704.31074552  2137.57058291
0.46200002 25770.86348628  1968.76520934
0.46300002 25835.93869823  1798.18141862
0.46400002 25898.93506788  1987.09588726
0.46500002 25961.49227231  1814.70839584
0.46600002 26021.29791265  2369.62960673
0.46700002 26079.45047831  1830.77751035
0.46800002 26136.65288963  2022.58497973
0.46900002 26191.09959540  3139.00343529
0.47000002 26244.07401941  2781.21587603
0.47100002 26295.19769396  2047.87009347
0.47200002 26344.44839555  2056.05257248
0.47300002 26391.56062665  1876.44004949
0.47400002 26436.03943513  2636.99505864
0.47500002 26478.76027336  2079.64193044
0.47600002 26519.97564014  3036.00695518
0.47700002 26557.91571254  2475.46344090
