# SAXS profile: number of points = 501, q_min = 0, q_max = 0.5, delta_q = 0.001
#    q    intensity    error
0.00000000 1646666.22097351 419.89988635
0.00100000 1646585.56507209 592.77081750
0.00200000 1646343.53078511 889.02553477
0.00300000 1645940.34268686 1086.32066487
0.00400000 1645375.87907838 1851.04793430
0.00500000 1644650.62430066 1924.24130660
0.00600000 1643764.49253802 2416.33390240
0.00700000 1642718.04552462 2365.51408387
0.00800000 1641511.08425831 2880.85207450
0.00900000 1640144.89083315 2706.23918556
0.01000000 1638618.75625861 3785.20949040
0.01100000 1636934.00957900 3241.12948008
0.01200000 1635090.54073159 3507.26936364
0.01300000 1633089.51221544 5487.18100305
0.01400000 1630930.90275189 6238.31097958
0.01500000 1628616.17866897 4690.41480343
0.01600000 1626144.76587202 4561.33627218
0.01700000 1623518.77526680 6136.90124580
0.01800000 1620738.22848631 5081.01457494
0.01900000 1617803.72717628 6309.43482069
0.02000000 1614716.58505969 5086.35747302
0.02100000 1611478.67707895 5849.66786301
0.02200000 1608088.46703897 7212.27710234
0.02300000 1604549.40408372 6354.01592940
0.02400000 1600860.70663274 6603.55071597
0.02500000 1597025.15629562 6851.23823341
0.02600000 1593042.55681813 7097.00491523
0.02700000 1588915.22570857 7340.78867899
0.02800000 1584642.79434659 11029.11435444
0.02900000 1580227.86986586 7822.12831498
0.03000000 1575671.68105770 9524.93574981
0.03100000 1570974.79540432 9048.81523789
0.03200000 1566138.23811427 9302.86156287
0.03300000 1561166.16103386 11146.72690365
0.03400000 1556056.68034774 10620.08733339
0.03500000 1550812.83456207 9211.82866268
0.03600000 1545435.76063360 9434.88575469
0.03700000 1539927.44140643 14044.13891513
0.03800000 1534289.35047600 12565.83036194
0.03900000 1528523.40108349 11922.48308058
0.04000000 1522629.53247699 14046.25808799
0.04100000 1516611.70001701 14331.98122969
0.04200000 1510470.66199551 11691.04346623
0.04300000 1504207.41502077 14891.65409995
0.04400000 1497825.40747183 10110.32196998
0.04500000 1491325.90127498 12348.17903631
0.04600000 1484708.81782636 13607.35694794
0.04700000 1477978.72854681 12769.73680854
0.04800000 1471135.62527229 11894.13208374
0.04900000 1464183.34016681 12079.51311865
0.05000000 1457121.69329671 13376.37776735
0.05100000 1449954.93067196 12440.61388470
0.05200000 1442681.40724562 16057.04481092
0.05300000 1435307.22785494 15113.78581388
0.05400000 1427832.34580541 17669.42610334
0.05500000 1420258.95197271 16702.24605435
0.05600000 1412588.53451657 12077.63253371
0.05700000 1404825.72853551 15888.57973139
0.05800000 1396970.03308175 14835.82244405
0.05900000 1389023.34659442 13751.33177355
0.06000000 1380989.91409967 15163.26996522
0.06100000 1372870.80799172 15321.23893317
0.06200000 1364668.34351520 12896.11644903
0.06300000 1356385.64937667 15625.56341140
0.06400000 1348021.28650162 17086.17060547
0.06500000 1339581.40450460 19892.78478743
0.06600000 1331067.11197068 17390.39263157
0.06700000 1322479.50997457 16187.14995963
0.06800000 1313822.05155527 20397.08830516
0.06900000 1305097.74067238 15073.87961051
0.07000000 1296306.25529885 13805.66226543
0.07100000 1287451.65902369 18075.82213932
0.07200000 1278535.66285951 15399.96278058
0.07300000 1269561.34003637 16910.55784164
0.07400000 1260530.68370354 18435.26211312
0.07500000 1251445.24515028 27106.30528049
0.07600000 1242306.49979542 17218.36889437
0.07700000 1233119.46440037 18755.74793296
0.07800000 1223884.29189547 15953.33249301
0.07900000 1214603.00246438 18947.80772717
0.08000000 1205279.97151091 21966.22851125
0.08100000 1195915.82280421 14709.76531065
0.08200000 1186512.20874692 17726.49323050
0.08300000 1177073.05465837 20763.56965865
0.08400000 1167599.52082016 16375.58404815
0.08500000 1158094.18226255 16433.35721777
0.08600000 1148558.81282184 16487.56253217
0.08700000 1138997.06419680 19545.19053941
0.08800000 1129408.39222251 16585.36301870
0.08900000 1119798.86286578 18140.74243049
0.09000000 1110167.14466744 25761.42980216
0.09100000 1100516.86281965 18224.56010450
0.09200000 1090849.47353947 16739.08595798
0.09300000 1081170.36805174 16768.95319649
0.09400000 1071475.60771675 18322.23375306
0.09500000 1061771.61905260 19876.36564291
0.09600000 1052059.05162622 16838.20591280
0.09700000 1042342.43968775 24515.89533402
0.09800000 1032621.67551798 19934.76238316
0.09900000 1022899.23068715 29152.62944541
0.10000000 1013176.45398934 19954.51119972
0.10100000 1003455.19712607 16888.15176191
0.10200000 993738.74341604 24565.22289270
0.10300000 984027.86258834 15350.83537849
0.10400000 974325.70516851 19949.31975184
0.10500000 964635.22002349 21472.78100800
0.10600001 954953.34338962 24523.20301215
0.10700001 945287.60251832 16845.02586956
0.10800001 935636.35819661 22946.48276467
0.10900001 926003.90543737 18334.87819060
0.11000001 916389.65234660 18309.46611570
0.11100001 906796.61073761 19804.43891077
0.11200001 897226.44518178 15207.98896178
0.11300001 887680.47289007 18215.20416129
0.11400001 878161.53444992 18177.94461901
0.11500001 868670.54885424 15114.86826179
0.11600001 859208.99819810 22618.67794271
0.11700001 849779.61040252 16545.20979373
0.11800001 840381.29735766 18000.96823722
0.11900001 831017.33124996 17949.97520047
0.12000001 821688.54653911 16405.01260441
0.12100001 812399.33931654 17840.29033181
0.12200001 803147.74209563 16299.88419374
0.12300001 793937.14673018 16243.95478742
0.12400001 784767.47578045 19128.70812344
0.12500001 775640.02525855 17591.51660178
0.12600001 766558.96926334 17523.53886313
0.12700001 757522.80581512 17453.32626849
0.12800001 748533.39831877 17380.94632811
0.12900001 739592.66058427 20190.88058559
0.13000001 730701.71102485 15794.11822826
0.13100001 721860.86472131 21439.26869282
0.13200001 713071.77558228 14225.78259347
0.13300001 704336.01229723 14157.15451458
0.13400001 695653.75139497 19721.78478184
0.13500001 687027.48784401 22424.57826051
0.13600001 678457.21757506 16730.75577427
0.13700001 669944.20086174 16641.41473410
0.13800001 661487.96723175 15171.22724387
0.13900001 653092.02587342 17829.41314715
0.14000001 644755.24473339 15000.23147614
0.14100001 636480.39258435 16268.43960172
0.14200001 628266.61515811 21562.11124921
0.14300001 620116.06715511 14733.95845057
0.14400001 612026.27581396 14642.72933954
0.14500001 604002.81471633 13227.66226626
0.14600001 596043.48117574 17085.58719390
0.14700001 588150.60129358 16974.02715411
0.14800001 580321.33341243 18158.25537916
0.14900001 572559.95889930 14170.85965135
0.15000001 564865.39577990 12794.20181808
0.15100001 557238.28462481 15246.04018672
0.15200001 549680.84918483 13876.69369247
0.15300001 542191.68642825 13777.09140227
0.15400001 534770.30302232 17406.77418482
0.15500001 527420.00701210 13575.79162117
0.15600001 520137.94450036 13474.17408819
0.15700001 512929.14814846 19450.27421578
0.15800001 505787.97678780 13269.34819732
0.15900001 498720.00037285 17953.92086086
0.16000001 491720.88099301 16625.08377112
0.16100001 484795.81242460 15314.70043741
0.16200001 477941.84642933 14022.81443620
0.16300001 471159.34898461 12749.57258540
0.16400001 464449.49336499 16093.17570485
0.16500001 457811.05439299 12539.44537183
0.16600001 451245.37851437 12434.06699201
0.16700001 444751.72884001 15690.84173431
0.16800001 438330.73089144 11111.68455275
0.16900001 431982.98354715 16523.34990088
0.17000001 425706.49764477 12011.30939822
0.17100001 419503.13209181 12987.81758286
0.17200001 413372.24389797 13945.11330643
0.17300001 407313.29738578 11693.96532019
0.17400001 401327.83263178 10534.85610410
0.17500001 395413.22483018 17746.14636849
0.17600001 389569.32318177 14480.29242656
0.17700001 383800.38849172 12296.96502807
0.17800001 378101.13564179 11167.21756863
0.17900001 372473.20260705 15085.16541811
0.18000001 366917.54780185 11954.17427204
0.18100001 361433.54550562 13813.99076175
0.18200001 356018.04571272 11727.23497975
0.18300001 350673.58058554 11614.30953765
0.18400001 345399.61012583 10543.32359716
0.18500001 340195.38471281 12338.88718645
0.18600001 335061.07733278 12218.00276216
0.18700001 329995.05136874 10236.44697708
0.18800001 324996.45497797 9213.64993393
0.18900001 320069.48956488 9121.98088359
0.19000001 315206.32023431 9933.72765154
0.19100001 310413.55016113 11621.88386717
0.19200001 305685.91702221 9734.56848754
0.19300001 301026.72595284 15767.78065048
0.19400001 296431.92645940 9537.69768452
0.19500001 291903.34490478 9440.15462032
0.19600001 287438.91098225 9343.20224300
0.19700001 283040.75922601 10928.20423016
0.19800001 278705.50033361 9983.23149375
0.19900001 274434.16526179 8233.02534695
0.20000001 270224.13600260 11406.16131974
0.20100001 266078.44878317 8062.17737917
0.20200001 261993.17661293 12764.30816787
0.20300001 257969.62428731 7893.87087629
0.20400001 254007.31395092 7810.72527317
0.20500001 250104.11219818 10819.50440510
0.20600001 246259.99967062 9940.28535656
0.20700001 242475.39725605 11347.84912799
0.20800001 238748.16446622 9730.18190277
0.20900001 235081.10186331 8886.06607049
0.21000001 231467.84748033 8791.14926288
0.21100001 227912.58151329 9421.90656516
0.21200001 224411.46140611 10037.92514323
0.21300001 220965.74527039 8511.60091021
0.21400001 217574.59202295 11928.52757160
0.21500001 214238.21941743 10411.97795594
0.21600001 210953.10292166 11673.09050206
0.21700001 207721.16456714 9509.47536349
0.21800001 204540.77277702 7391.08117375
0.21900001 201410.87490153 6646.55918601
0.22000001 198330.61456459 7232.12620205
0.22100001 195301.59765572 13007.08701889
0.22200001 192320.90043661 8363.07475093
0.22300001 189388.04804066 10181.50194410
0.22400001 186502.35869144 6923.90039383
0.22500001 183665.76746320 8094.15075485
0.22600001 180873.34838370 8622.23292518
0.22700001 178127.51221653 8528.74568824
0.22800001 175426.13323916 7833.65435025
0.22900001 172768.25346773 10132.85854507
0.23000001 170154.70717885 7075.03305909
0.23100001 167585.07627062 6998.35311603
0.23200001 165055.84500901 6922.44246707
0.23300001 162569.37561759 8559.27803107
0.23400001 160122.99748186 6208.76952100
0.23500001 157716.40566680 6699.79322960
0.23600001 155349.95100340 8836.30563100
0.23700001 153022.72093276 6009.20253525
0.23800001 150733.13394134 5944.16141813
0.23900001 148481.41336220 6948.93047403
0.24000001 146266.08548917 5816.27116459
0.24100001 144088.31350076 5753.44663023
0.24200001 141946.18913004 6208.72660623
0.24300001 139838.60857318 6653.52131064
0.24400001 137765.83187608 6075.47347313
0.24500001 135726.18440746 6009.95572986
0.24600001 133720.36882866 6936.07585925
0.24700001 131747.56281761 5881.21148239
0.24800001 129806.68264214 5817.93579125
0.24900001 127896.16698205 6714.54908421
0.25000001 126017.95670282 5219.03392375
0.25100001 124169.12569393 5632.31180794
0.25200001 122351.91502541 5107.58093437
0.25300001 120562.61666652 7808.84105093
0.25400001 118802.92503068 4998.63330716
0.25500001 117069.96562890 7642.32771783
0.25600001 115365.90271700 7115.76921625
0.25700001 113688.01835728 5279.67182231
0.25800001 112037.05047403 6528.95942529
0.25900001 110412.84073490 4306.10099240
0.26000001 108813.64075182 5964.07593180
0.26100001 107238.91530141 4214.48957076
0.26200001 105690.47552781 5837.28523960
0.26300001 104164.40901263 5362.38402971
0.26400001 102663.39581914 4488.95719460
0.26500001 101185.18521707 4844.74689744
0.26600001 99729.47895065  4393.58240307
0.26700001 98296.39574739  5532.12141444
0.26800001 96885.63188057  4300.26897451
0.26900001 95495.61186503  5414.60144897
0.27000001 94127.27056355  4208.90110242
0.27100001 92779.28455053  4163.93448768
0.27200001 91452.36825838  5991.95945185
0.27300001 90145.06036649  5186.94701896
0.27400001 88855.99806323  4764.90312164
0.27500001 87588.19007025  4351.38148862
0.27600001 86336.80876193  3587.29457383
0.27700001 85105.89081863  3903.80739660
0.27800001 83892.03648276  4213.05827156
0.27900001 82696.42937053  4515.22525733
0.28000001 81517.79752378  4466.76792672
0.28100001 80356.55729830  3738.99078805
0.28200001 79212.48451881  3362.57012697
0.28300001 78084.76171668  4989.61650986
0.28400001 76972.63926708  4277.75462974
0.28500001 75877.08519121  3255.12710877
0.28600001 74796.94212282  4186.01106404
0.28700001 73732.86497191  3822.31190106
0.28800001 72682.26550759  4096.00926656
0.28900001 71648.33281675  4363.38367508
0.29000001 70628.28114830  3699.50954166
0.29100001 69623.14880862  3049.49406216
0.29200001 68631.71878422  3921.27343835
0.29300001 67654.50509196  3580.27657894
0.29400001 66690.26863585  3836.35788488
0.29500001 65741.00402224  4670.24114682
0.29600001 64803.54117880  3464.39747541
0.29700001 63879.92291954  3140.97595864
0.29800001 62969.28795500  6495.59720649
0.29900001 62071.68206879  4189.83873799
0.30000001 61185.75095213  3038.79046489
0.30100001 60313.23784280  4371.50368579
0.30200001 59451.93652443  3242.50877155
0.30300001 58603.60168622  3206.78923608
0.30400001 57766.76298477  3699.96134434
0.30500001 56942.27852517  3397.74592045
0.30600001 56128.20051555  3101.64450733
0.30700001 55326.56224740  2811.69602653
0.30800001 54535.85078745  3538.83152514
0.30900001 53756.74017732  3249.59509757
0.31000001 52988.57275718  3460.68385062
0.31100001 52230.94968244  4399.93540956
0.31200001 51485.17956540  2658.95222454
0.31300001 50749.27577659  3346.40740315
0.31400001 50025.56296909  3309.19114708
0.31500001 49310.88496056  2571.06966358
0.31600002 48608.00150561  2311.31058103
0.31700002 47914.58609348  2514.07845136
0.31800002 47231.49818536  2712.03275421
0.31900002 46559.20064877  3352.26260544
0.32000002 45897.13274292  3093.92586470
0.32100002 45244.69750010  3277.97848909
0.32200002 44603.33358575  2377.13477601
0.32300002 43970.05431693  2350.63921509
0.32400002 43347.95692872  2324.53430037
0.32500002 42735.45160544  2507.71641895
0.32600002 42132.80798970  2479.93719570
0.32700002 41539.78881123  2452.50924755
0.32800002 40957.36054139  2627.61958996
0.32900002 40382.46187740  3398.18432790
0.33000002 39818.63061300  2570.09363462
0.33100002 39263.22109730  2150.83935356
0.33200002 38718.71559700  2514.19991635
0.33300002 38182.71754050  2104.24966330
0.33400002 37656.76137545  2270.70281847
0.33500002 37139.57099345  2433.38480673
0.33600002 36631.35005427  2222.05779952
0.33700002 36132.42821130  2381.48845619
0.33800002 35643.39683611  2174.96017794
0.33900002 35162.69021460  2331.28647163
0.34000002 34691.26314358  1951.90401321
0.34100002 34228.86262420  2107.12888294
0.34200002 33776.38259638  1737.79496688
0.34300002 33332.02391330  2579.89877307
0.34400002 32897.31199871  2383.41036718
0.34500002 32470.97697335  2190.81692015
0.34600002 32054.20444482  2168.94784648
0.34700002 31645.10362589  1651.87448751
0.34800002 31245.66234800  1962.85260166
0.34900002 30854.59316091  1781.85283943
0.35000002 30472.58848802  2406.57278982
0.35100002 30099.85326905  2066.05402624
0.35200002 29734.17635935  1731.86718408
0.35300002 29378.44119913  2027.99389203
0.35400002 29030.70354002  2164.23905141
0.35500002 28691.87511489  1685.36082407
0.35600002 28360.87911071  1822.47017797
0.35700002 28038.42862565  1505.66368851
0.35800002 27724.61362759  1791.56461747
0.35900002 27419.69136502  1924.86242500
0.36000002 27122.69976785  1615.56368819
0.36100002 26833.39947370  1457.05366044
0.36200002 26553.77172435  1445.85293888
0.36300002 26280.92543266  1578.43245625
0.36400002 26016.72719532  1566.85746956
0.36500002 25759.82198997  1979.90001193
0.36600002 25511.77822297  1404.42345770
0.36700002 25271.11547174  1952.95189616
0.36800002 25039.14051949  1801.69144142
0.36900002 24814.79413373  2065.83170949
0.37000002 24597.63464932  1368.85843308
0.37100002 24388.10484626  1905.19884084
0.37200002 24186.99228969  1353.26228271
0.37300002 23993.00124783  2019.01115065
0.37400002 23806.34825319  1740.83929848
0.37500002 23627.46907233  1599.10718257
0.37600002 23456.11235800  1326.44321668
0.37700002 23291.75319178  1848.89945595
0.37800002 23134.77594167  2104.33931934
0.37900002 22985.66345007  1834.25603021
0.38000002 22842.79329381  1958.19854788
0.38100002 22706.37188277  1821.50523873
0.38200002 22578.12518240  1556.53602381
0.38300002 22455.73895767  2069.52100038
0.38400002 22340.77436523  1548.21573686
0.38500002 22231.77928362  1802.10811410
0.38600002 22130.44767078  1284.67254815
0.38700002 22034.64806175  1410.65823574
0.38800002 21945.37958036  1408.56425510
0.38900002 21862.48527234  1406.85099393
0.39000002 21786.43180807  1405.55171469
0.39100002 21715.63757606  1276.87954997
0.39200002 21651.42799818  1786.89243735
0.39300002 21592.75456788  1403.74504096
0.39400002 21541.09992650  1531.57227734
0.39500002 21493.97588383  1915.11334198
0.39600002 21452.82606935  2299.52853532
0.39700002 21416.55762316  1406.42540575
0.39800002 21386.93490760  1536.00973784
0.39900002 21361.64741504  1281.69890563
0.40000002 21342.03888666  2182.33028975
0.40100002 21327.13405614  1414.62886897
0.40200002 21317.79772288  1546.39312009
0.40300002 21313.05435354  1549.88538602
0.40400002 21313.10020949  1553.72507889
0.40500002 21317.52070518  1687.70819419
0.40600002 21327.43870451  1432.24421406
0.40700002 21341.20557295  1436.69002724
0.40800002 21359.24199052  1572.46746985
0.40900002 21381.12921666  1709.42136187
0.41000002 21407.87232269  1847.71354772
0.41100002 21438.29855421  1589.86429611
0.41200002 21471.80174800  1729.23163571
0.41300002 21510.50003667  1736.54275024
0.41400002 21552.00920874  1878.25769154
0.41500002 21597.08366893  1347.65808480
0.41600002 21644.67120364  1895.42394712
0.41700002 21697.01774903  2040.60461599
0.41800002 21752.72727590  2734.31794814
0.41900002 21809.82174725  1511.42071870
0.42000002 21870.43280370  1933.56505580
0.42100002 21934.49583998  1804.98974820
0.42200002 22001.06943783  1814.75829857
0.42300002 22069.71293617  1403.63380925
0.42400002 22140.79669694  1693.77102758
0.42500002 22214.74745416  2129.28364438
0.42600002 22289.69378649  1713.18594561
0.42700002 22367.96443909  1866.83040055
0.42800002 22447.53808765  1444.49914439
0.42900002 22529.82401399  1598.49108954
0.43000002 22613.49857619  2339.14040357
0.43100002 22697.51348500  1764.95873223
0.43200002 22784.38383349  1775.81496013
0.43300002 22871.74268794  1637.84557150
0.43400002 22961.10847101  2247.31859810
0.43500002 23050.87511433  2261.29095588
0.43600002 23142.52309448  1820.39095288
0.43700002 23234.46493324  2137.10618583
0.43800002 23326.67054285  1843.27359365
0.43900002 23420.80225767  1700.35032449
0.44000002 23514.71304433  1555.49834160
0.44100002 23609.52714105  1878.37406836
0.44200002 23704.53282973  1890.19953742
0.44300002 23800.00303859  1743.58830524
0.44400002 23895.40371908  2392.52741076
0.44500002 23990.47331702  2086.45156326
0.44600002 24085.37617940  1937.90945923
0.44700002 24181.22004013  2112.47148282
0.44800002 24275.68298698  2452.45098999
0.44900002 24370.33951296  2302.99719312
0.45000002 24465.02846340  1820.56517938
0.45100002 24558.14684389  1998.05092191
0.45200002 24651.18485260  2345.06732617
0.45300002 24743.16161255  1853.51032424
0.45400002 24834.53718423  2542.43586473
0.45500002 24925.27133445  2045.86636809
0.45600002 25014.54673879  1886.22198623
0.45700002 25103.18684815  3966.55474187
0.45800002 25190.21907289  2428.08533151
0.45900002 25276.05971546  1744.04820302
0.46000002 25361.06685390  2455.20499849
0.46100002 25443.85766273  2115.91130352
0.46200002 25525.85129372  2304.60159328
0.46300002 25606.13703813  2495.06211125
0.46400002 25684.28083806  2866.36587738
0.46500002 25761.93653239  2701.13917344
0.46600002 25836.69651802  2714.79101530
0.46700002 25909.74115440  2000.75030677
0.46800002 25981.61679799  1827.80682837
0.46900002 26050.82571859  2203.89996025
0.47000002 26118.19759234  2029.77582209
0.47100002 26183.65985302  2039.18352600
0.47200002 26247.22582042  2048.46483625
0.47300002 26308.41461218  1870.52836758
0.47400002 26366.83427536  2254.36443739
0.47500002 26423.52460371  2641.29564458
0.47600002 26478.60151171  2083.99843076
0.47700002 26530.07432558  2853.30962896
