# SAXS profile: number of points = 501, q_min = 0, q_max = 0.5, delta_q = 0.001
#    q    intensity    error
0.00000000 1664650.74656091 399.51617917
0.00100000 1664569.64432470 549.30799567
0.00200000 1664326.27834652 973.63090366
0.00300000 1663920.86407243 1098.18780941
0.00400000 1663353.27668720 1497.01800590
0.00500000 1662624.01785316 2244.54251294
0.00600000 1661733.00207351 2093.78366785
0.00700000 1660680.76667046 1992.81700283
0.00800000 1659467.13183637 2912.36493933
0.00900000 1658093.37924371 2984.56821022
0.01000000 1656558.81221560 2733.32215818
0.01100000 1654864.72508050 3276.63229832
0.01200000 1653011.04677502 4512.72035555
0.01300000 1650998.93404120 3467.09791440
0.01400000 1648828.36786920 5564.79598825
0.01500000 1646500.76709481 6717.72342888
0.01600000 1644015.59019593 6288.35991361
0.01700000 1641375.02390514 5318.05531601
0.01800000 1638579.00802134 5603.94045960
0.01900000 1635628.17495194 6378.95017015
0.02000000 1632523.80117372 6170.94024758
0.02100000 1629267.81274035 8064.87603871
0.02200000 1625858.67519427 5609.21268426
0.02300000 1622299.78999328 6424.30746080
0.02400000 1618590.44952807 8497.60024749
0.02500000 1614733.35843950 6927.20642408
0.02600000 1610728.40858214 10437.52056501
0.02700000 1606577.80062582 8771.91519318
0.02800000 1602281.33113985 8363.90893212
0.02900000 1597841.47156413 10066.40173304
0.03000000 1593259.58989816 8890.38892028
0.03100000 1588536.03310034 9149.96797168
0.03200000 1583672.16013552 9407.01306447
0.03300000 1578671.85554201 8856.34951787
0.03400000 1573533.18782738 9913.25954071
0.03500000 1568259.44468781 9315.46153162
0.03600000 1562851.69896994 12143.35826219
0.03700000 1557311.86535466 10652.01365166
0.03800000 1551641.38649402 9984.81278418
0.03900000 1545842.34051794 12985.07626169
0.04000000 1539914.49437338 13258.66441095
0.04100000 1533861.96254013 11595.99697447
0.04200000 1527685.37211897 12809.64243949
0.04300000 1521385.90889565 11045.26221128
0.04400000 1514966.77517813 12271.23144884
0.04500000 1508429.29694567 10408.16263254
0.04600000 1501773.65855310 10587.50478498
0.04700000 1495004.14913185 12916.83644923
0.04800000 1488120.86972171 12031.45779150
0.04900000 1481127.73513139 12219.30438361
0.05000000 1474024.45001178 16914.43135152
0.05100000 1466815.26990036 13729.39156584
0.05200000 1459498.53771863 11603.01391558
0.05300000 1452080.50198540 12938.03787583
0.05400000 1444561.00439126 15492.91749459
0.05500000 1436942.31008318 13277.34756455
0.05600000 1429225.76336854 12219.88084703
0.05700000 1421416.36106146 16076.21979402
0.05800000 1413513.03863329 16262.46826881
0.05900000 1405518.30694999 13914.63188870
0.06000000 1397436.02773026 14065.19427621
0.06100000 1389267.44778826 15504.22544185
0.06200000 1381014.78056484 14355.64931501
0.06300000 1372681.15755859 15813.28767443
0.06400000 1364265.25603527 21282.53898946
0.06500000 1355773.23195345 18791.01787388
0.06600000 1347205.99898844 16247.30510799
0.06700000 1338565.08262609 16384.03737810
0.06800000 1329853.58029698 22022.37632057
0.06900000 1321074.35334871 15258.40949556
0.07000000 1312227.58176997 15372.74684032
0.07100000 1303317.00582266 15483.40675438
0.07200000 1294344.39385094 22676.91484261
0.07300000 1285312.87575739 14266.97358939
0.07400000 1276224.42218173 17229.03050688
0.07500000 1267080.63222031 17333.66386125
0.07600000 1257882.94711584 18887.11333638
0.07700000 1248636.38160980 16069.95098481
0.07800000 1239341.16362841 20560.67086881
0.07900000 1229999.25030026 17711.99003508
0.08000000 1220615.02380039 17796.56788187
0.08100000 1211189.18085690 20856.67867291
0.08200000 1201723.41603354 19449.89440119
0.08300000 1192221.39701584 24035.18449186
0.08400000 1182684.65449643 15079.23005263
0.08500000 1173115.43036756 21186.46566704
0.08600000 1163515.71026640 16702.26880507
0.08700000 1153889.25900954 19800.74061440
0.08800000 1144235.47086998 19858.20752956
0.08900000 1134560.03946722 18379.87350267
0.09000000 1124862.25106176 23031.55567241
0.09100000 1115145.26865171 18466.80651646
0.09200000 1105410.84708909 18504.57844974
0.09300000 1095663.96662169 15448.86265534
0.09400000 1085901.25601034 15474.09362539
0.09500000 1076128.82347077 18595.50694361
0.09600000 1066347.55699002 23273.03652532
0.09700000 1056561.79919387 17084.60509616
0.09800000 1046771.34598463 21762.37730624
0.09900000 1036979.00760990 18665.62301468
0.10000000 1027185.66632837 21786.60900739
0.10100000 1017393.68789194 18679.34898822
0.10200000 1007605.95262190 17124.26397027
0.10300000 997823.58399363 18679.25837105
0.10400000 988049.65860044 17117.96114057
0.10500000 978287.00014099 15554.76403408
0.10600001 968532.39218102 23317.41843893
0.10700001 958793.97578099 15532.46313857
0.10800001 949069.55000157 21724.20302191
0.10900001 939363.52919107 18599.39875338
0.11000001 929675.54136775 23218.64773855
0.11100001 920008.70060634 21638.60565686
0.11200001 910363.98493175 20059.87135233
0.11300001 900743.51212059 18483.25773892
0.11400001 891149.55124406 16909.56353103
0.11500001 881583.75230197 21475.38121731
0.11600001 872046.70818671 16834.86249432
0.11700001 862541.71986588 18320.38699275
0.11800001 853067.64387124 19795.43560836
0.11900001 843627.49532814 22777.94344674
0.12000001 834222.42418681 18169.36525466
0.12100001 824856.95162260 24151.81268126
0.12200001 815528.54207962 16551.15254125
0.12300001 806241.32627137 28492.56981284
0.12400001 796994.45076441 16438.01132153
0.12500001 787789.91904482 14889.23017153
0.12600001 778631.54084815 19282.81101778
0.12700001 769517.89178900 19207.16748422
0.12800001 760450.80789459 17657.66859151
0.12900001 751432.42075246 14652.93289530
0.13000001 742463.54289514 21884.11395834
0.13100001 733544.46683988 15976.59924087
0.13200001 724677.52193098 15903.04896845
0.13300001 715863.69451878 15827.74703198
0.13400001 707102.93302027 15750.71857560
0.13500001 698398.29170722 21370.98873384
0.13600001 689749.56139001 21261.53123234
0.13700001 681158.08941762 18329.96505055
0.13800001 672623.09777557 19633.86914992
0.13900001 664148.71011079 15341.83592705
0.14000001 655733.31738804 15255.63634850
0.14100001 647379.72516616 19304.86431493
0.14200001 639087.10310178 15079.26090890
0.14300001 630858.03014441 17714.49432201
0.14400001 622689.37231329 17606.54283266
0.14500001 614587.32024466 16151.35553792
0.14600001 606549.12338872 13374.40880165
0.14700001 598577.50910451 15946.10559483
0.14800001 590669.59511435 17161.90589572
0.14900001 582829.59888631 18359.13323112
0.15000001 575056.30897459 14327.52861412
0.15100001 567350.79277025 14229.15855408
0.15200001 559714.75390554 16699.09047075
0.15300001 552147.33685205 19131.90612474
0.15400001 544647.41197365 12663.05292597
0.15500001 537218.78644728 18856.38029419
0.15600001 529858.53348799 16221.61976831
0.15700001 522571.65172057 21054.41284152
0.15800001 515352.33559807 17207.61529780
0.15900001 508206.48135261 13416.65174098
0.16000001 501129.51368787 18153.41749023
0.16100001 494126.72846278 13208.00807528
0.16200001 487195.15255952 17867.88306359
0.16300001 480335.18351166 17724.36910831
0.16400001 473548.13586521 12892.34860757
0.16500001 466832.49146412 19761.02029662
0.16600001 460190.01719260 12680.53652243
0.16700001 453619.28221655 13717.44774189
0.16800001 447121.64347910 17001.80129606
0.16900001 440697.62153911 14609.12684384
0.17000001 434344.89268495 12255.04172579
0.17100001 428065.44758607 12148.49797616
0.17200001 421858.42992593 15326.11748295
0.17300001 415723.93070478 15190.55314532
0.17400001 409662.82168693 13979.74445027
0.17500001 403673.01382972 12788.36168209
0.17600001 397754.09801781 11616.40898124
0.17700001 391910.39011663 13603.21028344
0.17800001 386136.51401521 11404.54248010
0.17900001 380434.04857016 10271.71979656
0.18000001 374804.53546471 10175.94361853
0.18100001 369246.55738196 14112.60408977
0.18200001 363757.39838450 13979.19748026
0.18300001 358339.72596935 11868.21228475
0.18400001 352992.40786782 12734.20171540
0.18500001 347715.56133155 12611.64400530
0.18600001 342508.74650454 9607.37079334
0.18700001 337370.29805994 19027.68570954
0.18800001 332299.68698960 11304.83588550
0.18900001 327301.08835568 10260.88960475
0.19000001 322366.56560008 13853.70381123
0.19100001 317502.67579904 11887.30074359
0.19200001 312704.16341188 10863.34315024
0.19300001 307974.72531047 10754.47791602
0.19400001 303309.77733860 10646.17368766
0.19500001 298711.36275717 8782.11448006
0.19600001 294177.38488387 13039.41320117
0.19700001 289710.12936713 8604.39124883
0.19800001 285306.09843754 9368.02618492
0.19900001 280966.29916218 10114.78724786
0.20000001 276688.14678899 10844.79242593
0.20100001 272474.65373334 13209.57183731
0.20200001 268321.90144700 8170.40228522
0.20300001 264231.40615517 8894.02955156
0.20400001 260202.14397232 9601.45956640
0.20500001 256232.65383869 7917.58937786
0.20600001 252322.72175440 11751.93132120
0.20700001 248472.36924570 10853.27360168
0.20800001 244679.83298188 9204.85575189
0.20900001 240947.93166606 10625.80428877
0.21000001 237270.10321223 10513.43877033
0.21100001 233650.80083095 8173.10539944
0.21200001 230086.18664813 8821.50481312
0.21300001 226576.98050000 8727.74570147
0.21400001 223122.90903077 8634.85698772
0.21500001 219723.89193713 7830.95987887
0.21600001 216376.77666279 9155.98373737
0.21700001 213083.02333722 8361.37823107
0.21800001 209841.43420482 6893.29143955
0.21900001 206650.42372319 7501.41073583
0.22000001 203509.65800669 8095.61457829
0.22100001 200420.57012130 8676.20689079
0.22200001 197380.17659218 13204.73443840
0.22300001 194388.18403713 9144.02060949
0.22400001 191443.56337014 6461.22056927
0.22500001 188548.53906291 8309.33450943
0.22600001 185698.11818100 6955.32334537
0.22700001 182894.82077386 7506.00379951
0.22800001 180136.10897091 6187.67563577
0.22900001 177421.62667169 8569.46497350
0.23000001 174751.78771380 6055.14973064
0.23100001 172126.26387524 7187.99311937
0.23200001 169541.67989417 6518.03019179
0.23300001 167000.21569897 6447.87863309
0.23400001 164499.10559902 8697.89061992
0.23500001 162038.48606191 8030.62774905
0.23600001 159618.46116178 10781.42946910
0.23700001 157237.88500315 7297.41058815
0.23800001 154895.48125105 6108.30359205
0.23900001 152591.37268372 7690.60554702
0.24000001 150324.10992768 5434.21683093
0.24100001 148094.91935517 7526.18415763
0.24200001 145901.73749303 6381.74229981
0.24300001 143743.66635380 5787.12028115
0.24400001 141620.59978413 7806.83593239
0.24500001 139531.29759293 5148.70512474
0.24600001 137476.04698794 7640.23167278
0.24700001 135454.57614670 6550.58361234
0.24800001 133465.32489845 5483.42313286
0.24900001 131506.88258120 5917.80999611
0.25000001 129581.02976542 5366.59860162
0.25100001 127685.28827469 6757.10577517
0.25200001 125821.61900587 5729.91680061
0.25300001 123986.00871173 5196.25387095
0.25400001 122180.56626968 4673.40688092
0.25500001 120402.30448870 6472.82819555
0.25600001 118653.52006875 6403.73078109
0.25700001 116931.35268616 4977.76791936
0.25800001 115236.34096816 5820.01167597
0.25900001 113568.72688160 4872.09861374
0.26000001 111926.39856743 4381.91871125
0.26100001 110309.21207099 5202.18268742
0.26200001 108718.46636968 5146.73244147
0.26300001 107150.81528290 5516.12423177
0.26400001 105608.35780383 4617.72566348
0.26500001 104089.31757586 4568.48036458
0.26600001 102593.29918101 4930.63419195
0.26700001 101120.19595707 4065.03206983
0.26800001 99669.97893754  5228.18899257
0.26900001 98240.74775769  5172.37561421
0.27000001 96833.65427591  6298.06117214
0.27100001 95447.48092956  4673.10888746
0.27200001 94082.73898206  4237.95717800
0.27300001 92738.09819002  6479.61122718
0.27400001 91412.03482261  5279.04526084
0.27500001 90107.73098091  4476.55228699
0.27600001 88820.22197371  4428.57647720
0.27700001 87553.63038705  4016.08521592
0.27800001 86304.44461636  5417.76176720
0.27900001 85074.01895615  4287.73075832
0.28000001 83860.90096773  4241.68457170
0.28100001 82665.64404822  5594.81105398
0.28200001 81487.92625942  4842.82768681
0.28300001 80326.97441001  4790.70098056
0.28400001 79182.08150575  3723.53755905
0.28500001 78054.24071949  4018.23250243
0.28600001 76942.07190103  3312.35635212
0.28700001 75846.34115356  3604.21830221
0.28800001 74764.56019650  3565.14822172
0.28900001 73699.94632542  3526.54259860
0.29000001 72649.45041330  4122.49325884
0.29100001 71614.26512836  3450.37545721
0.29200001 70593.22015392  5274.37269346
0.29300001 69586.80688577  3989.41182760
0.29400001 68593.75357746  4249.38323527
0.29500001 67616.01068258  3602.58121970
0.29600001 66650.48163879  2969.27909757
0.29700001 65699.07323975  3817.77332669
0.29800001 64761.11040131  4356.80390849
0.29900001 63836.60888395  3734.44179650
0.30000001 62924.03559031  4261.53051209
0.30100001 62025.36088849  3652.67367564
0.30200001 61138.15157716  2778.72912073
0.30300001 60264.33564649  4122.08075336
0.30400001 59402.37643146  3532.95650552
0.30500001 58553.15470679  2687.58992828
0.30600001 57714.60624936  3720.86084105
0.30700001 56888.82496612  3153.91660544
0.30800001 56074.44400217  2599.05060255
0.30900001 55271.90310912  3341.18670113
0.31000001 54480.78424827  3558.14018771
0.31100001 53700.45230214  3769.77193009
0.31200001 52932.26946507  3230.72121976
0.31300001 52174.35640637  3686.11845463
0.31400001 51428.86555138  3159.01821606
0.31500001 50692.64817211  2643.11480084
0.31600002 49968.77421754  3564.02298981
0.31700002 49254.66621799  3054.28199679
0.31800002 48551.08856002  2323.16969760
0.31900002 47858.66136807  2756.65902533
0.32000002 47176.92778859  2725.88301669
0.32100002 46504.90756707  3144.66199858
0.32200002 45844.35801354  2665.39110111
0.32300002 45192.28588906  2415.97971803
0.32400002 44551.60048512  2389.07968914
0.32500002 43920.70035062  3221.58352327
0.32600002 43299.98987331  2761.02398501
0.32700002 42689.38381324  2100.31778307
0.32800002 42089.39384267  2700.24518984
0.32900002 41497.44500288  3492.01016235
0.33000002 40916.72482215  2640.97012871
0.33100002 40344.68388433  2812.83149362
0.33200002 39783.79888881  2185.92093346
0.33300002 39231.77590254  2751.71689211
0.33400002 38689.89819138  2138.58422380
0.33500002 38157.32698053  2115.44230798
0.33600002 37633.82006295  2282.86763313
0.33700002 37119.75305008  2070.16872564
0.33800002 36616.05843950  1861.92665982
0.33900002 36120.81432764  3131.67475052
0.34000002 35635.05837235  2187.27998648
0.34100002 35158.65312964  1984.00289007
0.34200002 34692.34176999  1963.41317546
0.34300002 34234.33794917  1766.49192184
0.34400002 33786.36710978  3147.20024533
0.34500002 33346.90482449  2596.05666354
0.34600002 32917.32312598  2912.68947475
0.34700002 32495.53673566  2544.40064691
0.34800002 32083.73062572  2015.50005336
0.34900002 31680.34775646  2328.50567038
0.35000002 31286.36945798  1811.95017298
0.35100002 30901.81894403  2773.74739979
0.35200002 30524.58829994  1777.90472974
0.35300002 30157.48199903  1761.49860699
0.35400002 29798.39433936  1745.44103110
0.35500002 29448.62713768  2358.83514545
0.35600002 29106.93251875  1558.67631021
0.35700002 28773.80139195  2163.21449111
0.35800002 28449.61227053  2451.21870933
0.35900002 28134.39284823  1975.03447149
0.36000002 27827.38981951  1506.85323010
0.36100002 27528.22226607  1793.73904782
0.36200002 27238.97169253  2076.42691047
0.36300002 26956.49922878  1619.00742037
0.36400002 26682.94549436  1899.15873552
0.36500002 26416.87332203  1595.31505548
0.36600002 26159.79035558  1728.11583275
0.36700002 25910.20275919  1573.26758606
0.36800002 25669.62851873  2273.30240930
0.36900002 25436.69326190  1411.73654291
0.37000002 25211.09998665  2104.49667107
0.37100002 24993.27812248  2091.93747795
0.37200002 24783.98511786  1663.99683964
0.37300002 24582.05106155  2068.57969482
0.37400002 24387.68487929  1783.34954128
0.37500002 24201.05167426  1501.43331700
0.37600002 24022.06487008  2173.51653241
0.37700002 23850.34755710  1487.54624760
0.37800002 23685.97482780  1885.16682585
0.37900002 23529.70555953  1743.55126456
0.38000002 23379.83898440  1737.00521963
0.38100002 23236.48872269  1464.59595357
0.38200002 23101.35123766  1459.88996062
0.38300002 22972.40485911  1720.17375734
0.38400002 22850.74704209  1583.55684504
0.38500002 22735.31105043  1316.37457218
0.38600002 22627.59271144  1576.23818295
0.38700002 22525.51582622  1966.47762479
0.38800002 22430.04960054  2224.94887553
0.38900002 22341.12092024  2221.82458078
0.39000002 22259.04897631  1305.49328431
0.39100002 22182.37707658  1434.75621729
0.39200002 22112.55532591  1303.53519822
0.39300002 22048.08695510  1693.95460101
0.39400002 21990.91406881  1563.55406437
0.39500002 21938.18419053  1563.75384319
0.39600002 21891.60163178  1564.37392672
0.39700002 21849.96744135  1826.22036527
0.39800002 21815.08085735  1436.19591629
0.39900002 21784.59413963  2614.15142061
0.40000002 21759.81316895  1570.62338895
0.40100002 21739.92348316  1442.00919296
0.40200002 21725.62721760  1707.30849579
0.40300002 21715.96081111  1447.58601625
0.40400002 21711.23813193  1318.95777901
0.40500002 21710.79111967  1586.62469020
0.40600002 21715.98904984  1590.91343317
0.40700002 21725.08248361  1861.40515539
0.40800002 21738.48372617  1733.75285173
0.40900002 21755.94511934  1873.18696353
0.41000002 21778.19509890  1476.88837061
0.41100002 21804.18621264  2290.74791204
0.41200002 21833.30824188  1352.57350967
0.41300002 21867.69980021  2036.97633291
0.41400002 21904.92853972  1636.29823945
0.41500002 21945.70622164  2054.11819968
0.41600002 21989.09809272  1375.41815087
0.41700002 22037.23795391  1381.73488518
0.41800002 22088.91273004  1943.60352321
0.41900002 22141.89438882  1534.43335385
0.42000002 22198.54135406  1962.57313411
0.42100002 22258.58452867  1549.86531417
0.42200002 22321.16706339  1699.53374074
0.42300002 22385.91452411  1423.74423120
0.42400002 22453.06966307  1431.38325885
0.42500002 22523.22788008  1583.15776271
0.42600002 22594.32534503  2460.18323177
0.42700002 22668.79515624  1600.87038979
0.42800002 22744.54333436  1609.97257621
0.42900002 22823.01100062  1472.08427930
0.43000002 22903.07689870  1480.68399167
0.43100002 22983.34431187  2085.04909478
0.43200002 23066.51118882  2097.43796179
0.43300002 23150.25515344  2712.74702743
0.43400002 23235.96373513  1516.14670556
0.43500002 23322.14085856  1830.32170132
0.43600002 23410.21199646  1841.44736291
0.43700002 23498.54036766  2007.01042791
0.43800002 23587.20255808  1863.86083447
0.43900002 23677.72456376  1719.00288479
0.44000002 23768.09170175  1729.48527464
0.44100002 23859.39590973  2214.62923329
0.44200002 23950.89171660  1909.84419599
0.44300002 24042.79928339  2081.62566060
0.44400002 24134.76611520  1772.09528599
0.44500002 24226.28322407  1620.73842450
0.44600002 24317.73532306  2119.65549989
0.44700002 24410.12047274  1968.43220821
0.44800002 24501.12730327  1980.18120249
0.44900002 24592.41431508  2323.98326291
0.45000002 24683.58957772  2504.76737110
0.45100002 24773.27483995  2687.40498200
0.45200002 24862.88522375  2027.31975722
0.45300002 24951.35828583  2039.02509575
0.45400002 25039.36514530  2050.72410259
0.45500002 25126.73282256  2062.40232782
0.45600002 25212.55459863  2765.31311944
0.45700002 25297.82431228  1911.75667388
0.45800002 25381.45765294  2097.01613067
0.45900002 25463.85904147  2635.50953570
0.46000002 25545.45483466  2119.76194265
0.46100002 25624.81994520  1775.80010637
0.46200002 25703.39602856  1785.10093879
0.46300002 25780.30584157  1973.74030878
0.46400002 25855.07583318  1983.73078732
0.46500002 25929.31529115  2718.68883713
0.46600002 26000.67554058  1821.34740794
0.46700002 26070.29037934  2928.21515419
0.46800002 26138.75736902  2022.74783487
0.46900002 26204.49702691  2032.15884075
0.47000002 26268.52564626  2227.04570984
0.47100002 26330.59613732  2423.46818334
0.47200002 26390.73667685  2246.90742716
0.47300002 26448.59234790  2068.54450557
0.47400002 26503.58130813  2077.21828348
0.47500002 26556.88499377  1896.16167843
0.47600002 26608.51719550  2094.22344513
0.47700002 26656.55275885  3631.42235446
