# SAXS profile: number of points = 501, q_min = 0, q_max = 0.5, delta_q = 0.001
#    q    intensity    error
0.00000000 1646666.22097350 296.39991978
0.00100000 1646585.78266795 543.37332118
0.00200000 1646344.40710013 814.94050732
0.00300000 1645942.31684000 1185.07851034
0.00400000 1645379.38252438 1851.05187568
0.00500000 1644656.09645474 1480.19054540
0.00600000 1643772.37033559 1725.96105912
0.00700000 1642728.77418539 2168.40207204
0.00800000 1641525.09639597 2659.27076844
0.00900000 1640162.59005679 2952.29278831
0.01000000 1638640.60675964 2974.13282969
0.01100000 1636960.41560129 3830.48753928
0.01200000 1635121.96286583 3507.33676412
0.01300000 1633126.36655196 3772.52207312
0.01400000 1630973.58880658 5137.56703249
0.01500000 1628665.16338088 4299.67622279
0.01600000 1626200.36718228 5390.85445820
0.01700000 1623581.53384666 5260.40440564
0.01800000 1620808.49207179 5543.16529231
0.01900000 1617881.91135871 5339.01054839
0.02000000 1614803.09124624 7629.94495128
0.02100000 1611573.86709413 7445.47160354
0.02200000 1608192.82111570 7212.74513040
0.02300000 1604663.23858706 8087.50309061
0.02400000 1600984.48232653 9605.90733197
0.02500000 1597159.15112175 6851.81307124
0.02600000 1593187.29413992 9033.37237094
0.02700000 1589070.98699476 6674.09845106
0.02800000 1584810.03879311 8962.10118037
0.02900000 1580406.82395145 7823.01413775
0.03000000 1575862.87005733 8060.53895085
0.03100000 1571178.38524681 9804.15357506
0.03200000 1566354.72369396 9304.14748727
0.03300000 1561395.90773694 10352.05534553
0.03400000 1556299.88072142 10621.74717602
0.03500000 1551069.87826000 9213.35550232
0.03600000 1545707.07689427 9436.54214054
0.03700000 1540213.31085082 9657.13790565
0.03800000 1534589.97015318 13466.02761130
0.03900000 1528839.19892029 11007.64274199
0.04000000 1522960.80775795 12176.07222225
0.04100000 1516958.82932815 17202.31392219
0.04200000 1510833.82530738 11693.85435039
0.04300000 1504586.77963478 14895.40980980
0.04400000 1498221.35183627 16180.79135130
0.04500000 1491738.74540065 12351.59738583
0.04600000 1485138.93048240 14658.32192528
0.04700000 1478426.10483258 13838.06898481
0.04800000 1471600.69788645 18387.65157563
0.04900000 1464666.29744407 14280.49706480
0.05000000 1457622.69039395 12265.89551084
0.05100000 1450474.15737823 14707.80864096
0.05200000 1443219.38355295 17210.39195090
0.05300000 1435863.80534369 15119.64657511
0.05400000 1428407.81313803 14141.23800953
0.05500000 1420853.61379440 16709.23927770
0.05600000 1413202.38578610 15707.74525100
0.05700000 1405459.27357602 14672.99550105
0.05800000 1397623.13481345 14842.75838476
0.05900000 1389696.24947829 20011.62692715
0.06000000 1381682.88375299 13906.63887468
0.06100000 1373583.79894976 15329.19591263
0.06200000 1365401.55826129 12903.04532870
0.06300000 1357139.26778728 13028.53757991
0.06400000 1348795.46271541 17095.98328944
0.06500000 1340375.97872680 14596.69509114
0.06600000 1331882.47937709 14723.96149843
0.06700000 1323315.60177786 17547.16570076
0.06800000 1314679.13571028 13606.92969153
0.06900000 1305975.34466163 17826.56428925
0.07000000 1297205.26118310 16578.28401426
0.07100000 1288371.50839302 23654.50200202
0.07200000 1279476.76463790 19614.37972077
0.07300000 1270523.38363756 14102.81021917
0.07400000 1261513.79042954 18449.64004966
0.07500000 1252449.51995617 17133.51023609
0.07600000 1243331.98864806 15796.53365632
0.07700000 1234165.98719625 14439.74272725
0.07800000 1224951.88407810 24676.65686200
0.07900000 1215691.76994389 17505.96230829
0.08000000 1206389.88156671 19054.92907323
0.08100000 1197046.63126711 16196.04168093
0.08200000 1187664.07123598 16265.06021882
0.08300000 1178245.98248056 20784.26010640
0.08400000 1168793.15264899 14902.11339576
0.08500000 1159308.64870868 16450.59049745
0.08600000 1149793.85698167 19506.25369954
0.08700000 1140252.83363116 15051.33811071
0.08800000 1130684.93301049 15094.64456459
0.08900000 1121095.64309316 24215.66702821
0.09000000 1111484.21658962 18206.11232298
0.09100000 1101853.90252173 25849.49376760
0.09200000 1092206.57516600 18283.53892736
0.09300000 1082547.27646757 22895.87597322
0.09400000 1072872.28461485 18346.11692914
0.09500000 1063187.81087251 19902.87675502
0.09600000 1053494.53333146 16861.18079858
0.09700000 1043797.25568741 16878.20241796
0.09800000 1034095.37695832 19963.21219080
0.09900000 1024392.11018871 18439.05885045
0.10000000 1014687.55343052 21521.52402036
0.10100000 1004984.78704359 15376.26796494
0.10200000 995286.47089916 35367.50640696
0.10300000 985593.53798693 18450.31189903
0.10400000 975909.03411670 23055.85201567
0.10500000 966235.80560473 15363.15003194
0.10600001 956571.31599864 15352.97034419
0.10700001 946922.29871402 16874.15615714
0.10800001 937287.98876975 15324.65933759
0.10900001 927671.63628206 26021.19062242
0.11000001 918073.51661049 22928.88715660
0.11100001 908496.35727064 19841.56137680
0.11200001 898941.61942345 18284.47339985
0.11300001 889410.94404941 16729.82064522
0.11400001 879906.75952198 18214.07077970
0.11500001 870430.30760266 25747.32971128
0.11600001 860983.10562019 22665.38132280
0.11700001 851567.51902766 16580.02037630
0.11800001 842182.92381195 18039.55907768
0.11900001 832832.25007284 22486.47181112
0.12000001 823515.95488412 16441.49681374
0.12100001 814239.41505621 19370.75659671
0.12200001 805000.03365400 14852.25132063
0.12300001 795801.32634616 14801.90536742
0.12400001 786643.10885840 14749.55898606
0.12500001 777526.69795790 23512.40845416
0.12600001 768456.44118570 17566.91507332
0.12700001 759430.38376473 18955.38327207
0.12800001 750450.72780644 20329.71117440
0.12900001 741519.51155786 14459.63115689
0.13000001 732637.75015556 18715.23220986
0.13100001 723805.39143795 15764.48216862
0.13200001 715024.59958100 14264.74143409
0.13300001 706296.85844919 18455.53778133
0.13400001 697622.03747687 16952.21630991
0.13500001 689002.66892520 23894.61368491
0.13600001 680438.97290574 15381.32370778
0.13700001 671932.28102921 15299.89876048
0.13800001 663481.56139315 17983.66856959
0.13900001 655091.14859908 19259.68067706
0.14000001 646759.05525543 19150.53652926
0.14100001 638488.54659507 16319.76802066
0.14200001 630278.72327853 17575.32302757
0.14300001 622131.92112872 16125.66015627
0.14400001 614044.92396858 13355.47772629
0.14500001 606024.17008070 14599.12294592
0.14600001 598067.16768629 21099.81067134
0.14700001 590175.93361388 13101.90634433
0.14800001 582347.84190351 20824.75980895
0.14900001 574587.39477601 14221.03869167
0.15000001 566893.11868476 14124.14271845
0.15100001 559266.04238258 17851.77291519
0.15200001 551707.73984740 21524.87848584
0.15300001 544217.83942997 13828.57595247
0.15400001 536794.78361288 17472.67103115
0.15500001 529442.61796900 13627.85362966
0.15600001 522158.26035014 17215.55865623
0.15700001 514946.54790818 14645.08051371
0.15800001 507802.08908458 12111.08039629
0.15900001 500730.33215167 15622.78710054
0.16000001 493726.85430463 14308.20491313
0.16100001 486797.17083117 14195.00617150
0.16200001 479938.10502639 14081.38466620
0.16300001 473150.00039730 19787.13395072
0.16400001 466434.06354085 11544.24361764
0.16500001 459789.16682811 11448.75079453
0.16600001 453216.61359320 12488.38437718
0.16700001 446715.48541358 13508.67691672
0.16800001 440286.61510884 18974.15257401
0.16900001 433930.73155436 12171.75759483
0.17000001 427645.37149332 15356.74601547
0.17100001 421433.07607611 15222.16342668
0.17200001 415292.56264631 14009.89526246
0.17300001 409223.54348736 14953.02898518
0.17400001 403227.60513432 13760.14267505
0.17500001 397302.06359241 12586.52996904
0.17600001 391447.04199018 11432.21140126
0.17700001 385666.28774810 13386.47747999
0.17800001 379954.96021620 10201.79116366
0.17900001 374314.49621015 11117.14106254
0.18000001 368746.00196985 13014.89075428
0.18100001 363248.48818991 13883.35787442
0.18200001 357819.38625269 16697.64244824
0.18300001 352460.72327971 9727.91642206
0.18400001 347172.17357830 11560.83392630
0.18500001 341953.10278369 13356.68882573
0.18600001 336803.40311399 12281.53667477
0.18700001 331721.93336506 13096.38254799
0.18800001 326707.19971968 11114.57945958
0.18900001 321763.90815650 11921.35336045
0.19000001 316883.86876463 10894.46792288
0.19100001 312073.91632648 9886.50213636
0.19200001 307329.12842805 10676.61442607
0.19300001 302652.13364483 14091.48400836
0.19400001 298039.07375719 10461.17198321
0.19500001 293492.02851738 12080.13246462
0.19600001 289008.98485646 8540.21590609
0.19700001 284591.75721762 9297.61314768
0.19800001 280237.07068669 12547.61543298
0.19900001 275945.96089308 9106.21713983
0.20000001 271716.14249286 9011.46629167
0.20100001 267550.01291680 12970.82523924
0.20200001 263444.27867367 9626.25439771
0.20300001 259399.90206937 8731.40111634
0.20400001 255416.48645051 9424.86879550
0.20500001 251491.88703522 10879.53954739
0.20600001 247626.18560945 8457.67276927
0.20700001 243819.65022905 9889.32548075
0.20800001 240070.44900511 9784.07161170
0.20900001 236381.03573248 8935.20357307
0.21000001 232745.35634518 8103.02996421
0.21100001 229167.25961021 8016.27112012
0.21200001 225643.25851216 7209.30245028
0.21300001 222174.25302287 7131.79385919
0.21400001 218759.87080192 11993.51048373
0.21500001 215399.84766573 8374.74647318
0.21600001 212090.97858687 7593.91784733
0.21700001 208835.14633030 7511.80056866
0.21800001 205630.74155136 10807.95228695
0.21900001 202476.60940938 6681.72842643
0.22000001 199371.93145955 7931.01580846
0.22100001 196318.53730151 8498.62988163
0.22200001 193313.26475424 7759.59481414
0.22300001 190355.66079322 7035.54555560
0.22400001 187445.21936959 8224.15938873
0.22500001 184583.49950380 6257.38092907
0.22600001 181766.03807801 7426.96066708
0.22700001 178995.19849755 10406.78133278
0.22800001 176268.56902279 7265.79075872
0.22900001 173585.42110001 8983.04596674
0.23000001 170946.44215136 7700.28285087
0.23100001 168351.48183952 7030.35821410
0.23200001 165796.78791255 6374.05781275
0.23300001 163284.89546072 8023.82014242
0.23400001 160813.00339837 5668.65863789
0.23500001 158380.85247998 7849.35542015
0.23600001 155988.88985388 8318.10794488
0.23700001 153635.93932733 6033.28362275
0.23800001 151320.84450440 5424.85253207
0.23900001 149043.73593332 5365.57474739
0.24000001 146802.87268338 5837.61650838
0.24100001 144599.61759687 5773.86300375
0.24200001 142432.11590106 8825.80647929
0.24300001 140299.10116509 7702.42101831
0.24400001 138200.86168361 5078.88190712
0.24500001 136135.94759037 5525.75837409
0.24600001 134104.99196931 6459.16724375
0.24700001 132107.06902636 6388.69816034
0.24800001 130141.02757643 6318.99789290
0.24900001 128205.50100923 6250.01846987
0.25000001 126302.43998514 5706.34450849
0.25100001 124428.83862353 6584.77445148
0.25200001 122587.07938528 5117.39787104
0.25300001 120773.15288721 5521.74881124
0.25400001 118989.27545872 6827.01000244
0.25500001 117231.92079035 4501.70597133
0.25600001 115503.68406363 4897.93395445
0.25700001 113801.87499041 5725.37260165
0.25800001 112127.04981081 6098.59052776
0.25900001 110479.23270395 5601.29736311
0.26000001 108856.43138293 4687.90243932
0.26100001 107258.55287999 5058.31359316
0.26200001 105686.94270898 5003.22010458
0.26300001 104137.86558368 4948.63160669
0.26400001 102614.17911334 5710.47933787
0.26500001 101113.45781518 4034.42715773
0.26600001 99635.37355151  3990.39689956
0.26700001 98180.24334179  5920.26895366
0.26800001 96747.56684903  6246.02321134
0.26900001 95335.87288117  6563.87515848
0.27000001 93946.22284497  4200.80555330
0.27100001 92577.07842770  4154.85947646
0.27200001 91229.22789162  5977.33929433
0.27300001 89901.15080597  5172.91246218
0.27400001 88591.82329739  5116.17803755
0.27500001 87303.72591267  6505.87396290
0.27600001 86032.54014358  3932.11743335
0.27700001 84782.04908057  3888.95277538
0.27800001 83548.83739161  3846.17091135
0.27900001 82334.17602985  3803.83911261
0.28000001 81136.77414599  3419.91519211
0.28100001 79957.05203836  4396.83849969
0.28200001 78794.77468246  4013.80601230
0.28300001 77649.16431948  3969.42546789
0.28400001 76519.43707153  3271.20608964
0.28500001 75406.60501074  3558.43785888
0.28600001 74309.50685679  4158.73174808
0.28700001 73228.86963634  4428.88224524
0.28800001 72161.94980701  4066.68687386
0.28900001 71111.99932542  3712.04654049
0.29000001 70076.21442202  3058.82690431
0.29100001 69055.70982269  4234.49632677
0.29200001 68049.30232041  3289.84367641
0.29300001 67057.41345875  3548.67848822
0.29400001 66078.87987152  4678.38491636
0.29500001 65115.45539792  3469.35162783
0.29600001 64164.40372621  3716.08161771
0.29700001 63227.42330845  3108.89255125
0.29800001 62303.84734052  3073.76045405
0.29900001 61393.54391757  3315.25152849
0.30000001 60495.48842974  3823.92000467
0.30100001 59610.95702071  2970.41412896
0.30200001 58738.13530013  2936.61321335
0.30300001 57878.45802945  3167.10937331
0.30400001 57030.86387448  2609.16214578
0.30500001 56195.77202854  2579.38605822
0.30600001 55371.62351166  3059.83606012
0.30700001 54560.20365624  2520.68152826
0.30800001 53760.09358902  3488.49263815
0.30900001 52971.78651973  3448.46346570
0.31000001 52194.96904050  3165.36404732
0.31100001 51428.97606999  2647.56381343
0.31200001 50675.17886935  2379.19976056
0.31300001 49931.62558395  2586.95764399
0.31400001 49200.60968892  3022.14759323
0.31500001 48479.02717912  2987.27779622
0.31600002 47769.55923784  2498.58691424
0.31700002 47069.95956936  2694.28461332
0.31800002 46381.06221973  2441.26732553
0.31900002 45703.27800642  3071.26042745
0.32000002 45036.01159850  3035.87768560
0.32100002 44378.84920425  2572.19822167
0.32200002 43733.02360607  2754.52462226
0.32300002 43095.65849601  3979.45329395
0.32400002 42469.85089134  2691.52692769
0.32500002 41854.00937377  2455.99338635
0.32600002 41248.30025565  2832.52091268
0.32700002 40652.58091866  2000.10707591
0.32800002 40067.81629103  2570.55087587
0.32900002 39490.92674696  2150.28106320
0.33000002 38925.36274511  3865.28870363
0.33100002 38368.56283571  2675.05632758
0.33200002 37823.05272372  2267.11388762
0.33300002 37286.46005936  2428.46725867
0.33400002 36760.17210267  2401.35835632
0.33500002 36242.88775620  2191.96995530
0.33600002 35734.99155599  2167.68469044
0.33700002 35236.71159748  2143.80163511
0.33800002 34748.56696877  1943.66118544
0.33900002 34269.06118481  2621.58330479
0.34000002 33799.19868896  1901.71200430
0.34100002 33338.69539367  1881.30267016
0.34200002 32888.28796337  2030.52299502
0.34300002 32446.44444851  2846.20224182
0.34400002 32014.40135507  2319.44348802
0.34500002 31591.17622086  1967.49854822
0.34600002 31177.63726135  1947.35531557
0.34700002 30772.13473141  1606.30550906
0.34800002 30376.56164351  1749.23438509
0.34900002 29989.61631882  1889.34591757
0.35000002 29612.01351552  1714.97984398
0.35100002 29243.95314418  1698.48887906
0.35200002 28883.22975967  1529.36708821
0.35300002 28532.71727010  1818.10483056
0.35400002 28190.40223363  1651.25288904
0.35500002 27857.24771737  1636.33480842
0.35600002 27532.02705167  1621.77413029
0.35700002 27215.72695945  1607.63306764
0.35800002 26908.32024032  1738.81573629
0.35900002 26610.06358619  1580.63785189
0.36000002 26319.96858361  1710.27163957
0.36100002 26037.57644816  2120.76070216
0.36200002 25765.25548222  1402.91822746
0.36300002 25499.83922229  2366.89518873
0.36400002 25243.36473397  1658.48914158
0.36500002 24994.23201506  1646.62008315
0.36600002 24754.30493352  1907.81437160
0.36700002 24521.80897366  2165.76627114
0.36800002 24298.25105432  1613.88991148
0.36900002 24082.48403952  1871.20909851
0.37000002 23874.01679005  1461.44800703
0.37100002 23673.40297999  2113.56151817
0.37200002 23481.34823826  1970.67224425
0.37300002 23296.56345003  1568.32472575
0.37400002 23119.27073802  2080.73446499
0.37500002 22949.85680189  1553.24638193
0.37600002 22788.20947615  1675.27529900
0.37700002 22633.60679431  1411.65812263
0.37800002 22486.44208892  1661.86058131
0.37900002 22347.40950618  1910.70360329
0.38000002 22214.57152547  1650.43166967
0.38100002 22088.37649167  1645.36324281
0.38200002 21970.44420741  1262.20207951
0.38300002 21858.51897675  1259.05075271
0.38400002 21754.11906177  1758.82060947
0.38500002 21655.67549272  1630.02277156
0.38600002 21565.04865630  1502.22136057
0.38700002 21479.92618422  1375.14493946
0.38800002 21401.54278441  1373.65808869
0.38900002 21329.50412149  1247.77605022
0.39000002 21264.38538849  1496.58751454
0.39100002 21204.54902105  1371.51029566
0.39200002 21151.41993744  1246.87626438
0.39300002 21103.86413345  1371.96227232
0.39400002 21063.30448849  1497.60102008
0.39500002 21027.29812227  1998.43450822
0.39600002 20997.26651743  1375.42600839
0.39700002 20972.24360064  1752.86020319
0.39800002 20953.86830081  1379.49798494
0.39900002 20939.75113770  1758.93917890
0.40000002 20931.40121895  1384.92622727
0.40100002 20927.71409543  1892.91182962
0.40200002 20929.62183119  1644.75440953
0.40300002 20936.07170553  1395.59860601
0.40400002 20947.36962123  2036.08442365
0.40500002 20962.98006291  1659.63921022
0.40600002 20984.06196251  1281.07704351
0.40700002 21008.92880025  1800.04510489
0.40800002 21038.06643619  1419.75398072
0.40900002 21071.01122198  1425.45397671
0.41000002 21108.78322921  1821.89916684
0.41100002 21150.17603035  1829.91331685
0.41200002 21194.66668245  1444.31062951
0.41300002 21244.16544359  1583.11528387
0.41400002 21296.49359436  1723.41882578
0.41500002 21352.32930076  1598.86249380
0.41600002 21410.54050111  1607.07524616
0.41700002 21473.53022293  2288.86369492
0.41800002 21539.74757342  2030.65979870
0.41900002 21607.26753600  1633.50950312
0.42000002 21678.22759038  1779.67417836
0.42100002 21752.59507989  1652.32720056
0.42200002 21829.36671344  1662.08806032
0.42300002 21908.09474467  1672.02587014
0.42400002 21989.22181552  1682.17554860
0.42500002 22073.08330419  1410.47008997
0.42600002 22157.84621926  2128.81517639
0.42700002 22245.78221714  2427.90478623
0.42800002 22334.86262442  1724.69817359
0.42900002 22426.69366483  1591.17399092
0.43000002 22519.77730460  1455.90367173
0.43100002 22613.00260680  2051.45169370
0.43200002 22708.94997785  1622.44100805
0.43300002 22805.38298810  1781.55660346
0.43400002 22903.54290727  1643.90187007
0.43500002 23002.07982026  2557.37135561
0.43600002 23102.33902201  1514.35839466
0.43700002 23202.68707635  1676.85827447
0.43800002 23303.31397689  2148.33261734
0.43900002 23405.53747816  1699.24210144
0.44000002 23507.60801880  1866.03401296
0.44100002 23610.26557428  1878.43281811
0.44200002 23713.04951534  2363.59832245
0.44300002 23816.18891815  1744.77408283
0.44400002 23919.08359075  1756.25879588
0.44500002 24021.49862169  2249.85366753
0.44600002 24123.58989348  2102.73281272
0.44700002 24226.44113070  1790.81861325
0.44800002 24327.78735212  1966.17186698
0.44900002 24429.15444896  2143.65840449
0.45000002 24530.38627602  1991.37685226
0.45100002 24630.00882851  2170.88908103
0.45200002 24729.32985514  2184.46545628
0.45300002 24827.44192934  2197.97353817
0.45400002 24924.73705932  1871.22472341
0.45500002 25021.23816762  2053.74332613
0.45600002 25116.15653835  2066.05513476
0.45700002 25210.29948319  1731.94765658
0.45800002 25302.62219235  1742.08562051
0.45900002 25393.64309397  1927.37760218
0.46000002 25483.60594535  1938.41057810
0.46100002 25571.22879145  3366.96385455
0.46200002 25657.93985994  2316.52721005
0.46300002 25742.72154842  1791.69350469
0.46400002 25825.25143706  2341.70478504
0.46500002 25907.04571654  1810.90258141
0.46600002 25985.88404765  2184.37351658
0.46700002 26062.79553707  2195.53000010
0.46800002 26138.40935068  2206.60462197
0.46900002 26211.19647151  2402.25627047
0.47000002 26281.92256565  2599.54508418
0.47100002 26350.72876619  2798.44752761
0.47200002 26417.33243852  2249.17179042
0.47300002 26481.49555837  2071.11786579
0.47400002 26542.73053003  1891.16963990
0.47500002 26602.03176949  1899.38515837
0.47600002 26659.58120129  2098.24243790
0.47700002 26713.41797528  2106.88737557
