# SAXS profile: number of points = 501, q_min = 0, q_max = 0.5, delta_q = 0.001
#    q    intensity    error
0.00000000 1646666.22097350 321.09991309
0.00100000 1646585.77794630 740.96361767
0.00200000 1646344.38284993 740.85499574
0.00300000 1645942.26728619 1086.32193511
0.00400000 1645379.28802001 1851.05176936
0.00500000 1644655.94644388 2220.28561558
0.00600000 1643772.14923821 2071.15299236
0.00700000 1642728.49043834 2365.52912454
0.00800000 1641524.72452143 3102.48186033
0.00900000 1640162.12501723 2706.26762197
0.01000000 1638640.01565223 3514.88298534
0.01100000 1636959.71603851 3241.18037888
0.01200000 1635121.12397550 4463.88086417
0.01300000 1633125.37065216 3772.51977259
0.01400000 1630972.46038157 4770.59465810
0.01500000 1628663.85853192 5081.43146489
0.01600000 1626198.86953766 5805.53022378
0.01700000 1623579.88469368 4383.66588532
0.01800000 1620806.58009534 4619.29896113
0.01900000 1617879.81012701 4853.63964939
0.02000000 1614800.79459497 6612.60955299
0.02100000 1611571.32231694 6913.64128619
0.02200000 1608190.01887079 7767.55814404
0.02300000 1604660.18504085 6932.13231492
0.02400000 1600981.14560570 6003.67956977
0.02500000 1597155.56502184 8097.57908448
0.02600000 1593183.43412272 10323.82912531
0.02700000 1589066.81726422 6674.08093819
0.02800000 1584805.49941828 7583.29466248
0.02900000 1580401.98714027 10667.71390300
0.03000000 1575857.67029573 8060.51235407
0.03100000 1571172.91575058 11312.44551393
0.03200000 1566348.89351367 8528.77011800
0.03300000 1561389.65302293 10352.01387677
0.03400000 1556293.32823988 13889.91859543
0.03500000 1551062.82706489 10050.88758351
0.03600000 1545699.73140982 9436.49729635
0.03700000 1540205.49937529 9657.08892770
0.03800000 1534581.70285902 12568.22472807
0.03900000 1528830.53330390 11924.87871201
0.04000000 1522951.77119500 10302.76920955
0.04100000 1516949.29251984 9556.78098599
0.04200000 1510823.85323983 10719.29573604
0.04300000 1504576.35065201 13902.28612534
0.04400000 1498210.43027644 13146.79713624
0.04500000 1491727.39833617 13380.79538481
0.04600000 1485127.03307250 12564.17528386
0.04700000 1478413.71895679 13837.95305301
0.04800000 1471587.74796795 12979.40454098
0.04900000 1464652.87013771 10984.89703735
0.05000000 1457608.71288165 11150.70717279
0.05100000 1450459.71746818 11313.58632328
0.05200000 1443204.32860778 11473.47494711
0.05300000 1435848.19954263 11630.37095848
0.05400000 1428391.62563475 16497.92404544
0.05500000 1420836.85016605 16709.04213742
0.05600000 1413185.18635796 14499.28068863
0.05700000 1405441.41986482 18341.01138537
0.05800000 1397604.66962265 14842.56228443
0.05900000 1389677.19426511 13757.80486579
0.06000000 1381663.22897443 15170.66296289
0.06100000 1373563.59228632 17883.79880730
0.06200000 1365380.63172401 15483.41708750
0.06300000 1357117.71235199 18239.66290681
0.06400000 1348773.17023305 13150.53902478
0.06500000 1340353.09551240 18577.29477281
0.06600000 1331859.01190615 18739.25717430
0.06700000 1323291.45218133 17546.84547710
0.06800000 1314654.34588053 23131.34429852
0.06900000 1305949.89795299 13712.47457051
0.07000000 1297179.15666627 15196.45453197
0.07100000 1288344.64498367 16696.94738104
0.07200000 1279449.19761485 15410.96630723
0.07300000 1270495.17458781 18333.24622832
0.07400000 1261484.83607251 15610.87557799
0.07500000 1252419.91850383 21416.38161025
0.07600000 1243301.68251741 20104.18914880
0.07700000 1234134.93777116 18771.19328365
0.07800000 1224920.17900269 26127.54864341
0.07900000 1215659.39681999 21881.87016910
0.08000000 1206356.71524226 21985.85216667
0.08100000 1197012.77660216 20612.56098019
0.08200000 1187629.44550803 19221.78347753
0.08300000 1178210.64515908 23752.72772117
0.08400000 1168757.03331527 16391.81816166
0.08500000 1159271.79638818 16450.06756300
0.08600000 1149756.19388150 16504.75093809
0.08700000 1140214.59898767 16555.91675473
0.08800000 1130645.83245516 15094.12257215
0.08900000 1121055.73443684 19674.52906347
0.09000000 1111443.67292407 16688.32753290
0.09100000 1101812.58314032 18246.01723402
0.09200000 1092164.57393443 18282.83582671
0.09300000 1082504.42081895 22894.96957620
0.09400000 1072828.70655363 21402.93370163
0.09500000 1063143.39886309 19902.04536217
0.09600000 1053449.52078451 16860.46037273
0.09700000 1043751.42415480 16877.46132204
0.09800000 1034048.72478593 21497.87399908
0.09900000 1024344.70898797 18438.20562879
0.10000000 1014639.39575758 19983.32383920
0.10100000 1004935.84817809 16913.07112029
0.10200000 995236.80969770 15376.40943308
0.10300000 985543.02466658 26136.60224364
0.10400000 975857.79492481 19980.68929108
0.10500000 966183.78906656 23043.48445342
0.10600001 956518.55593067 19957.76060858
0.10700001 946868.81166255 21474.98565907
0.10800001 937233.76515515 15323.77278145
0.10900001 927616.69289212 16836.24376840
0.11000001 918017.82959421 15284.99758220
0.11100001 908439.88445823 18314.14893279
0.11200001 898884.38848849 19806.91843280
0.11300001 889353.04630083 18249.52536930
0.11400001 879848.08212159 18212.85615746
0.11500001 870370.97229055 18173.34675717
0.11600001 860923.07444095 19641.96086834
0.11700001 851506.72273642 27129.00546402
0.11800001 842121.42842336 18038.24184640
0.11900001 832769.98988390 17987.83262875
0.12000001 823453.03460953 16440.24061040
0.12100001 814175.80335011 16389.35969351
0.12200001 804935.65612300 17821.27626615
0.12300001 795736.26007483 16280.76464819
0.12400001 786577.35879993 22122.48925860
0.12500001 777460.32800239 22041.00133745
0.12600001 768389.30786247 17565.38040548
0.12700001 759362.63104427 17495.71584377
0.12800001 750382.50916418 15971.89246030
0.12900001 741450.56033309 15904.11526874
0.13000001 732568.08846056 21592.44542513
0.13100001 723735.03293832 21494.93149149
0.13200001 714953.63628692 15689.65828793
0.13300001 706225.32608136 15614.64269578
0.13400001 697549.76207072 18362.99835225
0.13500001 688930.02943876 15459.59058950
0.13600001 680365.55223627 18175.96658500
0.13700001 671858.27202262 15298.21357532
0.13800001 663407.01382838 20748.05533587
0.13900001 655016.08562349 20633.00767016
0.14000001 646683.49886576 15045.09231065
0.14100001 638412.51518520 20397.28082216
0.14200001 630202.01239781 16221.40056421
0.14300001 622054.63728691 17467.29503891
0.14400001 613967.20510304 13353.78734089
0.14500001 605946.06093472 15924.26323255
0.14600001 597988.46895290 15822.77563492
0.14700001 590096.80418432 17030.19457218
0.14800001 582268.28116637 14315.06636784
0.14900001 574507.31182764 12926.41512600
0.15000001 566812.60010554 19257.45899721
0.15100001 559185.11175386 15299.30537948
0.15200001 551626.51682978 13925.81207449
0.15300001 544136.08399019 12569.54413332
0.15400001 536712.68176435 13726.42748389
0.15500001 529360.16857930 17341.83994107
0.15600001 522075.39692108 18442.31426662
0.15700001 514863.42439990 13422.49010760
0.15800001 507718.58884170 14530.90669849
0.15900001 500646.47178907 14418.61906809
0.16000001 493642.74447769 13113.62012604
0.16100001 486712.76772673 13009.83289545
0.16200001 479853.33570880 17598.62191788
0.16300001 473065.02857964 15128.62032817
0.16400001 466348.92559932 11542.13645348
0.16500001 459703.71803897 19459.25930329
0.16600001 453130.98467094 18161.49072307
0.16700001 446629.67759992 15757.09576969
0.16800001 440200.56835648 22318.16986946
0.16900001 433844.52637854 16594.55391754
0.17000001 427559.12216915 13160.27040179
0.17100001 421346.62720821 14131.96654389
0.17200001 415205.97917074 16161.89350243
0.17300001 409136.91242302 12814.16870223
0.17400001 403140.86592878 11640.69305344
0.17500001 397215.29066350 17827.02308690
0.17600001 391360.32849032 10390.61721216
0.17700001 385579.50259570 12353.96784665
0.17800001 379868.06616864 12239.34967004
0.17900001 374227.63296114 13135.39053737
0.18000001 368659.26390781 11010.00943666
0.18100001 363161.64643471 9914.31341598
0.18200001 357732.61568639 11783.71291735
0.18300001 352374.17616716 11670.63326597
0.18400001 347085.60346455 12521.11373649
0.18500001 341866.80534448 11445.70118365
0.18600001 336717.15450450 10389.40829307
0.18700001 331635.80132574 10287.34304315
0.18800001 326621.31909579 9259.71483385
0.18900001 321678.19404973 10084.61185993
0.19000001 316798.45869102 12706.78677848
0.19100001 311988.61973449 9883.79994020
0.19200001 307244.06478917 11563.13092471
0.19300001 302567.37640293 8804.71106937
0.19400001 297954.68112550 10458.20980170
0.19500001 293407.91229121 8626.19302899
0.19600001 288925.17835122 10245.28730849
0.19700001 284508.28661737 8449.89651186
0.19800001 280153.89983870 14216.41031916
0.19900001 275863.24699381 8275.89780093
0.20000001 271633.84050952 9827.71281410
0.20100001 267468.15166427 9725.14245415
0.20200001 263362.82666370 13632.97736659
0.20300001 259318.87857987 10315.70547748
0.20400001 255335.99279015 8636.74036435
0.20500001 251411.89444110 10099.21627706
0.20600001 247546.76206618 8454.96005802
0.20700001 243740.78581341 9886.12673990
0.20800001 239992.02523294 10533.25048538
0.20900001 236303.22844498 10420.97286704
0.21000001 232668.14400293 10309.52594813
0.21100001 229090.55609622 11656.12804520
0.21200001 225567.33616051 8648.25207724
0.21300001 222098.96794987 8555.25264988
0.21400001 218685.21234773 7757.85827480
0.21500001 215325.91607709 9767.18401503
0.21600001 212017.79331816 8281.41539854
0.21700001 208762.51537909 10239.80186348
0.21800001 205558.99469702 7427.87462457
0.21900001 202405.57395055 10019.07638427
0.22000001 199301.72060856 9249.59329079
0.22100001 196249.05635175 8495.62205117
0.22200001 193244.61597451 7110.43598100
0.22300001 190287.93937214 7033.04257175
0.22400001 187378.28231364 10118.42772340
0.22500001 184517.50094519 7506.17229340
0.22600001 181700.91898731 6186.91658409
0.22700001 178930.86884911 9179.15400603
0.22800001 176205.23379622 7263.18008056
0.22900001 173523.03554047 7782.50851203
0.23000001 170885.03630234 8289.63350306
0.23100001 168291.05370904 7027.83473525
0.23200001 165737.26340623 6951.02115600
0.23300001 163226.39405935 6302.17137269
0.23400001 160755.49975128 6799.95796109
0.23500001 158324.43004141 7846.55912396
0.23600001 155933.44991727 8869.49505080
0.23700001 153581.60242412 6579.43615904
0.23800001 151267.57922687 8134.41445767
0.23900001 148991.49873779 5363.69420826
0.24000001 146751.81568918 6366.09406572
0.24100001 144549.72557433 9444.87951578
0.24200001 142383.30176365 5189.87159478
0.24300001 140251.42777629 6673.16324926
0.24400001 138154.34685306 5584.88973572
0.24500001 136090.58937480 6026.09158258
0.24600001 134060.78589626 5960.34282290
0.24700001 132064.10965306 4912.78511150
0.24800001 130099.23743581 5831.04809772
0.24900001 128165.08079277 5767.42890852
0.25000001 126263.16993361 7606.09371663
0.25100001 124390.81627606 6112.56500098
0.25200001 122550.31465237 5115.86312719
0.25300001 120737.64845986 5060.11508635
0.25400001 118954.99434411 4550.02874893
0.25500001 117198.88514477 4500.43740248
0.25600001 115471.95884459 8012.59960332
0.25700001 113771.50648347 5723.84476200
0.25800001 112097.98298442 5661.50889850
0.25900001 110451.48227657 4738.36881386
0.26000001 108830.05564329 5112.83625604
0.26100001 107233.46582707 5478.55802833
0.26200001 105663.17858750 5002.09511102
0.26300001 104115.54253336 5772.16595117
0.26400001 102593.12006119 4893.69205848
0.26500001 101093.71134320 4033.63927346
0.26600001 99617.13545227  5186.56640275
0.26700001 98163.27090398  3946.16367707
0.26800001 96732.02571719  3903.13742239
0.26900001 95321.71812448  4246.58274340
0.27000001 93933.38815598  6109.42785478
0.27100001 92565.64053977  8308.69228804
0.27200001 91219.15711856  3735.42466078
0.27300001 89892.58590429  4433.50254661
0.27400001 88584.49224257  4750.34362132
0.27500001 87297.93095650  3975.54796390
0.27600001 86028.12219924  6434.04356378
0.27700001 84779.02370783  4242.34254712
0.27800001 83547.18884184  3846.09502036
0.27900001 82333.92360963  5532.83992842
0.28000001 81137.94840043  4445.95409302
0.28100001 79959.61980989  3382.29207804
0.28200001 78798.69684425  4348.50629116
0.28300001 77654.45850453  5623.73615107
0.28400001 76526.15242531  3925.79180523
0.28500001 75414.75400585  3882.35171998
0.28600001 74319.06027353  4479.20997470
0.28700001 73239.69320814  4429.53685489
0.28800001 72174.26875269  3754.50563823
0.28900001 71125.66352252  3403.36316065
0.29000001 70091.19354651  3059.48074312
0.29100001 69072.08699484  3932.96481965
0.29200001 68067.07309200  2991.54800400
0.29300001 67076.42633296  4732.91286609
0.29400001 66099.31035468  2924.89462165
0.29500001 65137.25362784  3181.30361778
0.29600001 64187.48006877  3717.41808416
0.29700001 63251.89431655  3675.56775273
0.29800001 62329.61398250  3075.03165139
0.29900001 61420.60413281  3593.10551186
0.30000001 60523.77610352  3279.17834452
0.30100001 59640.56620159  3512.23310988
0.30200001 58769.02997879  2938.15779288
0.30300001 57910.58123744  3168.86715533
0.30400001 57064.25124900  2871.75858006
0.30500001 56230.40900499  2839.07348507
0.30600001 55407.47017332  4592.72542010
0.30700001 54597.23394023  3279.11002569
0.30800001 53798.30683258  3241.61713167
0.30900001 53011.20607968  4190.53603900
0.31000001 52235.59860320  2924.14894825
0.31100001 51470.78303134  2649.71603590
0.31200001 50718.07227316  3333.69904835
0.31300001 49975.70658404  2589.24148071
0.31400001 49245.76378232  2559.54869377
0.31500001 48525.33102105  2300.10079930
0.31600002 47816.91882938  2501.06405779
0.31700002 47118.41134392  2921.81282578
0.31800002 46430.45628988  2666.03692640
0.31900002 45753.71896616  3513.88578298
0.32000002 45087.46325428  2170.96145849
0.32100002 44431.34322331  2789.84417309
0.32200002 43786.39538692  3394.32153112
0.32300002 43150.04713777  2516.51086823
0.32400002 42525.18194598  2280.41298983
0.32500002 41910.20447270  3074.11364364
0.32600002 41305.31850044  2431.23116206
0.32700002 40710.51674809  3004.43627828
0.32800002 40126.56680590  2178.27078221
0.32900002 39550.53563164  2740.85224906
0.33000002 38985.81604420  2129.21044408
0.33100002 38429.78270917  2487.94425041
0.33200002 37885.03587480  3595.47949996
0.33300002 37349.18763512  2806.79158370
0.33400002 36823.50162546  2590.53346203
0.33500002 36307.00721641  2378.83522547
0.33600002 35799.76158296  1990.64583709
0.33700002 35302.05368519  1789.81420660
0.33800002 34814.56557855  3009.54526396
0.33900002 34335.67673327  1926.23155596
0.34000002 33866.32274475  2251.94123756
0.34100002 33406.36775962  1713.74674723
0.34200002 32956.51537706  2204.29663539
0.34300002 32515.11524385  2013.33603125
0.34400002 32083.51338504  1826.35408594
0.34500002 31660.71125635  1807.51009123
0.34600002 31247.60612287  2277.01316601
0.34700002 30842.44999002  2575.96154517
0.34800002 30447.31201758  1753.30854557
0.34900002 30060.65972997  2525.09553691
0.35000002 29683.31191883  1562.82644655
0.35100002 29315.55744047  2167.00610863
0.35200002 28954.99767944  1533.16719974
0.35300002 28604.68307541  1822.69049189
0.35400002 28262.60457913  1655.48214163
0.35500002 27929.56076867  1640.58247726
0.35600002 27604.55308057  1773.86866498
0.35700002 27288.33747916  1904.99892965
0.35800002 26980.98357078  1743.51124093
0.35900002 26682.76402967  1729.04319102
0.36000002 26392.65814153  2000.82750848
0.36100002 26110.29518560  1843.12582445
0.36200002 25837.87389621  1547.55953032
0.36300002 25572.40725025  2234.00560320
0.36400002 25315.79151403  1940.45551146
0.36500002 25066.55772941  2064.23112679
0.36600002 24826.43619796  1366.69537744
0.36700002 24593.78483761  2036.36548101
0.36800002 24369.99931286  1618.65543103
0.36900002 24153.96291679  1340.54500538
0.37000002 23945.21033392  1599.06122185
0.37100002 23744.25140003  1457.42221997
0.37200002 23551.89155078  1581.27407362
0.37300002 23366.72255201  1835.22247617
0.37400002 23189.05966611  1565.26160161
0.37500002 23019.24423737  1687.77106744
0.37600002 22857.08513421  1680.33869324
0.37700002 22701.97783290  1415.92242451
0.37800002 22554.33863048  1923.32131783
0.37900002 22414.65785868  1277.63555847
0.38000002 22281.33360549  1782.72958623
0.38100002 22154.52292057  1777.23591288
0.38200002 22035.91282357  1392.55957686
0.38300002 21923.39125502  1515.34487533
0.38400002 21818.25047317  1386.00442697
0.38500002 21719.11260850  1509.04401553
0.38600002 21627.68567050  1632.13337645
0.38700002 21541.84483884  1379.10897192
0.38800002 21462.57879710  1753.27814500
0.38900002 21389.74133885  1626.68990589
0.39000002 21323.74628744  1375.70155691
0.39100002 21263.07355023  1375.29566239
0.39200002 21209.02948928  1375.29958239
0.39300002 21160.52725596  1375.64594208
0.39400002 21118.96267547  1376.42845759
0.39500002 21081.97391237  1753.17703361
0.39600002 21050.98560961  1629.66212818
0.39700002 21024.89931435  1757.26116795
0.39800002 21005.43346766  1382.89277786
0.39900002 20990.23909246  1637.23872678
0.40000002 20980.74015475  1514.38989612
0.40100002 20975.91670898  1644.30218872
0.40200002 20976.63158946  1268.03743966
0.40300002 20981.96603705  1780.11008292
0.40400002 20991.95375977  1402.78737646
0.40500002 21006.36148246  1279.28747489
0.40600002 21026.16385155  1925.47104594
0.40700002 21049.79182559  1545.89678492
0.40800002 21077.56112625  1293.10843636
0.40900002 21109.16003397  1298.21340360
0.41000002 21145.65650431  1303.62978526
0.41100002 21185.67325276  1440.20213596
0.41200002 21228.76766696  1446.63444121
0.41300002 21276.87363949  2246.19965655
0.41400002 21327.76148477  1858.71450147
0.41500002 21382.08990085  1334.24247303
0.41600002 21438.92660383  1609.20590713
0.41700002 21500.38915321  2022.11169568
0.41800002 21565.14748600  1490.90654209
0.41900002 21631.09347586  1362.75895355
0.42000002 21700.53495471  1370.38884733
0.42100002 21773.37996168  1791.73152195
0.42200002 21848.55557085  1386.29091666
0.42300002 21925.72908785  2510.05758492
0.42400002 22005.27153135  2665.38864054
0.42500002 22087.47608465  1693.66774643
0.42600002 22170.63492558  1704.03508113
0.42700002 22256.92555245  1714.67362581
0.42800002 22344.41868529  1869.22243369
0.42900002 22434.57478845  1881.13918515
0.43000002 22525.90225387  1601.92961469
0.43100002 22617.48698976  1905.29719430
0.43200002 22711.75460805  1475.12853170
0.43300002 22806.48043346  1781.64233589
0.43400002 22902.90492216  1793.29754039
0.43500002 22999.76136788  1955.43980416
0.43600002 23098.25195791  1968.31763387
0.43700002 23196.87217352  1676.43803143
0.43800002 23295.74610732  1994.23244002
0.43900002 23396.28114809  2316.23194343
0.44000002 23496.53692526  1554.29599126
0.44100002 23597.45768505  1564.51151866
0.44200002 23698.48610415  2519.62316200
0.44300002 23799.81917728  1902.08163879
0.44400002 23900.93550461  2074.00377670
0.44500002 24001.55124643  1766.27423993
0.44600002 24101.87242745  1939.23674742
0.44700002 24202.97055018  1951.72763766
0.44800002 24302.53109276  2455.16332000
0.44900002 24402.14580289  2470.71737963
0.45000002 24501.67108689  1989.04575310
0.45100002 24599.43574670  2835.33109854
0.45200002 24696.98006311  1845.97586230
0.45300002 24793.28353224  1688.42268856
0.45400002 24888.81790880  1868.52809306
0.45500002 24983.57517932  1879.76428558
0.45600002 25076.72808833  1719.00979193
0.45700002 25169.06327505  2074.93767473
0.45800002 25259.65265717  2608.69075181
0.45900002 25348.92720229  2098.89127182
0.46000002 25437.13105565  2110.77323504
0.46100002 25523.05747176  1768.74796662
0.46200002 25608.02644462  2845.56403339
0.46300002 25691.07267298  1788.09874279
0.46400002 25771.88797025  2336.86605246
0.46500002 25852.01397374  2349.17262113
0.46600002 25929.12205643  2179.60210337
0.46700002 26004.37896346  2373.15973668
0.46800002 26078.29676331  2751.91239638
0.46900002 26149.43727185  2580.94958106
0.47000002 26218.52314135  2408.04037205
0.47100002 26285.71398428  1861.02863829
0.47200002 26350.66603680  2243.49581271
0.47300002 26413.22428638  2441.37443650
0.47400002 26472.90404865  2452.05285373
0.47500002 26530.62750278  2841.43034022
0.47600002 26586.57017897  2282.72302376
0.47700002 26638.90955324  2101.01089605
