# SAXS profile: number of points = 501, q_min = 0, q_max = 0.5, delta_q = 0.001
#    q    intensity    error
0.00000000 1664650.74656090 274.66737318
0.00100000 1664569.79425476 699.11933019
0.00200000 1664326.88014255 898.73654374
0.00300000 1663922.22256062 1397.69471674
0.00400000 1663355.68432290 1871.27521597
0.00500000 1662627.77266902 1795.63806556
0.00600000 1661738.39875703 2093.79046768
0.00700000 1660688.13523404 2391.39101412
0.00800000 1659476.76500090 2464.32310007
0.00900000 1658105.55378907 3233.30596811
0.01000000 1656573.81326445 3006.68160090
0.01100000 1654882.87829459 3872.42610381
0.01200000 1653032.65303685 3545.75519622
0.01300000 1651024.24568596 4854.01149640
0.01400000 1648857.70592949 5564.89500421
0.01500000 1646534.43303512 4346.85109677
0.01600000 1644053.82993832 4611.57119913
0.01700000 1641418.19855732 6647.74400237
0.01800000 1638627.27507496 5137.09673852
0.01900000 1635681.91919385 5397.75057690
0.02000000 1632583.31114369 7199.69272783
0.02100000 1629333.27665745 8065.20008512
0.02200000 1625930.42269591 6731.35225578
0.02300000 1622378.03574934 7008.67343346
0.02400000 1618675.48136221 7891.04333145
0.02500000 1614825.51674766 7557.38376353
0.02600000 1610827.92348070 7828.62406618
0.02700000 1606684.92051374 8097.69237027
0.02800000 1602396.25778219 6970.42404101
0.02900000 1597964.54509129 9348.09301799
0.03000000 1593390.96616662 10372.97566654
0.03100000 1588675.98724435 8388.20959862
0.03200000 1583820.95291570 7839.91407802
0.03300000 1578829.75490076 8857.23533332
0.03400000 1573700.40573125 9914.31301356
0.03500000 1568436.06168480 8469.55512421
0.03600000 1563038.18900870 11277.32105486
0.03700000 1557508.30364901 11541.13706379
0.03800000 1551847.95338705 10893.97313695
0.03900000 1546059.30305388 9276.35624791
0.04000000 1540142.17852496 15154.99973895
0.04100000 1534100.47409834 11597.80012193
0.04200000 1527934.94035529 17739.32548050
0.04300000 1521646.53912203 16068.58819900
0.04400000 1515238.83017448 12273.43509442
0.04500000 1508713.05537671 12492.14467897
0.04600000 1502069.18601915 14825.42355520
0.04700000 1495311.53631425 13996.11663083
0.04800000 1488440.43026232 12034.04143859
0.04900000 1481459.55523058 12222.04189956
0.05000000 1474368.59477895 14662.59635786
0.05100000 1467171.99965867 17165.91319566
0.05200000 1459868.10219890 15087.73753933
0.05300000 1452462.84835027 15294.43450612
0.05400000 1444956.25138968 16689.24548183
0.05500000 1437350.73883347 12073.74676943
0.05600000 1429647.65802168 13445.83685113
0.05700000 1421851.53536558 17318.15250914
0.05800000 1413961.65979917 17518.98578292
0.05900000 1405980.47837260 13919.20738600
0.06000000 1397911.98569897 12790.89526672
0.06100000 1389757.23235913 14217.21715142
0.06200000 1381518.35194743 14360.88393977
0.06300000 1373198.73649576 14500.97933539
0.06400000 1364796.78608369 15968.12314396
0.06500000 1356318.87226417 17455.82470258
0.06600000 1347765.92116750 14899.55295563
0.06700000 1339139.18049097 21854.75244839
0.06800000 1330442.06092833 16524.09117021
0.06900000 1321677.01175394 19428.65298241
0.07000000 1312844.93069396 15379.97908330
0.07100000 1303948.54236325 14082.64491712
0.07200000 1294990.44581827 22688.23367361
0.07300000 1285973.43002374 14274.30574209
0.07400000 1276899.38282776 17238.14247603
0.07500000 1267770.17028821 21678.87092807
0.07600000 1258586.91342768 15990.34748474
0.07700000 1249354.75634718 20464.43186851
0.07800000 1240074.11164557 16164.36680335
0.07900000 1230746.69268761 23630.33760795
0.08000000 1221376.95566318 16323.70377820
0.08100000 1211965.39830884 19379.32762820
0.08200000 1202514.09893524 19462.69160456
0.08300000 1193026.38848206 18038.55984043
0.08400000 1183503.83803669 19616.57703623
0.08500000 1173948.84337651 19687.12302764
0.08600000 1164363.36575306 16714.43690015
0.08700000 1154751.21737526 16766.98846363
0.08800000 1145111.44769473 15287.23854467
0.08900000 1135449.77856666 16861.43000369
0.09000000 1125766.13385761 16903.37929392
0.09100000 1116062.84787098 20022.16843147
0.09200000 1106342.11756226 16976.82059168
0.09300000 1096608.77376378 17008.40288034
0.09400000 1086859.66126429 21682.85126126
0.09500000 1077100.56984621 20163.32361525
0.09600000 1067332.58118322 18635.62774348
0.09700000 1057560.01520155 15546.13295433
0.09800000 1047782.41135038 18671.48344815
0.09900000 1038003.27134948 18684.05976286
0.10000000 1028222.43828885 17135.32773991
0.10100000 1018443.07088299 18698.61566084
0.10200000 1008667.87047312 18700.70319818
0.10300000 998897.62828100 18699.36448105
0.10400000 989135.95952096 24926.22735258
0.10500000 979384.94632167 20243.88779293
0.10600001 969642.39553106 15562.76118056
0.10700001 959915.38302720 17105.69293050
0.10800001 950202.62962577 15535.81372552
0.10900001 940507.62465399 23277.56480576
0.11000001 930830.79678494 23247.50024395
0.11100001 921174.57568017 20118.45367990
0.11200001 911540.59710279 15450.61384826
0.11300001 901930.75485733 23134.52495128
0.11400001 892346.85028907 16932.28228148
0.11500001 882791.02087385 16896.62093515
0.11600001 873263.87020734 19923.51613701
0.11700001 863768.44746777 21404.18313628
0.11800001 854303.63027555 15249.32051864
0.11900001 844872.60577444 16728.47838227
0.12000001 835476.22156096 15163.89413563
0.12100001 826119.40314867 16629.78436878
0.12200001 816799.56359445 16576.94792411
0.12300001 807520.51133575 16521.87044035
0.12400001 798281.47366212 20954.88967097
0.12500001 789084.55773300 20879.17838145
0.12600001 779933.57034853 16343.50873682
0.12700001 770826.99971061 16279.86700110
0.12800001 761766.97668197 20636.26837089
0.12900001 752754.82131929 20550.20759059
0.13000001 743792.43708771 23384.83532428
0.13100001 734879.18646711 18915.79115131
0.13200001 726017.98625374 28968.11901709
0.13300001 717209.80633293 14415.91778690
0.13400001 708454.24353604 14346.19910797
0.13500001 699754.62757464 15702.49458312
0.13600001 691110.33459001 24143.94067731
0.13700001 682523.22112847 15541.05447791
0.13800001 673992.16047367 21079.10581281
0.13900001 665521.88364914 22361.53634514
0.14000001 657109.83292074 13897.87362171
0.14100001 648759.31458218 15200.43145756
0.14200001 640469.57210676 16485.68756358
0.14300001 632243.21462532 15022.09948805
0.14400001 624076.74632214 14931.03686005
0.14500001 615976.81414496 14838.88215273
0.14600001 607940.29812487 13405.08420603
0.14700001 599970.10793991 17315.13813201
0.14800001 592063.27303285 15879.13773190
0.14900001 584223.98522167 14459.54431645
0.15000001 576451.12763993 16973.60425422
0.15100001 568745.96334646 22044.59457948
0.15200001 561109.72423545 16740.70941251
0.15300001 553541.92673769 16622.86484435
0.15400001 546041.26207926 17773.64391944
0.15500001 538611.61082298 13863.86351686
0.15600001 531250.03894561 13762.03290838
0.15700001 523961.60690728 13659.67973677
0.15800001 516740.24804485 18486.38324634
0.15900001 509592.12713329 12230.21162847
0.16000001 502512.69658444 13349.25041488
0.16100001 495506.95536665 13244.90154217
0.16200001 488572.18156322 14334.70848375
0.16300001 481708.91184626 18960.06366533
0.16400001 474918.09332731 15280.49037419
0.16500001 468198.48717248 11658.14288099
0.16600001 461551.89895853 15030.43829922
0.16700001 454976.55496892 14905.03264452
0.16800001 448473.72378260 12505.69037815
0.16900001 442044.66072030 13526.56725674
0.17000001 435686.47488178 16763.03791262
0.17100001 429401.34084906 14402.12165216
0.17200001 423188.25502879 13178.08288390
0.17300001 417047.53503878 14150.42353211
0.17400001 410979.85213318 12945.86595358
0.17500001 404983.15990116 13899.02270423
0.17600001 399057.32609799 10594.97250829
0.17700001 393205.93536652 10498.59897014
0.17800001 387424.41279860 11442.58057246
0.17900001 381714.08447323 16490.04922813
0.18000001 376076.52564874 10210.47815366
0.18100001 370509.93613396 10114.92173425
0.18200001 365012.16744918 12023.50136374
0.18300001 359585.62865896 12901.93296576
0.18400001 354229.06432136 11795.82839914
0.18500001 348942.81006148 15576.80777703
0.18600001 343726.20851983 14462.28090672
0.18700001 338578.10899872 10502.69343734
0.18800001 333497.28864327 12291.04315365
0.18900001 328488.25015275 10298.10712885
0.19000001 323543.19231705 14831.22063657
0.19100001 318668.30459699 9177.64760604
0.19200001 313858.98026732 12720.70507130
0.19300001 309118.29599176 10794.41140610
0.19400001 304441.85173492 12466.89441765
0.19500001 299831.90572262 8815.05844480
0.19600001 295286.10833339 9598.27540496
0.19700001 290806.75460147 8636.96101983
0.19800001 286390.37174824 11113.37890090
0.19900001 282038.09242685 9307.25748995
0.20000001 277747.57830979 10048.90785817
0.20100001 273521.19322815 11602.76956511
0.20200001 269355.62413250 10662.44288523
0.20300001 265251.90390369 11363.39210032
0.20400001 261209.53332742 11245.07094125
0.20500001 257226.42934351 8743.12674665
0.20600001 253302.90844460 8651.56124687
0.20700001 249438.83041457 7782.49187681
0.20800001 245632.52702249 11550.87012924
0.20900001 241886.60634727 12191.08553619
0.21000001 238194.81976461 9800.52632251
0.21100001 234561.02636516 10442.65738744
0.21200001 230982.14193452 7379.87978369
0.21300001 227458.38963412 9491.83904816
0.21400001 223989.74746989 7223.66969741
0.21500001 220576.10026021 7861.33258494
0.21600001 217214.12009601 7070.31994340
0.21700001 213905.38117472 7694.17692463
0.21800001 210648.96592944 8995.76451534
0.21900001 207442.88556250 8899.30021140
0.22000001 204286.91886115 7449.32284849
0.22100001 201182.59090723 8709.19477218
0.22200001 198127.05314085 8615.55531321
0.22300001 195119.66449166 6556.02103692
0.22400001 192159.67346088 7133.92821457
0.22500001 189249.07893402 7698.65289508
0.22600001 186383.23548912 6346.34946851
0.22700001 183564.25754894 6905.68769556
0.22800001 180790.11401902 7452.16885228
0.22900001 178059.97839291 6757.37649957
0.23000001 175374.53089730 6076.72778297
0.23100001 172733.42564557 6612.23584642
0.23200001 170133.16953269 8919.23183457
0.23300001 167576.13699579 6470.11495541
0.23400001 165059.29344386 5818.34036908
0.23500001 162583.07737381 6330.98533237
0.23600001 160147.34231128 8539.85743266
0.23700001 157750.99086205 6758.05276817
0.23800001 155393.00119072 6685.00722742
0.23900001 153073.40554399 6612.77143228
0.24000001 150790.71127547 7086.40981158
0.24100001 148545.93958373 5931.43964814
0.24200001 146337.37395481 8534.39605274
0.24300001 144163.78147375 6859.31304699
0.24400001 142025.23667153 6263.31323349
0.24500001 139920.59997173 5163.07038319
0.24600001 137850.24892966 6128.82235734
0.24700001 135813.59482402 6062.71915975
0.24800001 133809.12078660 7496.65634671
0.24900001 131835.65517879 7910.13968494
0.25000001 129894.97003518 5868.65502383
0.25100001 127984.19072019 5321.58290190
0.25200001 126105.77651109 5742.85733401
0.25300001 124255.46921443 5680.96032125
0.25400001 122435.60578866 6088.11078588
0.25500001 120642.65639053 5559.21386949
0.25600001 118879.52424275 6415.92822694
0.25700001 117143.09537897 5893.46940736
0.25800001 115433.91351505 5829.99007792
0.25900001 113752.37557171 6654.51428580
0.26000001 112096.07014832 6143.98589554
0.26100001 110465.04364699 4775.40406281
0.26200001 108860.56551170 5153.45941517
0.26300001 107279.50371948 4248.26854831
0.26400001 105723.61288153 4622.76519199
0.26500001 104191.35937445 4157.23543576
0.26600001 102682.25167310 4112.42437411
0.26700001 101196.25156760 5288.51635718
0.26800001 99733.25704905  5633.93195730
0.26900001 98291.38837868  5573.12198480
0.27000001 96871.90398931  3937.84308351
0.27100001 95473.40215940  5063.90949017
0.27200001 94096.54131723  4238.57890422
0.27300001 92739.92542301  4573.93333832
0.27400001 91402.07102319  4147.36916895
0.27500001 90086.13572889  4848.43605438
0.27600001 88787.35951740  4426.93795505
0.27700001 87509.49172326  4014.06057532
0.27800001 86249.27851822  3609.53247682
0.27900001 85007.92154745  4998.46602356
0.28000001 83784.19372309  3884.65432583
0.28100001 82578.36189516  4191.67784819
0.28200001 81390.37408047  3800.52369756
0.28300001 80219.32918216  4442.54666037
0.28400001 79064.46064147  3718.00643764
0.28500001 77926.88983640  3677.37010543
0.28600001 76805.26770954  3306.46693140
0.28700001 75700.26968288  3270.25180509
0.28800001 74609.49278158  3881.18599821
0.28900001 73535.95458497  3518.69559344
0.29000001 72476.61752905  3479.96495538
0.29100001 71433.01830534  4380.27288982
0.29200001 70403.77738224  4641.36924363
0.29300001 69389.22983800  3366.07169878
0.29400001 68388.44731704  3631.42672443
0.29500001 67402.95202706  3890.49857517
0.29600001 66430.01652508  4143.24032680
0.29700001 65471.51396152  2926.57681262
0.29800001 64526.54230580  3472.81867130
0.29900001 63595.28740067  2861.78806850
0.30000001 62676.14765594  3395.79384075
0.30100001 61771.09489417  4477.16916988
0.30200001 60877.81203206  3320.27602541
0.30300001 59997.93944803  3283.08740202
0.30400001 59130.47318794  2705.21927642
0.30500001 58275.63659010  3477.30739995
0.30600001 57431.88156531  2909.21209842
0.30700001 56601.04287529  3137.96196557
0.30800001 55781.84120358  2844.03730841
0.30900001 54974.61912876  3323.21588367
0.31000001 54179.12252797  3538.43865983
0.31100001 53394.63302199  2998.64273249
0.31200001 52622.40186748  2717.68407312
0.31300001 51860.72853647  3419.69660160
0.31400001 51111.67568213  3381.03750645
0.31500001 50372.15432410  2387.64022801
0.31600002 49645.12866993  3304.87637204
0.31700002 48928.07334471  3500.80381357
0.31800002 48221.68398874  2999.62999455
0.31900002 47526.80797517  2737.54426899
0.32000002 46842.65302066  3383.21077461
0.32100002 46168.54347154  2452.93483079
0.32200002 45506.00926066  2866.19612900
0.32300002 44852.22847426  3705.69129201
0.32400002 44210.07388431  2155.24120391
0.32500002 43577.81881000  2557.14652886
0.32600002 42955.86116865  2739.08061712
0.32700002 42344.22290484  2500.00303868
0.32800002 41743.55774366  2884.06254108
0.32900002 41150.99619141  2444.36928952
0.33000002 40569.82156621  2417.15008338
0.33100002 39997.48052587  3186.99939922
0.33200002 39436.61796389  3348.76057298
0.33300002 38884.70344738  2142.93610846
0.33400002 38343.08971601  2504.76245431
0.33500002 37810.87857654  3430.20306690
0.33600002 37288.01175895  2450.38180878
0.33700002 36774.80655577  2050.93105874
0.33800002 36271.91261423  2028.86952816
0.33900002 35777.80643403  2007.13503600
0.34000002 35293.22131587  1985.77319138
0.34100002 34818.33300797  3036.50696543
0.34200002 34353.55332172  1944.23944232
0.34300002 33897.25084330  2273.82769426
0.34400002 33450.99813898  1731.08923568
0.34500002 33013.58020508  2398.76685131
0.34600002 32586.06975149  1865.71551198
0.34700002 32166.48566563  1846.99969440
0.34800002 31757.12296141  1828.73401234
0.34900002 31356.17529985  1810.81920933
0.35000002 30964.77406980  1793.32497519
0.35100002 30583.01502225  1776.26159662
0.35200002 30208.57712478  2079.40750487
0.35300002 29844.40396702  1901.68551085
0.35400002 29488.46595578  2355.39132978
0.35500002 29141.76580485  1556.17036769
0.35600002 28803.29622225  1542.41658576
0.35700002 28473.56529080  1834.83663425
0.35800002 28152.81749081  1667.63222306
0.35900002 27841.24615487  2255.14104536
0.36000002 27537.89293272  1640.29467023
0.36100002 27242.35010847  1479.25968096
0.36200002 26956.88377407  1614.58263012
0.36300002 26678.29787492  2184.95269945
0.36400002 26408.73969466  2024.22999348
0.36500002 26146.62542272  1722.53976444
0.36600002 25893.62829642  1710.53316629
0.36700002 25648.23633423  1840.51752653
0.36800002 25411.74924764  1828.50250373
0.36900002 25183.09402344  1677.19414141
0.37000002 24961.71403228  1528.03139687
0.37100002 24748.25164238  1795.23825918
0.37200002 24543.35575403  1922.48114728
0.37300002 24345.88654415  2321.86730970
0.37400002 24155.89037572  1766.39956740
0.37500002 23973.71347401  2028.17625598
0.37600002 23799.36698728  1480.43969357
0.37700002 23632.13661705  1473.93643063
0.37800002 23472.27002416  2135.03778254
0.37900002 23320.58269782  1860.98258745
0.38000002 23175.23094683  1854.25031590
0.38100002 23036.44623377  1583.98611807
0.38200002 22905.88387295  1842.32032718
0.38300002 22781.62502595  1574.66599639
0.38400002 22664.61396418  1832.43412581
0.38500002 22553.72307204  1697.61881606
0.38600002 22450.57033539  1433.58123668
0.38700002 22353.07650294  1431.04402551
0.38800002 22262.15737640  1948.49541668
0.38900002 22177.72891374  1556.87664350
0.39000002 22100.20224963  1685.03000035
0.39100002 22027.97788496  1942.86774150
0.39200002 21962.62758245  1812.57574025
0.39300002 21902.64762616  1553.33584324
0.39400002 21849.76918044  1424.05877380
0.39500002 21801.51631223  1424.51114333
0.39600002 21759.20623567  1943.64118909
0.39700002 21721.92799932  1556.15899560
0.39800002 21691.29902651  1687.69160072
0.39900002 21664.94195157  1299.89657868
0.40000002 21644.37682964  1822.67305918
0.40100002 21628.52453789  1434.62010057
0.40200002 21618.21530980  1698.86753061
0.40300002 21612.57317397  1833.61079496
0.40400002 21611.77023059  1444.20661409
0.40500002 21615.20746209  1579.63943617
0.40600002 21624.21424122  2112.25334716
0.40700002 21637.08344838  1853.86539770
0.40800002 21654.11296117  1727.02386105
0.40900002 21675.10827188  1999.52883282
0.41000002 21700.92026405  2006.79269650
0.41100002 21730.36089593  1342.93636700
0.41200002 21762.88559686  1752.67407459
0.41300002 21800.50076140  2030.71674215
0.41400002 21840.89193496  1495.55514611
0.41500002 21884.82667087  1638.73589876
0.41600002 21931.22684865  1646.15796526
0.41700002 21982.33675597  1653.95109589
0.41800002 22036.86853011  1800.52242857
0.41900002 22092.55388929  1670.19715317
0.42000002 22151.81402766  1538.77583435
0.42100002 22214.59605997  1546.80239695
0.42200002 22279.60344362  1696.36908658
0.42300002 22346.71822521  1847.62675041
0.42400002 22416.24258003  1429.03553219
0.42500002 22488.57879423  1580.72227835
0.42600002 22561.85972042  1589.59590193
0.42700002 22638.31306031  1598.71774408
0.42800002 22715.92628567  1754.12391090
0.42900002 22796.36160200  1764.43847161
0.43000002 22878.07262422  1479.06746524
0.43100002 22960.02037914  1636.59033018
0.43200002 23044.64750687  1796.09991180
0.43300002 23129.87987909  2559.78392752
0.43400002 23216.82673612  2272.34702448
0.43500002 23304.26900600  1981.32904478
0.43600002 23393.41475841  1840.12609210
0.43700002 23482.67555311  1697.09304265
0.43800002 23572.38485309  2017.91410098
0.43900002 23663.67484117  1874.16313624
0.44000002 23754.77357812  1728.51618133
0.44100002 23846.62803322  2055.34096759
0.44200002 23938.63568571  1908.86690004
0.44300002 24030.98145104  1760.50978453
0.44400002 24123.21423668  2415.33693991
0.44500002 24214.96967596  1943.97785771
0.44600002 24306.51525108  1792.72711730
0.44700002 24398.89220277  1803.56619710
0.44800002 24489.76153500  2309.13972457
0.44900002 24580.90325951  2156.97436325
0.45000002 24671.80161811  2002.85695028
0.45100002 24761.15841999  1846.68728248
0.45200002 24850.36705358  1857.44077345
0.45300002 24938.27231272  1698.29642498
0.45400002 25025.53176254  2220.39041086
0.45500002 25112.15816233  2232.97320962
0.45600002 25197.19846651  1899.99484041
0.45700002 25281.51742635  2084.20839541
0.45800002 25364.10325252  2095.58231004
0.45900002 25445.43424669  1931.30855086
0.46000002 25525.79704671  1941.61984438
0.46100002 25603.91217846  2838.96191690
0.46200002 25681.13638948  2140.26600814
0.46300002 25756.67052476  3047.52940093
0.46400002 25829.90887400  2161.96347522
0.46500002 25902.50994929  3077.99540316
0.46600002 25972.24412142  2183.22694432
0.46700002 26040.12459795  2193.62020010
0.46800002 26106.82258265  2020.27656131
0.46900002 26170.75665193  2583.05380397
0.47000002 26232.74578789  2224.01229331
0.47100002 26292.93593969  2420.00193859
0.47200002 26350.92944342  2243.51823915
0.47300002 26406.64634489  1877.51264411
0.47400002 26459.51961203  1885.24086171
0.47500002 26510.50813243  1892.85037037
0.47600002 26559.82656126  1900.35568053
0.47700002 26605.60856400  1907.62222446
