# SAXS profile: number of points = 501, q_min = 0, q_max = 0.5, delta_q = 0.001
#    q    intensity    error
0.00000000 1646666.22097351 271.69992646
0.00100000 1646585.71661232 592.77087206
0.00200000 1646344.13853582 1037.19684012
0.00300000 1645941.71091024 1185.07807407
0.00400000 1645378.30884407 1480.84053423
0.00500000 1644654.40746949 1776.22683037
0.00600000 1643769.94448809 1898.55436318
0.00700000 1642725.48413412 2562.65186175
0.00800000 1641520.79807801 3324.07975645
0.00900000 1640157.15310901 3198.30658528
0.01000000 1638633.90521033 2974.12066638
0.01100000 1636952.31675531 4125.12001783
0.01200000 1635112.33062900 4145.00993988
0.01300000 1633115.04190831 4801.35843497
0.01400000 1630960.48408014 3669.66125186
0.01500000 1628650.12703798 4690.51257473
0.01600000 1626183.30731494 4976.12114283
0.01700000 1623562.29670284 5260.34207729
0.01800000 1620786.90347191 6466.94003585
0.01900000 1617857.94095926 5338.93144607
0.02000000 1614776.57503796 7629.81966219
0.02100000 1611544.68137265 6913.52699654
0.02200000 1608160.79113805 7767.41697409
0.02300000 1604628.32451907 6931.99467746
0.02400000 1600946.48673677 7204.25951881
0.02500000 1597118.06777109 6851.63682366
0.02600000 1593142.92395733 9678.34370571
0.02700000 1589023.22294739 11345.62633149
0.02800000 1584758.74144427 13098.03159871
0.02900000 1580351.95606860 9956.21778036
0.03000000 1575804.30054062 8792.98840119
0.03100000 1571115.90120268 9803.76367461
0.03200000 1566288.32302102 10079.06582286
0.03300000 1561325.45372078 8759.03619917
0.03400000 1556225.34661867 9804.22013607
0.03500000 1550991.07539455 14238.09872961
0.03600000 1545623.92289524 11151.67711905
0.03700000 1540125.65376006 14045.94661188
0.03800000 1534497.78306087 9874.49369098
0.03900000 1528742.33129191 11006.94529503
0.04000000 1522859.27424690 10302.14346767
0.04100000 1516852.44127909 13378.63915240
0.04200000 1510722.51512314 11692.99280952
0.04300000 1504470.50299225 13901.30809292
0.04400000 1498100.00247951 11123.39303500
0.04500000 1491612.22341744 12350.54978376
0.04600000 1485007.11698849 11516.23072760
0.04700000 1478288.99975934 10643.68129328
0.04800000 1471458.27244154 12978.26256679
0.04900000 1464518.44728060 12082.27775246
0.05000000 1457469.15976839 13379.56750971
0.05100000 1450315.17852795 15837.44248730
0.05200000 1443054.63353556 11472.28487123
0.05300000 1435693.37103475 11629.11684751
0.05400000 1428231.58494648 20030.94891299
0.05500000 1420671.53990744 17900.46223788
0.05600000 1413014.51630815 12081.27467820
0.05700000 1405265.37929100 12225.80937051
0.05800000 1397423.25130556 12367.19635151
0.05900000 1389490.25926875 13755.95420924
0.06000000 1381470.81770843 15168.55028710
0.06100000 1373365.79617690 14049.53275144
0.06200000 1365177.22038300 16771.20293635
0.06300000 1356908.79017121 16934.22249310
0.06400000 1348558.63868460 15778.13681050
0.06500000 1340132.99363012 14594.04898331
0.06600000 1331633.10791012 17397.78736886
0.06700000 1323059.91654181 16194.25413635
0.06800000 1314417.16020440 13604.21824492
0.06900000 1305707.07824013 15080.91745975
0.07000000 1296930.61710938 15193.54289093
0.07100000 1288090.45551705 13911.37757116
0.07200000 1279189.24270283 19609.97200930
0.07300000 1270229.46379896 16919.45725057
0.07400000 1261213.48704986 18445.24811253
0.07500000 1252142.84805300 19984.20079164
0.07600000 1243018.87072903 15792.55549298
0.07700000 1233846.41485993 15879.60410382
0.07800000 1224626.00352761 15963.00070459
0.07900000 1215359.41344259 17501.17637444
0.08000000 1206051.25127499 21980.28508561
0.08100000 1196701.58059117 17663.31615826
0.08200000 1187312.76851595 16260.24912784
0.08300000 1177888.14922698 20777.94792751
0.08400000 1168429.12851736 19366.71371422
0.08500000 1158938.29476364 16445.33517472
0.08600000 1149417.41100245 16499.88770963
0.08700000 1139870.12011609 22569.42943811
0.08800000 1130296.01805900 16598.39780472
0.08900000 1120700.43107260 19668.29348914
0.09000000 1111083.15090351 21232.80001119
0.09100000 1101446.82652824 16719.96361222
0.09200000 1091793.40888241 18276.62252345
0.09300000 1082127.95249141 22887.00727070
0.09400000 1072447.31747738 16810.61249151
0.09500000 1062756.95984595 16834.07103521
0.09600000 1053057.93460177 15321.99366871
0.09700000 1043354.80856678 16871.04804768
0.09800000 1033647.15448164 18419.59315891
0.09900000 1023938.42998402 18430.89260638
0.10000000 1014228.32775355 16902.11587687
0.10100000 1004520.12353368 16906.07447419
0.10200000 994816.41996776 16906.90585259
0.10300000 985118.01499287 24588.54681089
0.10400000 975428.49236265 21508.19926845
0.10500000 965750.03113827 18426.51146107
0.10600001 956080.39926994 16879.60024336
0.10700001 946426.39649921 21464.95168269
0.10800001 936787.11121035 24506.35198257
0.10900001 927166.07732679 19887.71329469
0.11000001 917563.18905146 16805.17059849
0.11100001 907981.34455122 18304.90476783
0.11200001 898422.08132691 21319.55699355
0.11300001 888887.06390910 15199.96950847
0.11400001 879378.46097802 22753.91874916
0.11500001 869897.95217121 18163.47009662
0.11600001 860446.51965318 22651.25569655
0.11700001 851026.90377371 21088.44766867
0.11800001 841638.38839140 24037.19350457
0.11900001 832283.85322727 16479.22107010
0.12000001 822963.95902639 19417.83552790
0.12100001 813683.80384608 17868.49717421
0.12200001 804441.05922926 20778.71353880
0.12300001 795239.01335681 14791.44634533
0.12400001 786077.51597935 17686.74494289
0.12500001 776957.95867087 20558.30855515
0.12600001 767884.78443382 20479.48816591
0.12700001 758855.95947480 24769.05968453
0.12800001 749873.61498410 17412.06616055
0.12900001 740939.72649462 20227.65548667
0.13000001 732055.53285514 15823.38108850
0.13100001 723220.84970861 20047.68289892
0.13200001 714437.86565519 22804.85774674
0.13300001 705708.19576676 15603.20894398
0.13400001 697031.31002458 18349.35010149
0.13500001 688410.22333307 22469.71074900
0.13600001 679844.75784152 15367.89147562
0.13700001 671336.50129358 18065.66610167
0.13800001 662884.36032868 15203.25352106
0.13900001 654492.80557349 20616.52434780
0.14000001 646159.67871470 17766.16120412
0.14100001 637888.15091050 16304.42190624
0.14200001 629677.54588765 13506.58399633
0.14300001 621530.00333539 22822.58279896
0.14400001 613442.59895615 17345.09030365
0.14500001 605421.59238984 18562.22689829
0.14600001 597464.27419455 14491.49665422
0.14700001 589572.97530130 14397.37273608
0.14800001 581744.87229148 14302.19836004
0.14900001 573984.56804964 15497.58406853
0.15000001 566290.55860684 19239.72263645
0.15100001 558664.12831146 12737.54272652
0.15200001 551106.53600329 18971.84339714
0.15300001 543617.41140126 18836.34419392
0.15400001 536195.24114076 16206.50192828
0.15500001 528844.08650817 14849.94264996
0.15600001 521560.97043485 14739.31372011
0.15700001 514350.86521683 15847.15090527
0.15800001 507207.78289901 16935.66867034
0.15900001 500137.71626077 16804.62805955
0.16000001 493136.08166074 15482.00801453
0.16100001 486208.36135482 12996.35011250
0.16200001 479351.27981261 15236.18114808
0.16300001 472565.53952340 12787.62410318
0.16400001 465851.95039527 16141.77084324
0.16500001 459209.54879065 12577.75013519
0.16600001 452639.89685513 11338.62995155
0.16700001 446141.50815474 12367.04318996
0.16800001 439715.60265162 15605.50747494
0.16900001 433362.91984442 15471.05696896
0.17000001 427080.97966704 12050.09041031
0.17100001 420871.88025023 15201.89303249
0.17200001 414734.81761811 11838.60592796
0.17300001 408669.56369333 15999.41417416
0.17400001 402677.52498842 13741.37118918
0.17500001 396755.87828342 12569.22681763
0.17600001 390905.05430612 13492.08858660
0.17700001 385128.46204133 13367.80954882
0.17800001 379421.40115853 10187.46510228
0.17900001 373785.51598420 15138.31411240
0.18000001 368221.75697440 12996.38752630
0.18100001 362728.91645105 11882.99986425
0.18200001 357304.67815852 9808.01387876
0.18300001 351951.16015227 10685.23772699
0.18400001 346667.65940826 15392.04480486
0.18500001 341453.97271181 10479.22291759
0.18600001 336309.63208583 11320.18275081
0.18700001 331233.64678024 10274.86820856
0.18800001 326224.43986273 13872.69496059
0.18900001 321286.94742032 10072.34627752
0.19000001 316412.83019931 11784.79641759
0.19100001 311608.72913116 13461.49773452
0.19200001 306870.05041850 9772.27721733
0.19300001 302199.39714318 9673.40315965
0.19400001 297592.63496351 14797.79447281
0.19500001 293052.00531395 10338.87523604
0.19600001 288575.47598791 10232.88686210
0.19700001 284164.76195269 10971.60197748
0.19800001 279816.70923710 12528.79374819
0.19900001 275532.45912558 9919.16899730
0.20000001 271309.68450257 9815.98484922
0.20100001 267150.53722738 9713.59399267
0.20200001 263051.84404505 8009.92902975
0.20300001 259014.65754595 13473.94312238
0.20400001 255038.55784231 11763.65403649
0.20500001 251121.23886387 7759.64664767
0.20600001 247263.14744049 10748.52952730
0.20700001 243464.08500253 9115.29577337
0.20800001 239722.34425202 12024.47335608
0.20900001 236040.67756306 8178.80986418
0.21000001 232412.73894354 8091.44988882
0.21100001 228842.35425502 7277.18720933
0.21200001 225326.46678195 8639.01714482
0.21300001 221865.30797157 7121.87672258
0.21400001 218458.84886287 9863.41749247
0.21500001 215106.95650239 8363.35886421
0.21600001 211806.29632270 9652.01337976
0.21700001 208558.45091996 6819.86166752
0.21800001 205362.41875443 8770.00250756
0.21900001 202216.54568374 6673.14632308
0.22000001 199120.17420427 9241.16772177
0.22100001 196075.16729248 10446.88540731
0.22200001 193078.25720891 8396.00841173
0.22300001 190129.24188443 7666.01139527
0.22400001 187227.22515933 7582.70297751
0.22500001 184374.05696857 6875.30890947
0.22600001 181565.20680628 6800.52514251
0.22700001 178802.78211739 6726.56098135
0.22800001 176084.86131861 6653.36679956
0.22900001 173410.32205171 5982.65639371
0.23000001 170780.06968120 7692.78860260
0.23100001 168193.76216939 5853.14320031
0.23200001 165647.64426826 8684.07816146
0.23300001 163144.49934145 7444.28385702
0.23400001 160681.26306919 5664.01479107
0.23500001 158257.87690091 6162.56201799
0.23600001 155874.55665062 7203.74297632
0.23700001 153530.30229124 7673.44487145
0.23800001 151223.97479328 6505.65570332
0.23900001 148955.49433453 8579.83687949
0.24000001 146723.34686032 5834.45416387
0.24100001 144528.82451805 6295.67589380
0.24200001 142370.02245769 5708.32632046
0.24300001 140245.65630004 5646.29038972
0.24400001 138155.99811827 6600.40312232
0.24500001 136099.73863793 5524.28865264
0.24600001 134077.31980258 5961.07792041
0.24700001 132087.95408111 5405.03933669
0.24800001 130130.43382821 5832.44632009
0.24900001 128203.51729405 4807.63212596
0.25000001 126308.83457058 6182.18620053
0.25100001 124443.76161361 7996.75649961
0.25200001 122610.34551451 5118.36911565
0.25300001 120804.72059296 5523.19208681
0.25400001 119029.08601363 5918.72158205
0.25500001 117280.01388323 5404.26329543
0.25600001 115559.99156409 4900.32167412
0.25700001 113866.43859831 4406.63138225
0.25800001 112199.65411718 6974.33082991
0.25900001 110559.93265962 4743.02133551
0.26000001 108945.12191159 6397.80258697
0.26100001 107355.06815445 5906.67612934
0.26200001 105791.28076615 5008.15946844
0.26300001 104250.15958443 4953.96781786
0.26400001 102734.02818442 4083.67781356
0.26500001 101240.93567920 4847.41622969
0.26600001 99770.58149815  4395.39317589
0.26700001 98322.88330361  4347.83810543
0.26800001 96897.63351799  3909.81969747
0.26900001 95493.24002948  4640.97168505
0.27000001 94110.83622949  3825.60567376
0.27100001 92748.79856386  4162.56627653
0.27200001 91408.07486212  4117.47692702
0.27300001 90087.05885202  4443.09395285
0.27400001 88784.59273108  6592.25632226
0.27500001 87503.31908791  5433.95637252
0.27600001 86238.86711685  4658.19262777
0.27700001 84994.98094516  3544.29087315
0.27800001 83768.30074502  3856.27390730
0.27900001 82559.99171290  3814.27179766
0.28000001 81368.95944330  4801.58252400
0.28100001 80195.47928924  4070.72272139
0.28200001 79039.28842008  3355.21795223
0.28300001 77899.63863108  4645.93466785
0.28400001 76775.86989739  3610.38545281
0.28500001 75668.81695809  4220.05012149
0.28600001 74577.44756092  3210.55926946
0.28700001 73502.23942862  3810.35627233
0.28800001 72440.86134743  4082.40493447
0.28900001 71396.29311918  4037.46056700
0.29000001 70365.67556891  4300.04663756
0.29100001 69350.27840712  4252.55927322
0.29200001 68348.80558042  3604.71617694
0.29300001 67361.74072470  3267.71819724
0.29400001 66387.97320343  3231.43474864
0.29500001 65429.23928779  3486.07003427
0.29600001 64482.64364399  3447.24229239
0.29700001 63550.00286261  3692.89084116
0.29800001 62630.62633116  3370.78046871
0.29900001 61724.48831179  3055.36231607
0.30000001 60830.32444223  4394.38284574
0.30100001 59949.69341960  3530.43761261
0.30200001 59080.60843568  4296.34204883
0.30300001 58224.46152809  3451.54624279
0.30400001 57380.35680750  3675.21202751
0.30500001 56548.66332684  2855.14214654
0.30600001 55727.67731693  3079.51159433
0.30700001 54919.22698594  3552.17576962
0.30800001 54122.10662326  2759.41573683
0.30900001 53336.58685558  2480.15140621
0.31000001 52562.41043017  2942.44387519
0.31100001 51798.95518041  2909.02946066
0.31200001 51047.50823451  3834.68900013
0.31300001 50306.27591713  2843.31084946
0.31400001 49577.33759296  2342.52931218
0.31500001 48857.78545467  2779.03096824
0.31600002 48150.17381415  2976.40313525
0.31700002 47452.33066105  2263.47627970
0.31800002 46764.86199754  2685.23850304
0.31900002 46088.51660882  2433.47379217
0.32000002 45422.61844315  2405.80909976
0.32100002 44766.60332592  2594.67245163
0.32200002 44121.79681556  2992.78161971
0.32300002 43485.35547861  2324.72721396
0.32400002 42860.29811778  3552.04737471
0.32500002 42245.01978398  2892.09419136
0.32600002 41639.77041068  4084.86167071
0.32700002 41044.45829816  2423.26493267
0.32800002 40459.85462670  2196.36331241
0.32900002 39883.12332102  1974.21469788
0.33000002 39317.59636204  2147.33062700
0.33100002 38760.58676791  2509.36050618
0.33200002 38214.73750734  2672.35672044
0.33300002 37677.68890164  2265.18276403
0.33400002 37150.77171274  2986.92218715
0.33500002 36632.89992036  1846.29824342
0.33600002 36124.16613406  2921.72269529
0.33700002 35624.80518618  2348.03102102
0.33800002 35135.64780369  2322.64210806
0.33900002 34654.93650933  2297.62239938
0.34000002 34183.69612436  2273.04498144
0.34100002 33721.71783558  2075.90904827
0.34200002 33269.80350128  2396.42405969
0.34300002 32826.15406874  2032.59555620
0.34400002 32392.31550974  2011.56288842
0.34500002 31967.09444164  1825.00150811
0.34600002 31551.51348305  2134.93326094
0.34700002 31143.82720065  2113.42021393
0.34800002 30746.07223419  1770.51265346
0.34900002 30356.59353457  1912.46548326
0.35000002 29976.39005369  2051.73411440
0.35100002 29605.74492576  1719.50174673
0.35200002 29242.23951944  2012.88965266
0.35300002 28888.83971729  1840.79695397
0.35400002 28543.53115327  1975.92603767
0.35500002 28207.30002290  1656.89688182
0.35600002 27879.02121926  1492.92165700
0.35700002 27559.41473098  1775.92876938
0.35800002 27248.55938448  2054.26898930
0.35900002 26946.78728256  1455.12658218
0.36000002 26653.08553559  1876.24404515
0.36100002 26367.06201448  1574.90468872
0.36200002 26090.91026180  1704.78015726
0.36300002 25821.59266621  1832.81673426
0.36400002 25561.11963257  1959.25991264
0.36500002 25307.90183273  1528.34426407
0.36600002 25063.77942246  1655.71334708
0.36700002 24827.06096130  1507.49921298
0.36800002 24599.20890767  1906.19278855
0.36900002 24379.03811365  1488.34034734
0.37000002 24166.07455176  2420.71580252
0.37100002 23960.81129293  1871.81866687
0.37200002 23764.08450433  1728.48076830
0.37300002 23574.60138066  1719.29576014
0.37400002 23392.56498897  1315.83184296
0.37500002 23218.26586847  1571.41230842
0.37600002 23051.63047612  2085.71162428
0.37700002 22891.96251502  1946.96150413
0.37800002 22739.73126583  1551.30454044
0.37900002 22595.46208756  1416.73554000
0.38000002 22457.53764445  1283.44833718
0.38100002 22326.04664933  2046.85205378
0.38200002 22202.78054225  1913.32470387
0.38300002 22085.46882300  1399.33537092
0.38400002 21975.54028103  1522.90501362
0.38500002 21871.63157591  1393.00428106
0.38600002 21775.40086883  1390.46828835
0.38700002 21684.72772310  1388.25633460
0.38800002 21600.66547463  1386.43877917
0.38900002 21522.97126990  1510.91265473
0.39000002 21452.07250721  1383.98052337
0.39100002 21386.49292758  1634.78359683
0.39200002 21327.54618348  1508.71068850
0.39300002 21274.11204872  1634.49010614
0.39400002 21227.67763138  1383.51395517
0.39500002 21185.75689842  1635.96422520
0.39600002 21149.83008734  1511.36692965
0.39700002 21118.80568530  1512.95131098
0.39800002 21094.38083696  1262.49875291
0.39900002 21074.28240868  1264.45700443
0.40000002 21059.84407706  1520.09961750
0.40100002 21050.11453257  1523.18635974
0.40200002 21045.93373370  1272.22675448
0.40300002 21046.31820213  1658.02902652
0.40400002 21051.49816057  1534.65428862
0.40500002 21060.92464130  1667.39348285
0.40600002 21075.88438863  2187.36076491
0.40700002 21094.62880130  1678.28874695
0.40800002 21117.59742936  1554.67759641
0.40900002 21144.40393461  2470.72371683
0.41000002 21176.04625298  1566.60397602
0.41100002 21211.27931724  1441.94283631
0.41200002 21249.64029808  1842.98139038
0.41300002 21293.02938488  1454.52690620
0.41400002 21339.19638208  1726.87454904
0.41500002 21388.84255155  1468.13022230
0.41600002 21441.04474195  2011.70611824
0.41700002 21497.84096193  1482.70616140
0.41800002 21558.02442529  1761.39846913
0.41900002 21619.41230487  1634.42764769
0.42000002 21684.37268985  1369.36820025
0.42100002 21752.71242201  1652.33611387
0.42200002 21823.43952875  1661.63676446
0.42300002 21896.22699672  1949.64014417
0.42400002 21971.39871140  1400.67673422
0.42500002 22049.29240453  1408.94985141
0.42600002 22128.16284168  1700.77067660
0.42700002 22210.22263611  1711.07563297
0.42800002 22293.49181774  1578.04489310
0.42900002 22379.47044946  1876.51868611
0.43000002 22466.78126155  1742.97297287
0.43100002 22554.23973400  1899.96924523
0.43200002 22644.51152393  1764.91331181
0.43300002 22735.28562734  1480.06716448
0.43400002 22827.83129120  1489.51606234
0.43500002 22920.83078211  1798.82688502
0.43600002 23015.58821824  2112.14063088
0.43700002 23110.41175426  1670.18953663
0.43800002 23205.59585746  2444.94169541
0.43900002 23302.51392780  2153.15238897
0.44000002 23399.16665049  2166.99692620
0.44100002 23496.61627225  1869.39087921
0.44200002 23594.22837659  2038.18751490
0.44300002 23692.13803741  2209.05505530
0.44400002 23789.96881877  2064.37464208
0.44500002 23887.24626842  1757.86253620
0.44600002 23984.40137798  1929.78502633
0.44700002 24082.32440116  1780.16550410
0.44800002 24178.81412615  1791.28752943
0.44900002 24275.42517326  2621.74604296
0.45000002 24371.93855953  2143.39023820
0.45100002 24466.80264638  2156.50408745
0.45200002 24561.52226929  1835.85106902
0.45300002 24655.06479153  2182.71298944
0.45400002 24747.88764900  2026.85209451
0.45500002 24840.01934352  1699.05740362
0.45600002 24930.64028015  2221.69411386
0.45700002 25020.48855281  2062.68917405
0.45800002 25108.64429820  2765.96838698
0.45900002 25195.54603688  2086.19131073
0.46000002 25281.47290964  1923.03532801
0.46100002 25365.13339242  2285.14497563
0.46200002 25447.95693765  1944.09676239
0.46300002 25528.94343363  2309.85891135
0.46400002 25607.72142304  1786.13865391
0.46500002 25685.87957425  2154.53168080
0.46600002 25761.13120154  2165.48079144
0.46700002 25834.53999521  2357.66023171
0.46800002 25906.72262933  2733.80703503
0.46900002 25976.16366380  2746.97943764
0.47000002 26043.65904190  2023.98305837
0.47100002 26109.29776967  2033.39220668
0.47200002 26172.79215465  2228.35162966
0.47300002 26233.90442052  2238.27683125
0.47400002 26292.26430745  2435.32109691
0.47500002 26348.73471023  2257.55969698
0.47600002 26403.49520733  2078.08718879
0.47700002 26454.66595857  2655.51949479
