# SAXS profile: number of points = 501, q_min = 0, q_max = 0.5, delta_q = 0.001
#    q    intensity    error
0.00000000 1646666.22097350 271.69992646
0.00100000 1646585.70130952 642.16843876
0.00200000 1646344.07937237 889.02583101
0.00300000 1645941.57489089 1382.59097216
0.00400000 1645378.06605322 1974.45375429
0.00500000 1644654.04954960 1924.24531414
0.00600000 1643769.41391885 2071.14954586
0.00700000 1642724.74756405 3351.15862431
0.00800000 1641519.84613448 3324.07782876
0.00900000 1640155.96618873 2706.25745990
0.01000000 1638632.41273616 3244.49231731
0.01100000 1636950.52707477 5598.37104635
0.01200000 1635110.18726056 3826.15800594
0.01300000 1633112.54029119 4115.44378304
0.01400000 1630957.58483823 5504.48209285
0.01500000 1628646.80673926 3908.75251023
0.01600000 1626179.55207505 6634.81286907
0.01700000 1623558.00388457 5698.68884927
0.01800000 1620782.10838672 6466.92090346
0.01900000 1617852.64444882 6794.98141329
0.02000000 1614770.66294617 6612.48616388
0.02100000 1611538.17621481 5849.88384488
0.02200000 1608153.65455531 5548.13036028
0.02300000 1604620.51991341 6354.29754809
0.02400000 1600938.02819187 7804.57324330
0.02500000 1597108.89116619 8097.34244802
0.02600000 1593132.97024097 7097.40770705
0.02700000 1589012.55435324 6673.85303395
0.02800000 1584747.26917039 7583.01603073
0.02900000 1580339.59838123 7822.68137116
0.03000000 1575791.04244433 8792.91442101
0.03100000 1571101.92544564 11311.93438371
0.03200000 1566273.37941441 10854.27501927
0.03300000 1561309.61675365 11147.75117754
0.03400000 1556208.46828702 8170.09483548
0.03500000 1550973.24176195 11725.35824917
0.03600000 1545605.09192744 9435.91952229
0.03700000 1540105.80119512 11412.18451464
0.03800000 1534476.88443246 10772.02822724
0.03900000 1528720.38196089 12841.25180315
0.04000000 1522836.14600115 13111.61982465
0.04100000 1516828.10675267 10511.61926718
0.04200000 1510697.08727520 10718.39633147
0.04300000 1504443.85738264 12908.12889551
0.04400000 1498072.24562013 12134.38575307
0.04500000 1491583.20980925 14408.69447626
0.04600000 1484976.79179564 13609.81292948
0.04700000 1478257.42439552 13836.49013585
0.04800000 1471425.28655906 12977.97163129
0.04900000 1464483.98015089 13180.35643487
0.05000000 1457433.62800208 13379.24132808
0.05100000 1450278.14784733 12443.38708819
0.05200000 1443016.26908124 14913.57383595
0.05300000 1435653.50858211 13954.55275395
0.05400000 1428190.31088335 11782.57061425
0.05500000 1420628.81511942 14319.93912442
0.05600000 1412970.36464199 15705.16633586
0.05700000 1405219.67202834 13447.95288904
0.05800000 1397376.03809276 18550.16777183
0.05900000 1389441.61594309 18757.46269131
0.06000000 1381420.49667248 12639.99813508
0.06100000 1373313.79845536 21712.09216821
0.06200000 1365123.74966639 16770.54604857
0.06300000 1356853.61277802 14328.37482086
0.06400000 1348501.78882039 15777.47166706
0.06500000 1340074.58020173 13266.73896459
0.06600000 1331573.00820568 14720.54029447
0.06700000 1322998.14235051 18892.41435691
0.06800000 1314353.56958489 16324.27209837
0.06900000 1305641.92201993 19192.93715229
0.07000000 1296863.47113957 16573.91593729
0.07100000 1288021.66568952 16692.76156919
0.07200000 1279118.67300943 15406.98513817
0.07300000 1270157.21090742 16918.49484201
0.07400000 1261139.38829480 18444.16441818
0.07500000 1252066.95009746 18555.63307019
0.07600000 1242941.12646108 21533.95602546
0.07700000 1233766.94779768 20209.10355250
0.07800000 1224544.53414433 18864.10943315
0.07900000 1215276.24432713 18958.31030072
0.08000000 1205966.02254095 16117.73664736
0.08100000 1196614.63375797 16190.19675436
0.08200000 1187223.74931651 19215.21728437
0.08300000 1177797.32471551 19292.32108427
0.08400000 1168336.43238581 17875.54825456
0.08500000 1158843.67231816 17938.90088963
0.08600000 1149320.78554192 20998.09173774
0.08700000 1139771.53309271 18053.98193196
0.08800000 1130195.42504094 24140.97541263
0.08900000 1120597.96455363 16640.88055524
0.09000000 1110978.55070466 19714.31530834
0.09100000 1101340.39004968 21277.89733542
0.09200000 1091685.02420402 18274.80816385
0.09300000 1082017.83635378 18307.74265143
0.09400000 1072335.09670662 19865.00860010
0.09500000 1062642.73241481 21422.87849242
0.09600000 1052941.65074332 22980.45260773
0.09700000 1043236.66669973 16869.13769360
0.09800000 1033527.20780420 18417.45570902
0.09900000 1023816.10661510 16892.96655350
0.10000000 1014104.32321465 18436.41746305
0.10100000 1004393.96541931 18440.67407240
0.10200000 994688.22215420 16904.72713065
0.10300000 984988.02374123 29195.04639705
0.10400000 975296.28333909 15360.91718525
0.10500000 965616.02828398 18423.95468649
0.10600001 955944.36157054 21480.07081520
0.10700001 946288.47597758 18395.84883867
0.10800001 936647.11526966 16845.59916091
0.10900001 927024.24377086 16825.49081634
0.11000001 917419.35465954 16802.53627148
0.11100001 907835.65478775 16776.80369022
0.11200001 898274.43889620 19793.47819290
0.11300001 888737.32230471 18236.89071230
0.11400001 879226.97210323 19716.66577776
0.11500001 869744.42072714 16646.90899659
0.11600001 860291.16807055 19627.54392382
0.11700001 850869.78412429 21084.55424358
0.11800001 841479.26558571 19526.52727758
0.11900001 832122.81234184 16476.03246042
0.12000001 822801.23515451 20907.38037012
0.12100001 813519.21746906 17864.88285720
0.12200001 804274.57521845 19290.52659542
0.12300001 795070.65170921 16267.14630039
0.12400001 785907.39251259 16209.34073432
0.12500001 776786.15061559 14681.25893842
0.12600001 767710.98523912 17549.87394958
0.12700001 758680.60307994 16023.33509217
0.12800001 749696.64146105 17407.95683515
0.12900001 740761.05452374 20222.77774164
0.13000001 731874.93886905 18695.74619463
0.13100001 723038.82888244 20042.63728138
0.13200001 714254.14350349 18524.18208500
0.13300001 705522.73982009 17017.20928670
0.13400001 696844.21767571 19755.53450249
0.13500001 688221.54656537 15443.69223307
0.13600001 679654.75573458 20950.35883334
0.13700001 671144.71677232 18060.50517996
0.13800001 662691.26344294 19343.95889208
0.13900001 654298.11244907 13740.26100940
0.14000001 645963.58767661 15028.34357604
0.14100001 637690.71617799 16299.37547424
0.14200001 629478.74915416 16202.78376744
0.14300001 621329.63014609 18789.00890185
0.14400001 613240.98896111 18673.18899468
0.14500001 605218.60930946 14579.71698602
0.14600001 597259.92561751 18437.41477359
0.14700001 589367.33952933 13083.95555481
0.14800001 581538.23098286 16896.59409837
0.14900001 573776.57248253 14200.97083896
0.15000001 566081.57527917 14103.92311354
0.15100001 558453.77696003 16552.57073013
0.15200001 550895.21438666 13907.35034344
0.15300001 543404.98565266 17573.71806529
0.15400001 535981.98936125 16200.05639294
0.15500001 528629.88953745 12369.93999895
0.15600001 521345.78776562 14733.23265759
0.15700001 514134.44905160 15840.48312290
0.15800001 506990.66546457 12091.72794204
0.15900001 499919.67851662 13197.88013579
0.16000001 492917.39033225 14284.74664610
0.16100001 485988.86201581 12990.48289489
0.16200001 479131.17632731 14057.70937705
0.16300001 472344.67374911 12781.64747504
0.16400001 465630.64025328 16134.10244646
0.16500001 458987.63452779 12571.67190324
0.16600001 452417.20480477 15866.27212160
0.16700001 445918.49096300 14608.29045367
0.16800001 439491.98080734 13369.34668741
0.16900001 433138.71574179 13254.04532753
0.17000001 426856.39737868 12043.75382074
0.17100001 420647.05974556 14108.50305009
0.17200001 414509.80032340 13983.48877425
0.17300001 408444.25656715 12792.47471980
0.17400001 402451.94166893 10564.36396772
0.17500001 396530.28141396 11515.23991610
0.17600001 390679.18150277 11409.78603466
0.17700001 384902.62796532 11304.59071726
0.17800001 379195.56449687 12217.68166516
0.17900001 373559.62190369 15129.16540170
0.18000001 367995.78684045 11989.30330158
0.18100001 362503.27863520 14844.50996131
0.18200001 357079.09567584 9801.82163932
0.18300001 351725.71861862 11649.15635095
0.18400001 346442.68623231 11536.54199653
0.18500001 341229.14171997 11424.35220449
0.18600001 336085.25859255 10369.91114378
0.18700001 331009.51446923 10267.91562394
0.18800001 326000.96896750 12938.97906964
0.18900001 321063.85160833 13725.48030475
0.19000001 316190.29844117 9964.73772620
0.19100001 311386.97080949 10761.53421966
0.19200001 306648.78954375 9765.23116444
0.19300001 301978.66707652 8787.57962716
0.19400001 297372.74297751 12177.41440036
0.19500001 292833.04046509 9470.22097616
0.19600001 288357.17960477 11077.24157799
0.19700001 283947.34704085 10963.20758734
0.19800001 279600.34175772 9180.67765548
0.19900001 275317.17059331 11563.32171140
0.20000001 271095.25370937 12260.28342844
0.20100001 266937.25294925 9705.83897596
0.20200001 262839.71170599 8003.46959972
0.20300001 258803.69464011 11087.15080241
0.20400001 254828.80966224 9403.18352099
0.20500001 250912.84711705 9303.84881086
0.20600001 247055.93483611 8438.19585318
0.20700001 243258.27496378 12143.45366020
0.20800001 239518.14699546 9761.56254223
0.20900001 235837.90026242 10400.45189322
0.21000001 232211.36101507 7349.48992355
0.21100001 228642.61258982 7270.83542407
0.21200001 225128.34087202 10069.99116326
0.21300001 221668.93453204 8538.68776184
0.21400001 218264.17513177 7039.01998078
0.21500001 214914.01922008 7659.53600713
0.21600001 211615.12932101 8954.49462057
0.21700001 208369.36106395 8857.78195762
0.21800001 205175.12020218 8088.00362078
0.21900001 202031.19917246 10000.54483188
0.22000001 198936.98739419 7254.23758833
0.22100001 195893.90540915 9132.57430199
0.22200001 192899.03186386 6452.47292095
0.22300001 189952.13604515 8935.34890208
0.22400001 187052.32078967 9469.52418776
0.22500001 184201.37242655 6868.86950260
0.22600001 181394.79407354 8647.09024239
0.22700001 178634.69472930 8553.02958810
0.22800001 175919.06468139 6042.82015757
0.22900001 173246.99808101 7172.42605974
0.23000001 170619.12309007 8276.73405252
0.23100001 168035.23284010 9940.96484496
0.23200001 165491.75548696 5783.93712781
0.23300001 162990.97464047 6293.08182850
0.23400001 160530.46304625 7922.17872601
0.23500001 158109.67079136 8955.33217718
0.23600001 155729.00573649 7750.63298209
0.23700001 153387.62264471 6023.53222616
0.23800001 151083.86841758 9207.80679623
0.23900001 148818.15879928 5893.19936720
0.24000001 146588.88516960 8478.70151926
0.24100001 144397.10277226 7862.42261785
0.24200001 142241.20287542 5184.69209006
0.24300001 140119.71343446 6154.05810515
0.24400001 138033.08839483 8116.34598155
0.24500001 135979.77625996 6522.95017575
0.24600001 133960.29223140 5459.55196816
0.24700001 131974.00307231 7364.14971980
0.24800001 130019.57434247 5827.47759771
0.24900001 128095.77278349 5283.95087729
0.25000001 126204.20743433 5701.90636163
0.25100001 124342.18489214 5170.14829241
0.25200001 122511.94808378 6973.99297461
0.25300001 120709.53708837 5058.93693871
0.25400001 118937.05474210 6824.01383868
0.25500001 117191.23440604 8100.25850538
0.25600001 115474.46463498 4896.69490452
0.25700001 113784.08029521 5284.13293892
0.25800001 112120.58753739 5227.06203831
0.25900001 110484.21508236 6032.43842892
0.26000001 108872.79471438 6393.55517212
0.26100001 107285.95496736 4216.33822972
0.26200001 105725.62885389 5839.22675789
0.26300001 104187.84231181 6188.75812616
0.26400001 102675.08825094 6122.00242664
0.26500001 101185.44016254 4441.02917888
0.26600001 99718.47070379  5191.84242287
0.26700001 98274.16481583  4740.74593505
0.26800001 96852.35853613  5080.39070742
0.26900001 95451.42690503  5025.51786437
0.27000001 94072.45658517  4971.25920349
0.27100001 92713.90087085  6052.36373526
0.27200001 91376.61845739  5238.62178407
0.27300001 90059.01806034  5181.99614443
0.27400001 88759.95832597  4027.48329964
0.27500001 87482.20966407  5432.64547724
0.27600001 86221.11684054  3582.48757427
0.27700001 84980.65768623  3898.06295255
0.27800001 83757.49999633  5257.87731111
0.27900001 82552.70692469  4160.65662592
0.28000001 81365.10828072  5144.30921452
0.28100001 80195.02698256  3731.47478211
0.28200001 79042.32066032  3355.34667084
0.28300001 77906.16852133  3650.68322970
0.28400001 76785.77801868  3282.59216567
0.28500001 75682.09726044  3896.11455138
0.28600001 74594.09812892  3853.53129174
0.28700001 73522.37065369  4129.01653135
0.28800001 72464.36746732  3141.33047840
0.28900001 71423.09190495  3417.59510942
0.29000001 70395.89286297  3994.61512959
0.29100001 69383.76901940  3950.71199497
0.29200001 68385.76470145  4207.77630126
0.29300001 67401.97333085  3269.66988105
0.29400001 66431.45811801  4409.38824131
0.29500001 65475.98682009  3779.27413816
0.29600001 64532.63069218  3737.40748346
0.29700001 63603.19795814  2843.06308331
0.29800001 62687.06850630  3654.96970228
0.29900001 61784.13520315  2780.28621576
0.30000001 60893.00071125  3299.18293472
0.30100001 60015.56559395  3534.31682514
0.30200001 59149.51062115  2957.17992350
0.30300001 58296.47818888  3455.81539064
0.30400001 57455.42222254  3417.16139846
0.30500001 56626.70488458  3118.99905270
0.30600001 55808.66360453  3597.98471292
0.30700001 55003.22468723  3303.49383111
0.30800001 54208.91922748  3517.61693521
0.30900001 53426.36792513  3229.62409398
0.31000001 52654.97569461  2947.62567894
0.31100001 51894.39111120  3400.12066659
0.31200001 51145.74982327  3121.68098826
0.31300001 50407.26143829  2611.60033877
0.31400001 49680.98342673  3051.65455147
0.31500001 48964.08094718  3481.34632018
0.31600002 48259.05201230  2294.71803183
0.31700002 47563.80751750  2268.79372601
0.31800002 46878.89716881  2467.47086931
0.31900002 46205.10241393  2883.19852715
0.32000002 45541.56540483  2850.67442149
0.32100002 44887.98579995  2168.08981680
0.32200002 44245.52885718  2572.43516956
0.32300002 43611.42077853  2967.32121028
0.32400002 42988.60432736  2514.83347223
0.32500002 42375.52738601  2279.37972603
0.32600002 41772.50131186  2663.62367228
0.32700002 41179.23926709  2228.62053467
0.32800002 40596.80731561  2404.14304307
0.32900002 40022.05471337  2773.52852297
0.33000002 39458.47608980  2350.93611676
0.33100002 38903.43350379  2131.13018826
0.33200002 38359.43940255  1916.05408889
0.33300002 37824.15254158  3221.48322452
0.33400002 37299.10499562  2061.70812627
0.33500002 36782.95315970  2039.24701974
0.33600002 36275.74306074  3484.10390726
0.33700002 35778.14993915  2176.74274538
0.33800002 35290.49085794  2512.33016315
0.33900002 34811.28021202  1952.91291238
0.34000002 34341.50682322  2283.53860435
0.34100002 33880.84575643  2085.70496354
0.34200002 33430.24175154  1719.98601957
0.34300002 32987.92249774  2383.04763410
0.34400002 32555.33370064  1684.73859880
0.34500002 32131.17249690  2167.89031104
0.34600002 31716.74690984  1981.02810581
0.34700002 31310.16811164  2288.14719397
0.34800002 30913.31423245  2103.80569973
0.34900002 30524.79839298  2564.08318645
0.35000002 30145.48266014  2063.30765840
0.35100002 29775.66719231  2358.23295332
0.35200002 29412.88907811  2024.63631558
0.35300002 29060.20798503  2314.64567564
0.35400002 28715.51609450  1987.83169579
0.35500002 28379.90494973  2121.68179453
0.35600002 28052.13353593  2103.06855080
0.35700002 27733.00515835  1638.18869230
0.35800002 27422.58069391  2067.38845644
0.35900002 27121.14009471  1610.99579793
0.36000002 26827.64156576  1888.53191747
0.36100002 26541.83017067  2161.83216980
0.36200002 26265.89182844  1716.21345336
0.36300002 25996.65515143  1845.24267005
0.36400002 25736.21930242  1690.86968826
0.36500002 25483.00861115  1818.72241073
0.36600002 25238.83910553  2223.03705372
0.36700002 25002.02555602  1380.11187607
0.36800002 24773.95433234  1645.48612470
0.36900002 24553.55732840  1635.26699553
0.37000002 24340.30391611  1354.53797710
0.37100002 24134.67966592  1346.71518915
0.37200002 23937.53808741  1607.16638332
0.37300002 23747.62131547  2131.58659025
0.37400002 23565.04122114  1590.64035778
0.37500002 23390.15484383  1451.12527525
0.37600002 23222.84971554  1444.57743499
0.37700002 23062.57180852  1438.41267184
0.37800002 22909.57844876  1562.89151581
0.37900002 22764.49117052  1297.57605819
0.38000002 22625.74603208  1293.06144699
0.38100002 22493.33156955  1546.64155199
0.38200002 22369.10113196  1413.61541300
0.38300002 22250.77659089  1922.46718853
0.38400002 22139.78839860  1406.43012465
0.38500002 22034.79250037  1530.97745545
0.38600002 21937.43665569  1782.85556147
0.38700002 21845.57186470  1907.11851414
0.38800002 21760.23503077  1650.62270646
0.38900002 21681.22006356  1648.85686395
0.39000002 21608.95218656  1901.04765868
0.39100002 21542.02929926  2153.34135077
0.39200002 21481.64316796  1266.34292475
0.39300002 21426.63718823  1392.94574960
0.39400002 21378.69027169  1393.35620447
0.39500002 21335.30737207  1394.04904974
0.39600002 21297.70165234  2029.24510958
0.39700002 21265.01200342  1523.42553210
0.39800002 21238.93681821  2033.84068607
0.39900002 21217.05950846  1909.53544623
0.40000002 21200.82327015  2040.36732819
0.40100002 21189.36144253  1788.80597773
0.40200002 21183.30464811  1920.79623997
0.40300002 21181.74041808  1411.97488317
0.40400002 21185.00382124  1801.78466037
0.40500002 21192.44410080  1419.68189758
0.40600002 21205.45377546  2589.18602866
0.40700002 21222.14483440  1428.67485794
0.40800002 21243.04821758  1433.58717689
0.40900002 21267.75388643  1700.35700379
0.41000002 21297.29739431  1706.87198054
0.41100002 21330.34784881  1713.68022737
0.41200002 21366.45427797  1456.01709576
0.41300002 21407.64992801  1462.35663587
0.41400002 21451.61571236  1335.36314137
0.41500002 21499.05488861  1341.54108862
0.41600002 21548.96320982  1752.25402643
0.41700002 21603.46457744  1760.89848115
0.41800002 21661.32698558  1497.55591211
0.41900002 21720.36918256  1505.22165568
0.42000002 21782.95065614  1650.71207894
0.42100002 21848.88181745  1383.03428458
0.42200002 21917.19736585  2085.96935814
0.42300002 21987.48736794  1678.08511544
0.42400002 22060.22638341  1687.60739830
0.42500002 22135.74673495  2121.71142508
0.42600002 22212.08160238  2418.56261988
0.42700002 22291.74305204  1574.24296893
0.42800002 22372.48284141  1727.60320688
0.42900002 22455.88847786  1448.40487546
0.43000002 22540.68194642  1894.43170396
0.43100002 22625.67953260  1905.98733415
0.43200002 22713.42298345  1622.76058195
0.43300002 22801.62901827  1632.82473137
0.43400002 22891.71096601  1643.05263245
0.43500002 22982.08861024  1503.02866634
0.43600002 23074.30446925  2268.78109445
0.43700002 23166.61110205  2130.86499015
0.43800002 23259.23013964  1991.10649046
0.43900002 23353.57846042  2312.00437715
0.44000002 23447.71146234  2791.91913613
0.44100002 23542.61825606  1873.05079722
0.44200002 23637.63763547  1727.79320484
0.44300002 23733.06478122  2054.80884614
0.44400002 23828.28775197  1590.53828282
0.44500002 23923.08643312  2080.59092569
0.44600002 24017.69140820  1932.46354229
0.44700002 24113.05778062  2268.55658351
0.44800002 24207.12045036  2445.52445940
0.44900002 24301.25659706  2788.56932667
0.45000002 24395.25179972  1815.37274871
0.45100002 24487.65733842  2324.36854472
0.45200002 24579.92542773  2171.26781556
0.45300002 24670.99622605  2688.15187619
0.45400002 24761.36143050  2027.95559727
0.45500002 24851.12600259  1869.79880905
0.45600002 24939.33410701  2222.46886428
0.45700002 25026.83292193  1891.27785354
0.45800002 25112.58496885  2074.80186846
0.45900002 25197.18936679  2434.04860819
0.46000002 25280.80583156  1922.98458672
0.46100002 25362.20219972  2109.12083489
0.46200002 25442.73203940  2297.09717105
0.46300002 25521.46003202  2309.18181314
0.46400002 25598.03627185  1785.46311458
0.46500002 25673.96336479  1974.07113668
0.46600002 25747.01030807  1983.93597332
0.46700002 25818.31145627  1993.69010515
0.46800002 25888.35620707  2549.74432368
0.46900002 25955.72205344  2378.84203895
0.47000002 26021.19085435  2389.91638729
0.47100002 26084.74327985  2400.83988527
0.47200002 26146.26615908  1855.07767191
0.47300002 26205.41998107  2981.12871834
0.47400002 26261.76394218  2619.61107740
0.47500002 26316.33667771  2630.58113899
0.47600002 26369.23857873  2264.06293168
0.47700002 26418.50681969  2462.46913738
