# SAXS profile: number of points = 501, q_min = 0, q_max = 0.5, delta_q = 0.001
#    q    intensity    error
0.00000000 1646666.22097350 321.09991309
0.00100000 1646585.69887521 592.77086567
0.00200000 1646344.06870181 1111.28228156
0.00300000 1645941.54889942 1185.07795742
0.00400000 1645378.02421295 1357.43692156
0.00500000 1644653.97281606 2072.26408777
0.00600000 1643769.31556769 2071.14942194
0.00700000 1642724.62632207 2168.39659686
0.00800000 1641519.66413788 2437.65680416
0.00900000 1640155.72022055 2460.23368550
0.01000000 1638632.13416721 2703.74313812
0.01100000 1636950.19110500 4419.76570842
0.01200000 1635109.79499227 3188.46424003
0.01300000 1633112.06763613 3772.48904262
0.01400000 1630957.03347090 4770.54953439
0.01500000 1628646.17518212 4690.50119339
0.01600000 1626178.80921945 4976.10737866
0.01700000 1623557.22499414 6575.40705619
0.01800000 1620781.21338547 4619.22666600
0.01900000 1617851.61913727 6794.97710698
0.02000000 1614769.56843954 6103.82924481
0.02100000 1611536.94945422 5318.07217431
0.02200000 1608152.30051007 6102.93825771
0.02300000 1604619.04734635 6354.29171673
0.02400000 1600936.44278276 9605.61909469
0.02500000 1597107.15864825 9343.07730480
0.02600000 1593131.12524356 7097.39948758
0.02700000 1589010.56403007 9343.38254443
0.02800000 1584745.13195046 6893.64164012
0.02900000 1580337.29199618 7111.51814050
0.03000000 1575788.67155231 8792.90119143
0.03100000 1571099.30796786 8295.40472777
0.03200000 1566270.60778935 9303.64783878
0.03300000 1561306.65792775 8758.93075477
0.03400000 1556205.37234346 8170.07858177
0.03500000 1550969.98268546 10887.80978123
0.03600000 1545601.70050443 10293.70780107
0.03700000 1540102.12399425 11412.15726658
0.03800000 1534473.06183296 12567.33495802
0.03900000 1528716.34872851 11006.75822057
0.04000000 1522831.94083998 13111.58361821
0.04100000 1516823.77375553 9555.99021774
0.04200000 1510692.52231372 15590.34755356
0.04300000 1504439.07264652 14893.94751055
0.04400000 1498067.19984462 11123.14947543
0.04500000 1491577.95483529 13379.45487655
0.04600000 1484971.37001658 11515.95350982
0.04700000 1478251.79133704 13836.43741042
0.04800000 1471419.45560782 15140.90690268
0.04900000 1464478.10214398 13180.30353281
0.05000000 1457427.34244866 12264.25165780
0.05100000 1450271.73089054 19230.60404745
0.05200000 1443009.59687352 12619.11951273
0.05300000 1435646.58814480 18605.98064973
0.05400000 1428183.21041648 15317.26564602
0.05500000 1420621.43084097 14319.86469089
0.05600000 1412962.69195781 12080.83157998
0.05700000 1405211.90216124 18338.01617920
0.05800000 1397368.03732399 16076.72002007
0.05900000 1389433.29446898 17506.86032798
0.06000000 1381412.10523707 13903.91348879
0.06100000 1373305.12301070 19157.60736126
0.06200000 1365114.80377634 12900.33549869
0.06300000 1356844.46381723 16933.41970017
0.06400000 1348492.47563320 13147.80225230
0.06500000 1340064.99866340 14593.30851809
0.06600000 1331563.15506950 21411.53653533
0.06700000 1322988.08272477 14843.92698285
0.06800000 1314343.24724690 14963.79857035
0.06900000 1305631.30177702 16450.95517261
0.07000000 1296852.82063420 15192.63150518
0.07100000 1288010.71306462 16692.61962316
0.07200000 1279107.56360663 14006.22847764
0.07300000 1270145.80925260 18328.20488629
0.07400000 1261127.74344404 17025.22533437
0.07500000 1252055.09023774 17128.11443729
0.07600000 1242929.08672368 18662.58111207
0.07700000 1233754.66485545 20208.90235790
0.07800000 1224531.99015757 17412.84571664
0.07900000 1215263.46283206 16041.47846179
0.08000000 1205953.12182760 16117.56422932
0.08100000 1196601.52079242 16190.01933593
0.08200000 1187210.54616106 16258.84919263
0.08300000 1177783.86771041 20776.10840148
0.08400000 1168322.70039489 19364.94966801
0.08500000 1158829.86245604 17938.68711295
0.08600000 1149306.74393334 29996.90742506
0.08700000 1139757.31722258 16549.27702319
0.08800000 1130181.09126368 19614.29376004
0.08900000 1120583.41236687 15127.87677750
0.09000000 1110963.85959482 19714.05461459
0.09100000 1101325.48771407 15198.29244449
0.09200000 1091670.01547288 24366.07589024
0.09300000 1082002.40721937 16781.85812459
0.09400000 1072319.60035181 18336.66602779
0.09500000 1062627.13581021 18362.19776987
0.09600000 1052925.94607145 26044.12450035
0.09700000 1043220.64203940 15335.34415894
0.09800000 1033511.03745076 19951.93151608
0.09900000 1023800.00752336 16892.70091847
0.10000000 1014087.96469927 15363.43338769
0.10100000 1004377.54982544 21513.76812909
0.10200000 994671.69747427 19977.98198346
0.10300000 984971.32822695 15365.55344315
0.10400000 975279.51878700 18432.78377225
0.10500000 965599.12577898 21494.23755113
0.10600001 955927.40928150 21479.68989725
0.10700001 946271.36261749 18395.51615493
0.10800001 936630.06451931 16845.29250315
0.10900001 927007.05202187 15295.61707826
0.11000001 917402.03963893 21384.64255055
0.11100001 907818.24677669 18301.61671654
0.11200001 898256.96014095 18270.54742939
0.11300001 888719.88510579 21275.95505112
0.11400001 879209.38929527 16682.99894739
0.11500001 869726.84565500 16646.57260969
0.11600001 860273.47392138 16607.58019613
0.11700001 850851.98642314 21084.11321652
0.11800001 841461.60169337 21028.12641671
0.11900001 832105.25153349 20969.05332632
0.12000001 822783.32136924 16426.86978492
0.12100001 813501.42553885 19353.19982526
0.12200001 804256.67660407 16322.39002065
0.12300001 795052.93927539 16266.78390397
0.12400001 785889.69774860 14735.43252708
0.12500001 776768.46845320 16149.01722009
0.12600001 767693.40565174 20474.38409356
0.12700001 758662.97528297 20392.86173665
0.12800001 749678.92604043 17407.54548306
0.12900001 740743.45194110 14444.49799365
0.13000001 731857.47176259 15819.09999778
0.13100001 723021.33930404 20042.15247025
0.13200001 714236.73884063 18523.73069505
0.13300001 705505.45071598 15598.72625070
0.13400001 696826.96968579 25399.34424251
0.13500001 688204.37359657 14039.36988330
0.13600001 679637.71262246 18156.52234880
0.13700001 671127.88193693 16670.81737340
0.13800001 662674.41232570 19343.46700794
0.13900001 654281.40355938 13739.91012270
0.14000001 645946.95082314 15027.95651963
0.14100001 637674.13698576 13582.45975839
0.14200001 629462.36316905 14852.16515948
0.14300001 621313.50730555 16104.44686897
0.14400001 613224.80225177 18672.69610936
0.14500001 605202.67154753 17230.12087174
0.14600001 597244.31039229 13169.23766540
0.14700001 589351.92616430 15700.33605370
0.14800001 581522.84016265 14296.73969990
0.14900001 573761.41801902 18073.48552032
0.15000001 566066.54047301 14103.54852133
0.15100001 558439.07786880 12732.41157619
0.15200001 550880.60520828 15171.25258332
0.15300001 543390.62851274 17573.25375537
0.15400001 535967.71601442 18691.87497809
0.15500001 528615.82513478 17317.45524868
0.15600001 521331.97017787 15960.57902025
0.15700001 514121.01854312 19495.46994328
0.15800001 506977.42565433 12091.41217256
0.15900001 499906.75982179 19196.42048324
0.16000001 492904.53132221 16665.10299064
0.16100001 485976.34016416 17713.83843515
0.16200001 479118.81135142 14057.34658864
0.16300001 472332.62827551 12781.32152451
0.16400001 465618.73791916 13828.87716905
0.16500001 458975.98747665 14857.05341604
0.16600001 452405.96646508 12466.04699451
0.16700001 445907.42762667 12360.55447741
0.16800001 439481.31905336 13369.02235684
0.16900001 433128.42343605 17671.64051061
0.17000001 426846.30745918 12043.46913365
0.17100001 420637.35723869 10852.44432922
0.17200001 414500.31391318 13983.16875019
0.17300001 408435.09874048 12792.18789666
0.17400001 402443.12438385 10564.13251398
0.17500001 396521.61952214 14655.43974968
0.17600001 390670.93669490 17632.93356051
0.17700001 384894.65268542 15415.03156811
0.17800001 379187.93717763 12217.43591292
0.17900001 373552.38395347 13111.68929608
0.18000001 367988.93028941 11989.07991513
0.18100001 362496.62642069 12865.00587937
0.18200001 357072.83937782 12742.14487511
0.18300001 351719.76834601 9707.46606492
0.18400001 346437.02160073 12497.71614465
0.18500001 341223.91349128 11424.17716339
0.18600001 336080.27316956 9427.05210777
0.18700001 331005.02419872 10267.77633574
0.18800001 325996.58947884 13863.00562256
0.18900001 321059.97166300 10065.23058719
0.19000001 316186.72526491 9964.62511754
0.19100001 311383.70279978 11658.20638367
0.19200001 306646.00092886 11540.62279027
0.19300001 301976.30311660 13181.26625389
0.19400001 297370.58895116 10437.70816541
0.19500001 292831.16398155 12052.93127904
0.19600001 288355.80548113 10225.09734556
0.19700001 283946.44230221 9276.53070840
0.19800001 279599.70117449 10849.86691683
0.19900001 275316.73700516 13215.20400080
0.20000001 271095.35387999 8990.87783635
0.20100001 266937.67355852 9705.85426931
0.20200001 262840.48360331 8003.49310399
0.20300001 258804.81909653 7919.42783866
0.20400001 254830.26694061 8619.63418668
0.20500001 250914.64247655 7753.26281900
0.20600001 247058.13282113 8438.27092537
0.20700001 243260.81673919 10625.63297743
0.20800001 239521.06628210 9761.68151776
0.20900001 235841.14110581 8914.79555521
0.21000001 232215.06814273 8084.56797957
0.21100001 228646.70886978 12360.64166583
0.21200001 225132.59934067 7192.98688898
0.21300001 221673.57303164 11385.15524914
0.21400001 218269.17635599 9150.93565135
0.21500001 214919.40841566 9052.40591044
0.21600001 211620.75922514 7577.08164229
0.21700001 208375.33183732 10220.81050986
0.21800001 205181.39280565 8088.25088682
0.21900001 202037.78306931 7333.97187218
0.22000001 198943.81166585 9232.98273597
0.22100001 195901.19345809 9785.26507591
0.22200001 192906.64361749 7743.27304094
0.22300001 189960.02200640 7020.92274534
0.22400001 187060.55744567 10101.27057972
0.22500001 184209.91501483 9367.07462145
0.22600001 181403.58270313 6794.47151144
0.22700001 178643.86252528 7331.54446474
0.22800001 175928.52385028 8460.40311205
0.22900001 173256.68904093 10161.50529280
0.23000001 170629.08422472 5912.29804799
0.23100001 168045.51092303 6432.78246236
0.23200001 165502.25060604 6362.73432547
0.23300001 163001.86513615 8009.91203161
0.23400001 160541.57758235 6790.90905291
0.23500001 158121.03557724 6157.23341659
0.23600001 155740.67384270 7751.21370376
0.23700001 153399.35695049 7119.26449280
0.23800001 151095.97375720 5416.79091540
0.23900001 148830.58140391 5357.90118397
0.24000001 146601.42812709 6889.53444071
0.24100001 144409.93259263 5242.08080107
0.24200001 142254.24036974 6740.71749877
0.24300001 140132.94235380 6667.52571259
0.24400001 138046.51882996 6087.85176838
0.24500001 135993.44404089 6021.78998699
0.24600001 133974.24235891 5460.12050563
0.24700001 131988.03658982 5400.95071275
0.24800001 130033.83111655 4856.76382196
0.24900001 128110.01931024 6245.36373683
0.25000001 126218.65367514 5227.34578925
0.25100001 124356.86651909 7521.10364289
0.25200001 122526.71547573 5579.86688675
0.25300001 120724.48435758 4599.60307163
0.25400001 118952.24959741 4549.92376236
0.25500001 117206.55453250 6751.09786048
0.25600001 115489.84580490 4452.13376642
0.25700001 113799.63080603 6606.06888085
0.25800001 112136.25265317 5227.79234604
0.25900001 110499.91472707 4740.44656608
0.26000001 108888.50781471 6820.77645224
0.26100001 107301.97004505 7168.84495791
0.26200001 105741.68483467 7925.86836181
0.26300001 104203.86306349 4539.12048983
0.26400001 102691.23179467 4081.97665699
0.26500001 101201.65175762 4037.94609620
0.26600001 99734.64021373  5192.68428844
0.26700001 98290.47655711  4741.53281349
0.26800001 96868.62590200  5472.10893615
0.26900001 95467.73986466  5026.37674173
0.27000001 94088.83343689  3824.71126020
0.27100001 92730.29574068  4161.73586979
0.27200001 91393.04897028  4116.80008569
0.27300001 90075.34425043  5923.35491823
0.27400001 88776.40177796  3662.02674665
0.27500001 87498.48834112  5795.90014201
0.27600001 86237.46985131  4658.11715447
0.27700001 84997.03778285  5316.56496493
0.27800001 83773.83114709  3856.52849938
0.27900001 82568.93038649  4855.05333650
0.28000001 81381.23652573  4802.30699467
0.28100001 80211.17228441  3732.22602304
0.28200001 79058.33341789  4027.23169491
0.28300001 77922.12396319  3983.37916553
0.28400001 76801.65329996  3939.92500077
0.28500001 75697.85757053  5845.38883827
0.28600001 74609.82486817  3854.34373512
0.28700001 73538.01339508  3176.84232904
0.28800001 72479.83628463  4398.80147232
0.28900001 71438.47154501  3729.08839116
0.29000001 70411.10929480  3073.44506620
0.29100001 69398.91172372  3039.67247738
0.29200001 68400.64700505  3006.20857817
0.29300001 67416.78893807  3865.00469277
0.29400001 66446.13332632  3234.26569276
0.29500001 65490.43784339  2907.77557789
0.29600001 64546.98760401  4600.90949421
0.29700001 63617.31136851  4265.54092918
0.29800001 62701.04020898  3655.78432244
0.29900001 61797.82721620  3337.08282765
0.30000001 60906.64271526  3849.90906828
0.30100001 60028.95938964  2991.24318799
0.30200001 59162.72688925  3764.52449018
0.30300001 58309.44531497  4254.25733158
0.30400001 57468.14841603  3417.91828885
0.30500001 56639.24708280  3639.63818985
0.30600001 55820.99835823  3598.77993453
0.30700001 55015.35946347  4066.73556407
0.30800001 54220.86984258  2513.13743619
0.30900001 53437.98830575  2733.35323125
0.31000001 52666.36863276  2702.57483434
0.31100001 51905.53593183  3157.93295561
0.31200001 51156.59990755  2401.80247937
0.31300001 50417.80529247  2612.14661588
0.31400001 49691.33521238  2582.70726995
0.31500001 48974.10515498  3017.78450253
0.31600002 48268.83193003  2524.70137364
0.31700002 47573.31081452  2269.24703330
0.31800002 46888.17125502  2467.95901086
0.31900002 46214.04320676  2883.75643264
0.32000002 45550.20345988  2851.21512057
0.32100002 44896.33110593  3035.89005313
0.32200002 44253.60353219  2358.49591192
0.32300002 43619.13536226  2755.85710268
0.32400002 42996.00199466  2515.26623579
0.32500002 42382.72057505  2279.76664768
0.32600002 41779.33433134  2459.13173519
0.32700002 41185.80667879  2836.87849837
0.32800002 40603.06395680  2404.51356138
0.32900002 40027.96398901  3368.35332918
0.33000002 39464.04195374  2547.20670852
0.33100002 38908.65855399  2131.41641652
0.33200002 38364.37572658  2491.19085578
0.33300002 37828.82076930  2463.79121338
0.33400002 37303.39821500  2061.94543398
0.33500002 36786.86001822  2039.46361599
0.33600002 36279.42746869  2017.31765993
0.33700002 35781.45673463  2539.76791930
0.33800002 35293.45522587  2333.07396819
0.33900002 34813.88601974  2308.16075242
0.34000002 34343.83410793  1932.35591760
0.34100002 33882.83022179  1912.00819997
0.34200002 33431.88417771  2752.11283585
0.34300002 32989.22104003  1872.46827491
0.34400002 32556.29665315  2358.70380423
0.34500002 32131.90035455  1834.41027812
0.34600002 31717.02865896  1981.04570386
0.34700002 31310.13052774  1961.26666915
0.34800002 30912.90770055  1780.11987425
0.34900002 30524.11255972  2564.02557645
0.35000002 30144.48057129  1587.10697725
0.35100002 29774.27802466  1886.49834499
0.35200002 29411.22763449  1713.05703471
0.35300002 29058.21778781  2160.18801266
0.35400002 28713.22906685  1681.87747225
0.35500002 28377.23258394  2727.61972516
0.35600002 28049.06872763  1652.23047166
0.35700002 27729.62698519  1637.98914360
0.35800002 27418.92952569  2067.11319485
0.35900002 27117.19482750  1610.76144905
0.36000002 26823.39365209  1888.23288558
0.36100002 26537.26856789  2161.46062724
0.36200002 26261.01520480  1715.89481476
0.36300002 25991.46176716  1419.13387971
0.36400002 25730.79474657  1972.26551075
0.36500002 25477.21948293  1538.56935745
0.36600002 25232.78941957  1805.78466035
0.36700002 24995.64712437  1655.71174395
0.36800002 24767.29310219  1919.21763340
0.36900002 24546.57849221  1498.56868794
0.37000002 24333.06072481  1354.13489348
0.37100002 24127.17809323  1884.81524193
0.37200002 23929.80725391  1740.53461306
0.37300002 23739.58635506  1464.96994337
0.37400002 23556.66165468  1457.56850893
0.37500002 23381.56299069  1714.33627969
0.37600002 23214.02318617  1312.75307336
0.37700002 23053.47288329  1829.98476417
0.37800002 22900.22651110  1822.62911436
0.37900002 22754.99214571  1297.03461375
0.38000002 22615.92350194  1938.75013405
0.38100002 22483.29731581  1803.61019612
0.38200002 22358.85347882  1669.87105117
0.38300002 22240.28758232  1537.24875052
0.38400002 22129.13738225  2172.52816542
0.38500002 22023.84173438  1530.21659620
0.38600002 21926.35978654  1781.95534427
0.38700002 21834.20919677  1779.05144964
0.38800002 21748.73041463  1395.94232780
0.38900002 21669.51418315  1394.43330375
0.39000002 21597.07485599  1520.00220038
0.39100002 21529.91016931  1898.93816690
0.39200002 21469.36557603  2024.99065707
0.39300002 21414.30389769  1392.14396234
0.39400002 21366.20076068  1898.92118257
0.39500002 21322.55314801  1393.21568870
0.39600002 21284.80999908  1774.51469370
0.39700002 21252.00094737  1395.61896834
0.39800002 21225.77982747  2159.61707087
0.39900002 21203.81399596  1399.45179004
0.40000002 21187.48076131  1274.42702817
0.40100002 21175.80221627  1787.66130780
0.40200002 21169.67326397  1663.61885227
0.40300002 21168.04936626  1539.34062285
0.40400002 21171.19237358  1414.76499740
0.40500002 21178.61492079  1805.68879370
0.40600002 21191.51498578  1552.49046142
0.40700002 21208.05412000  1687.31286573
0.40800002 21228.96637229  1953.59572297
0.40900002 21253.59038463  1699.22463176
0.41000002 21283.02785212  1968.14809388
0.41100002 21316.08302731  1449.06739286
0.41200002 21352.18950202  1587.32184279
0.41300002 21393.35624855  1594.23298318
0.41400002 21437.25106488  1868.25651883
0.41500002 21484.67539656  1608.77256992
0.41600002 21534.49303796  1616.37912402
0.41700002 21589.06257214  2030.45143112
0.41800002 21646.84753172  1496.55487502
0.41900002 21705.95433175  1367.47518770
0.42000002 21768.50924154  1374.68142374
0.42100002 21834.45078299  1382.12080005
0.42200002 21902.83387733  1945.62882552
0.42300002 21973.19042940  1676.99397304
0.42400002 22045.97531098  1686.51719121
0.42500002 22121.47849373  1696.27505128
0.42600002 22197.90147260  2274.84105071
0.42700002 22277.56167843  1430.21952753
0.42800002 22358.34771010  1438.75974332
0.42900002 22441.88635639  1881.75226015
0.43000002 22526.78810113  2038.89968765
0.43100002 22611.81902777  1904.81972516
0.43200002 22699.63270941  2506.38006438
0.43300002 22787.97172457  1631.84673253
0.43400002 22878.08346746  1940.63352209
0.43500002 22968.60892566  2103.00593289
0.43600002 23060.95852071  1965.13967347
0.43700002 23153.35370746  1977.52803387
0.43800002 23246.07571242  1530.75415820
0.43900002 23340.54815847  2464.76200234
0.44000002 23434.83450140  2170.30012602
0.44100002 23529.87955469  1716.03419725
0.44200002 23625.03006183  2040.84831861
0.44300002 23720.60838602  1579.79259338
0.44400002 23816.03208390  1748.69223863
0.44500002 23910.96524517  1759.60801578
0.44600002 24005.73055059  2414.37646455
0.44700002 24101.31822004  1943.53039337
0.44800002 24195.50627807  1955.48091007
0.44900002 24289.74272477  2131.42502511
0.45000002 24383.91993171  1814.52948771
0.45100002 24476.57083382  1825.46273930
0.45200002 24569.00813671  2003.35701841
0.45300002 24660.34686774  1847.30667141
0.45400002 24750.94101119  1858.17698448
0.45500002 24840.85661467  1699.11467297
0.45600002 24929.26420567  1879.79125652
0.45700002 25016.95895953  1718.66516197
0.45800002 25102.93595867  1901.17094493
0.45900002 25187.75802198  2259.34200165
0.46000002 25271.60801265  1922.28495459
0.46100002 25353.17564868  2108.37018687
0.46200002 25433.98320626  1766.39021739
0.46300002 25512.89584512  2485.97668897
0.46400002 25589.72801089  2320.34869736
0.46500002 25665.89535702  1973.45078753
0.46600002 25739.22386406  2704.54907570
0.46700002 25810.73568463  3261.44471569
0.46800002 25881.05269341  2002.80535760
0.46900002 25948.66697478  1829.38110843
0.47000002 26014.30810964  2021.70205056
0.47100002 26078.14354421  1846.33265044
0.47200002 26139.91830731  1854.62729181
0.47300002 26199.32706475  2049.04946685
0.47400002 26255.93193823  2431.95581105
0.47500002 26310.75223314  3569.31681712
0.47600002 26363.95700037  2074.97533406
0.47700002 26413.49746296  2462.00221522
