# SAXS profile: number of points = 501, q_min = 0, q_max = 0.5, delta_q = 0.001
#    q    intensity    error
0.00000000 1664650.74656090 374.54641798
0.00100000 1664569.77624302 549.30803921
0.00200000 1664326.80724524 823.84179567
0.00300000 1663922.05540870 1098.18859569
0.00400000 1663355.38898579 1497.01990697
0.00500000 1662627.32462230 2094.91051194
0.00600000 1661737.74919488 2442.75459077
0.00700000 1660687.24456119 2391.38973155
0.00800000 1659475.59442051 2688.35057646
0.00900000 1658104.07514216 2735.87184094
0.01000000 1656571.98584559 3280.01267360
0.01100000 1654880.68091176 3276.66389087
0.01200000 1653030.02476369 3868.09042754
0.01300000 1651021.16871624 3813.85906794
0.01400000 1648854.14136251 5935.87517205
0.01500000 1646530.34634468 5532.34221007
0.01600000 1644049.18200523 5030.79072183
0.01700000 1641412.95349128 5761.35972520
0.01800000 1638621.38735806 8873.13521181
0.01900000 1635675.38314743 5888.43164503
0.02000000 1632576.05692147 5142.61481193
0.02100000 1629325.27885915 7527.48312961
0.02200000 1625921.63849352 7292.25887995
0.02300000 1622368.45208914 6424.57936271
0.02400000 1618665.10001451 7283.99328220
0.02500000 1614814.23444351 6927.55338215
0.02600000 1610815.72844731 8480.94519818
0.02700000 1606671.82050616 8772.42854175
0.02800000 1602382.18619148 10455.54424439
0.02900000 1597949.37805486 9348.00429083
0.03000000 1593374.79995250 9631.95110845
0.03100000 1588658.82292911 11438.34405140
0.03200000 1583802.62854881 8623.80570964
0.03300000 1578810.31718167 8857.12628771
0.03400000 1573679.75997832 9088.00103320
0.03500000 1568414.22697060 8469.43721674
0.03600000 1563015.19005513 10409.68164684
0.03700000 1557483.95734006 13316.48845111
0.03800000 1551822.36487063 17248.50638379
0.03900000 1546032.41983423 12059.05343316
0.04000000 1540113.90706854 12313.21125759
0.04100000 1534070.81447743 11597.57589519
0.04200000 1527903.89179441 11825.97667113
0.04300000 1521614.03320801 12051.18370240
0.04400000 1515204.87963272 12273.16009501
0.04500000 1508677.60046325 13532.83870496
0.04600000 1502032.17993924 13766.12556909
0.04700000 1495273.02190821 11842.56288429
0.04800000 1488400.24507485 12033.71654134
0.04900000 1481417.77373140 12221.69720217
0.05000000 1474325.30080488 12406.44798399
0.05100000 1467127.04585962 14876.66893803
0.05200000 1459821.47040624 15087.25559973
0.05300000 1452414.43103512 14117.46892779
0.05400000 1444906.15086337 16688.66682073
0.05500000 1437298.85978870 15695.30428107
0.05600000 1429593.98209074 13445.33202898
0.05700000 1421796.18699090 14843.55288506
0.05800000 1413904.45438154 16266.97150720
0.05900000 1405921.49027324 12653.29400344
0.06000000 1397851.14870827 20464.54177317
0.06100000 1389694.41858288 12924.15869678
0.06200000 1381453.69044452 15665.68558191
0.06300000 1373132.10851953 13182.06885812
0.06400000 1364728.22588061 23950.98148431
0.06500000 1356248.39895137 20140.28966655
0.06600000 1347693.41776011 16253.18337865
0.06700000 1339064.72584327 17755.99909564
0.06800000 1330365.46611172 15146.21154066
0.06900000 1321598.50379375 13876.78493953
0.07000000 1312764.30342495 16777.12858342
0.07100000 1303865.89585911 14081.75233484
0.07200000 1294905.77091816 15597.14074139
0.07300000 1285886.65121927 14273.34249732
0.07400000 1276810.44985843 15800.53005748
0.07500000 1267679.13934489 17341.85143909
0.07600000 1258493.79508821 17442.72481765
0.07700000 1249259.60364725 20462.87326722
0.07800000 1239976.61198203 17632.46824928
0.07900000 1230647.13129692 23628.42602916
0.08000000 1221275.16293598 20773.89149607
0.08100000 1211861.57460802 17887.07768044
0.08200000 1202407.99195577 20957.97228325
0.08300000 1192918.17191674 19540.00057305
0.08400000 1183393.39805265 16597.09318673
0.08500000 1173836.29186688 19685.23553873
0.08600000 1164248.43893998 21270.81997813
0.08700000 1154634.11595462 19813.52236018
0.08800000 1144992.14405373 21399.90417738
0.08900000 1135328.25095537 18392.31852936
0.09000000 1125642.25364586 21511.02447766
0.09100000 1115936.82468788 21559.90046588
0.09200000 1106213.95129430 20061.19094933
0.09300000 1096478.34327696 18552.41444006
0.09400000 1086727.00382022 21680.20474513
0.09500000 1076965.67888694 15508.30650490
0.09600000 1067195.41401753 20186.00220504
0.09700000 1057420.59066424 15544.08341353
0.09800000 1047640.91806605 18668.96203771
0.09900000 1037859.36639741 23351.83684200
0.10000000 1028076.47467483 18690.43118855
0.10100000 1018294.83552164 15579.91171623
0.10200000 1008517.37354464 18697.91298500
0.10300000 998745.03149071 21812.59251384
0.10400000 988980.97995260 15576.45116705
0.10500000 979227.96227555 21797.61546582
0.10600001 969483.15037903 15560.20529575
0.10700001 959754.03597980 20212.42094888
0.10800001 950039.10734497 21746.39619055
0.10900001 940342.05279067 20170.33798169
0.11000001 930662.96532465 21693.75474283
0.11100001 921004.76313633 17020.16882396
0.11200001 911368.60822477 15447.69863664
0.11300001 901756.56854616 20046.04946257
0.11400001 892170.66693600 18467.93367513
0.11500001 882612.74779389 19964.70129520
0.11600001 873083.54158422 15322.61687637
0.11700001 863586.10864579 16814.02232719
0.11800001 854119.31274434 24393.64872088
0.11900001 844686.33448829 24326.96757910
0.12000001 835287.84977250 19708.61774375
0.12100001 825929.12575790 16625.95408472
0.12200001 816607.18550645 24106.24525183
0.12300001 807326.29860891 24026.03177857
0.12400001 798085.40326887 20949.74282291
0.12500001 788886.70456497 22364.93912826
0.12600001 779733.70904115 19310.10621436
0.12700001 770625.44385436 14796.00921929
0.12800001 761563.53598765 16209.88062746
0.12900001 752549.75839323 16142.19307835
0.13000001 743585.39498650 14611.45370019
0.13100001 734670.60355239 20365.07009043
0.13200001 725807.67237249 18823.82287034
0.13300001 716997.78526934 20176.31862865
0.13400001 708240.45304544 17210.24382039
0.13500001 699539.23605858 24260.02185033
0.13600001 690893.58462990 17037.43660030
0.13700001 682304.80668062 15536.08118069
0.13800001 673772.26375293 19667.41330638
0.13900001 665300.41723521 13971.30942080
0.14000001 656886.95235363 15282.47566724
0.14100001 648535.06256748 17957.93672944
0.14200001 640243.97689008 15106.55734723
0.14300001 632016.13969221 19112.16896577
0.14400001 623848.30667689 17639.31170333
0.14500001 615747.12775030 14833.34900723
0.14600001 607709.40321982 17419.99086507
0.14700001 599737.97831403 15977.02049603
0.14800001 591830.07610224 14550.14310743
0.14900001 583989.52365062 14453.74139229
0.15000001 576215.66944593 18271.79974025
0.15100001 568509.34500655 19443.02051664
0.15200001 560872.17564706 14159.21874234
0.15300001 553303.35717025 15337.56978452
0.15400001 545801.78091406 15227.87040612
0.15500001 538371.29788805 15117.46675813
0.15600001 531008.84063848 13755.78466594
0.15700001 523719.47244324 13653.36729099
0.15800001 516497.50873851 14782.15939780
0.15900001 509348.56458913 14669.23935256
0.16000001 502268.43982664 13342.76173381
0.16100001 495262.13791729 15645.33167533
0.16200001 488326.81212044 14327.50934396
0.16300001 481462.91012035 14212.78577771
0.16400001 474671.70436797 15272.56280905
0.16500001 467951.60773731 13982.39469932
0.16600001 461304.52751313 11555.67895978
0.16700001 454728.85475323 12605.08444891
0.16800001 448225.72058942 12498.77480878
0.16900001 441796.29448074 18025.28966593
0.17000001 435437.83481160 12285.87908934
0.17100001 429152.71572540 11072.14058856
0.17200001 422939.48146763 12072.80806861
0.17300001 416798.65801657 11966.29003676
0.17400001 410730.89638500 17250.69846285
0.17500001 404734.26540365 14958.97915580
0.17600001 398808.43390929 13764.87374648
0.17700001 392957.30368280 13639.54865503
0.17800001 387175.94322584 12474.80947995
0.17900001 381465.83574862 14419.40927238
0.18000001 375828.43258781 18366.73636812
0.18100001 370262.28107560 12129.79290101
0.18200001 364764.77510117 13016.63161436
0.18300001 359338.63045839 15868.39467065
0.18400001 353982.58041962 12769.92219190
0.18500001 348696.89442080 9728.64381394
0.18600001 343480.84891749 13488.49357423
0.18700001 338333.28502750 10495.09899739
0.18800001 333253.12788952 10392.49928424
0.18900001 328244.91790436 12161.47478296
0.19000001 323300.58599604 11115.07467172
0.19100001 318426.61232332 11004.82424187
0.19200001 313618.15847633 11803.01995197
0.19300001 308878.26240284 9887.19364671
0.19400001 304202.79694710 9787.72545428
0.19500001 299593.88601678 8808.06066512
0.19600001 295049.13872539 12206.18344589
0.19700001 290570.95794884 10355.94943069
0.19800001 286155.80560869 10250.10144131
0.19900001 281804.72739499 11835.79910995
0.20000001 277515.48482736 10877.21994188
0.20100001 273290.43545679 8280.70058571
0.20200001 269126.19840212 9014.38244153
0.20300001 265023.91610623 8920.70543777
0.20400001 260982.86445089 8827.74580730
0.20500001 257001.44961814 11117.88323599
0.20600001 253079.43231421 10215.55176823
0.20700001 249216.96848160 11663.35467626
0.20800001 245412.43286252 9232.41616071
0.20900001 241668.18142934 9135.05768985
0.21000001 237978.09232976 8285.20767612
0.21100001 234346.17600301 9687.87137394
0.21200001 230769.05080668 9584.99297838
0.21300001 227247.33852919 10212.49587630
0.21400001 223780.60421193 9382.00227513
0.21500001 220368.89468431 9281.93828293
0.21600001 217008.94977838 7063.64164925
0.21700001 213702.41832312 11180.91105529
0.21800001 210447.94577094 6913.21534544
0.21900001 207244.00738749 8206.86308058
0.22000001 204090.38790551 10148.39501844
0.22100001 200988.31776685 11377.94920677
0.22200001 197934.96031868 8607.20215644
0.22300001 194929.92732818 7859.57504152
0.22400001 191972.33402644 6479.06657976
0.22500001 189064.20806691 7050.20465220
0.22600001 186200.79758752 7608.16494920
0.22700001 183384.38270111 9407.61927745
0.22800001 180612.66281675 8065.25883949
0.22900001 177885.20091526 6137.03972180
0.23000001 175202.22140930 7284.90871072
0.23100001 172563.81979823 6605.74333428
0.23200001 169966.21300115 6534.35136786
0.23300001 167411.83389184 6463.77121226
0.23400001 164897.85533868 6393.91464316
0.23500001 162424.36733195 6899.78745059
0.23600001 159991.46655698 6825.23628613
0.23700001 157597.99128424 6188.87341045
0.23800001 155242.88241773 6678.54911750
0.23900001 152926.15169358 6055.87589351
0.24000001 150646.39598344 7079.62771411
0.24100001 148404.57675673 7003.21230841
0.24200001 146198.97221029 6394.74334696
0.24300001 144028.42903539 6852.87297766
0.24400001 141892.94521850 6257.47918014
0.24500001 139791.44743758 5674.13511990
0.24600001 137724.10761475 5612.94627136
0.24700001 135690.56691866 5552.45826098
0.24800001 133689.27241406 7489.94184132
0.24900001 131718.94180817 4939.46055148
0.25000001 129781.35453690 5374.89505242
0.25100001 127873.82531436 4833.63082556
0.25200001 125998.62657856 8128.80177829
0.25300001 124151.57551556 8041.29792658
0.25400001 122334.95990880 7954.83114442
0.25500001 120545.32316785 6017.62281724
0.25600001 118785.34757012 6410.84551167
0.25700001 117052.26740652 4529.92296296
0.25800001 115346.34918757 6273.68822915
0.25900001 113668.10359055 5762.97312471
0.26000001 112015.12064115 5262.47061672
0.26100001 110387.57447168 4772.05507021
0.26200001 108786.48526273 6008.27786535
0.26300001 107208.66025613 5943.64840584
0.26400001 105656.14267925 4619.81505725
0.26500001 104127.28449561 4570.14673277
0.26600001 102621.51934512 4520.99124868
0.26700001 101138.91427894 5692.09836497
0.26800001 99679.26416134  5228.67604901
0.26900001 98240.79876901  5172.37829995
0.27000001 96824.71122464  5116.70210680
0.27100001 95429.62144772  5450.94023505
0.27200001 94056.10528135  3851.59769354
0.27300001 92702.84401991  4191.09577648
0.27400001 91368.35602781  5653.41729677
0.27500001 90055.74871812  4101.13899071
0.27600001 88760.30489312  5163.18717999
0.27700001 87485.81558652  4377.79041914
0.27800001 86228.95755568  4691.28665784
0.27900001 84990.93884237  4283.54352039
0.28000001 83770.48722006  4237.11144413
0.28100001 82568.05033793  4191.15443352
0.28200001 81383.32988133  3800.19476867
0.28300001 80215.60015727  4784.05861981
0.28400001 79064.00264553  3717.98490038
0.28500001 77929.65911728  4011.81904124
0.28600001 76811.31838155  3637.40015412
0.28700001 75709.54411672  4905.97869098
0.28800001 74621.93895391  6146.23629286
0.28900001 73551.54193493  4159.33989330
0.29000001 72495.42533142  3164.42546550
0.29100001 71454.92711600  4068.64374257
0.29200001 70428.87913083  3714.41926118
0.29300001 69417.42336045  3061.30851511
0.29400001 68419.70749246  3330.32941984
0.29500001 67437.18999761  3293.63251539
0.29600001 66467.36202651  4441.68167768
0.29700001 65511.71460916  3514.04853798
0.29800001 64569.83911874  3475.14890588
0.29900001 63641.41465965  3723.02293383
0.30000001 62725.18842315  3681.65510879
0.30100001 61823.06609879  3080.64352954
0.30200001 60932.58370309  2769.38606041
0.30300001 60055.57650752  3012.38786023
0.30400001 59190.79067782  2978.77668188
0.30500001 58338.74832721  3213.29840999
0.30600001 57497.68941261  3706.87621192
0.30700001 56669.55413944  4189.01364031
0.30800001 55852.89130096  3365.41612467
0.30900001 55048.32697610  2559.74732558
0.31000001 54255.40358118  3543.42057565
0.31100001 53473.40698549  2752.81112195
0.31200001 52703.69914451  3464.21430878
0.31300001 51944.40640250  2691.23982313
0.31400001 51197.68853877  2902.90907759
0.31500001 50460.58700157  3348.56471197
0.31600002 49735.79994653  2837.92487932
0.31700002 49021.08330680  3039.79751978
0.31800002 48316.92799187  3467.94767082
0.31900002 47624.17820409  2971.74886064
0.32000002 46942.06232516  3616.41665277
0.32100002 46270.11867565  2234.84683785
0.32200002 45609.59055434  3314.67715049
0.32300002 44957.78926328  3277.42299248
0.32400002 44317.51198126  3024.67033594
0.32500002 43687.14655520  2563.56188125
0.32600002 43067.04161140  2534.92618928
0.32700002 42457.21023188  2715.56329502
0.32800002 41858.28688072  2685.41852200
0.32900002 41267.39039587  2655.55669772
0.33000002 40687.80507943  2020.14961786
0.33100002 40117.06685064  1997.83002377
0.33200002 39557.70480192  2173.49819327
0.33300002 39007.29810617  2149.69230043
0.33400002 38467.13057130  2512.86542357
0.33500002 37936.30858476  2294.38805186
0.33600002 37414.68011762  2080.44338646
0.33700002 36902.75323752  2058.06664552
0.33800002 36401.09009379  2221.19462271
0.33900002 35908.06858850  1831.31158474
0.34000002 35424.69934135  2355.56549426
0.34100002 34950.73817784  2330.86483947
0.34200002 34486.89174874  2129.22079741
0.34300002 34031.56566474  1931.63175861
0.34400002 33586.20097580  2259.51177766
0.34500002 33149.60334740  1892.51094473
0.34600002 32722.81772171  2214.18956600
0.34700002 32303.96546327  2023.52049245
0.34800002 31895.17904149  3172.45413361
0.34900002 31494.90846098  1818.83104976
0.35000002 31104.01821169  2292.67729097
0.35100002 30722.68010689  2108.80486242
0.35200002 30348.68824716  2089.05205444
0.35300002 29984.91455269  1751.41894198
0.35400002 29629.28430718  1735.53541049
0.35500002 29282.81896731  1563.70260692
0.35600002 28944.52944644  2014.97351285
0.35700002 28614.95759461  2304.93494342
0.35800002 28294.30072542  1676.01298286
0.35900002 27982.75283152  1964.38934182
0.36000002 27679.32154138  2697.90359843
0.36100002 27383.70152176  1486.93506306
0.36200002 27098.09486812  1623.04046900
0.36300002 26819.32218915  1610.76856698
0.36400002 26549.51159559  1598.94441158
0.36500002 26287.07232960  1731.79240711
0.36600002 26033.76255148  1576.47456598
0.36700002 25787.91669459  1423.49306897
0.36800002 25551.01826755  1838.52360653
0.36900002 25321.82600301  1545.89755071
0.37000002 25099.89822949  1955.53316369
0.37100002 24885.75875487  1944.07556602
0.37200002 24680.29899316  1380.86279408
0.37300002 24482.04619267  1922.81999906
0.37400002 24291.26646458  1912.93732470
0.37500002 24108.31390220  1903.59255589
0.37600002 23932.99097828  1759.43391512
0.37700002 23764.89761057  1482.21673419
0.37800002 23604.02987210  1476.07807798
0.37900002 23451.31852311  1470.39774106
0.38000002 23304.92626737  1731.43957906
0.38100002 23165.04170952  1725.56403869
0.38200002 23033.32016947  1720.24359835
0.38300002 22907.76766086  1583.38497573
0.38400002 22789.53191743  1710.92418975
0.38500002 22677.31457241  1575.61989114
0.38600002 22572.88964569  2358.64135082
0.38700002 22474.00305057  1569.58444741
0.38800002 22381.63273782  1436.56516533
0.38900002 22295.76171926  1304.30212237
0.39000002 22216.71166424  1563.61224101
0.39100002 22142.99361788  1432.20889506
0.39200002 22076.03036921  1561.65846230
0.39300002 22014.43802699  1821.47468865
0.39400002 21959.90876137  1301.12465575
0.39500002 21909.88569187  1301.44727176
0.39600002 21865.88927961  2343.80478293
0.39700002 21826.80666613  1824.28458759
0.39800002 21794.40501461  2087.03232308
0.39900002 21766.25285031  1828.36532605
0.40000002 21743.78211771  1307.88855635
0.40100002 21726.03357476  1572.09586395
0.40200002 21713.82079636  1312.60052933
0.40300002 21706.21484059  1841.55535433
0.40400002 21703.33105468  1714.02065125
0.40500002 21704.85310968  1718.37330211
0.40600002 21711.78003703  1325.50423406
0.40700002 21722.54099463  1462.36152905
0.40800002 21737.46242822  1466.95272147
0.40900002 21756.29706600  2542.22343262
0.41000002 21780.03425417  1879.83484555
0.41100002 21807.26716374  1751.99592695
0.41200002 21837.60966068  1623.40797910
0.41300002 21873.03465593  2037.47327474
0.41400002 21911.23153365  1909.56391864
0.41500002 21952.87313219  1780.81715286
0.41600002 21997.03936638  2063.87231634
0.41700002 22045.90591705  1382.27836650
0.41800002 22098.13983290  2361.07586232
0.41900002 22151.50182019  1535.09914888
0.42000002 22208.46697133  2103.69713354
0.42100002 22268.88283744  1832.50645553
0.42200002 22331.55006387  2125.40537804
0.42300002 22396.34452604  2136.61136903
0.42400002 22463.53759974  1861.66576679
0.42500002 22533.47606553  1871.85594546
0.42600002 22604.36570559  2171.71453807
0.42700002 22678.43074755  2183.93298448
0.42800002 22753.67193153  1903.45851563
0.42900002 22831.65924196  1767.17050907
0.43000002 22911.01926620  1925.55670547
0.43100002 22990.54175823  1936.72332949
0.43200002 23072.80758307  1798.29470824
0.43300002 23155.63335882  1808.91816371
0.43400002 23240.18004160  1668.06400153
0.43500002 23325.25649324  1525.47184695
0.43600002 23412.01219318  1995.05471359
0.43700002 23498.90575302  1852.65381736
0.43800002 23586.18074375  2019.09509825
0.43900002 23675.09335947  1718.81185935
0.44000002 23763.84632666  1729.17635990
0.44100002 23853.36048496  1739.62566261
0.44200002 23942.99882259  1909.21481659
0.44300002 24033.01054124  2721.01758243
0.44400002 24122.90079959  2093.26481609
0.44500002 24212.35532863  1781.78731307
0.44600002 24301.53768012  1792.35999654
0.44700002 24391.68355124  1966.94545479
0.44800002 24480.29581655  1813.62280152
0.44900002 24569.17033384  2487.62861419
0.45000002 24657.81473250  2001.72149485
0.45100002 24744.94141676  1845.47781832
0.45200002 24831.88749142  1687.32683501
0.45300002 24917.62645938  2036.26853077
0.45400002 25002.73945837  2559.65557336
0.45500002 25087.20451553  2573.94730528
0.45600002 25170.09144613  2243.03280553
0.45700002 25252.27639964  2081.79776505
0.45800002 25332.76327423  2092.99300091
0.45900002 25412.06929079  2279.46272342
0.46000002 25490.39770863  1762.66108509
0.46100002 25566.52952966  2480.46481253
0.46200002 25641.77957166  1780.82167565
0.46300002 25715.27017685  2147.73946696
0.46400002 25786.63386829  1978.47957731
0.46500002 25857.32508044  2530.39795230
0.46600002 25925.16642535  1997.66379359
0.46700002 25991.20798953  1824.58288734
0.46800002 26056.09502556  3116.17883228
0.46900002 26118.21639446  2393.73464601
0.47000002 26178.49628440  2034.46193517
0.47100002 26236.90493225  2229.08754870
0.47200002 26293.24401506  3171.35977719
0.47300002 26347.29691687  1873.29289958
0.47400002 26398.52810760  2633.25330354
0.47500002 26447.91601570  2643.73381024
0.47600002 26495.67349799  2843.64829295
0.47700002 26539.93806757  3234.95320439
