# SAXS profile: number of points = 501, q_min = 0, q_max = 0.5, delta_q = 0.001
#    q    intensity    error
0.00000000 1646666.22097351 296.39991978
0.00100000 1646585.76918960 642.16846523
0.00200000 1646344.35086687 814.94047948
0.00300000 1645942.18863684 1382.59148771
0.00400000 1645379.14555137 1234.03440605
0.00500000 1644655.73330167 1628.20924042
0.00600000 1643771.84187556 1898.55655466
0.00700000 1642728.05547038 2168.40112334
0.00800000 1641524.16464599 2216.05771583
0.00900000 1640161.42860374 2460.24224808
0.01000000 1638639.14476441 2703.75470561
0.01100000 1636958.67116397 3830.48345730
0.01200000 1635119.87392874 3507.33228335
0.01300000 1633123.89878577 3772.51637258
0.01400000 1630970.76066811 5137.55812386
0.01500000 1628661.88963513 6254.06193469
0.01600000 1626196.67940672 5805.52240501
0.01700000 1623577.37428295 4822.02501793
0.01800000 1620803.78198994 6005.07828249
0.01900000 1617876.67929667 6795.08235966
0.02000000 1614797.37903200 6103.93436886
0.02100000 1611567.56903105 5849.99054081
0.02200000 1608185.87434986 8322.36227786
0.02300000 1604655.68992481 6354.43682135
0.02400000 1600976.23013169 7804.75947777
0.02500000 1597150.31859333 6228.88652699
0.02600000 1593177.70987543 7097.60702213
0.02700000 1589060.66308072 8676.27161780
0.02800000 1584798.90751064 7583.26312020
0.02900000 1580394.95318701 7822.95537746
0.03000000 1575850.13875081 8060.47383021
0.03100000 1571164.89142473 10558.22855619
0.03200000 1566340.38644873 11630.07790504
0.03300000 1561380.67267045 8759.34597749
0.03400000 1556283.83370147 8987.53955431
0.03500000 1551052.83077773 10050.82280757
0.03600000 1545689.15069040 13725.72029245
0.03700000 1540194.30741071 8779.10795825
0.03800000 1534570.00874173 8977.23496660
0.03900000 1528818.23742690 13759.36477404
0.04000000 1522938.88616808 11239.28950074
0.04100000 1516935.76887046 13379.37410179
0.04200000 1510809.71364810 12668.14003665
0.04300000 1504561.64293059 15888.17168684
0.04400000 1498195.17509702 16180.50864250
0.04500000 1491711.43313558 11322.09030358
0.04600000 1485110.39750204 11517.03166802
0.04700000 1478396.50198812 14902.23743311
0.04800000 1471569.90128047 11897.64320543
0.04900000 1464634.28798256 15378.66073966
0.05000000 1457589.45800629 13380.67184758
0.05100000 1450439.83087073 18101.48993251
0.05200000 1443183.74944792 14915.30474562
0.05300000 1435826.94475778 17445.29819207
0.05400000 1428369.75106688 16497.67139417
0.05500000 1420814.22240120 13128.32402741
0.05600000 1413162.01883036 14499.04298979
0.05700000 1405417.42851999 13449.84541876
0.05800000 1397580.01843151 14842.30048877
0.05900000 1389651.77980143 16258.92658306
0.06000000 1381637.11669688 16434.57427091
0.06100000 1373536.83301513 19160.83971597
0.06200000 1365353.13946080 18063.62287942
0.06300000 1357089.56831718 16936.47860447
0.06400000 1348744.26111207 13150.25716084
0.06500000 1340323.62911526 21230.72727831
0.06600000 1331828.65445657 16061.85432426
0.06700000 1323260.49183850 13497.25764841
0.06800000 1314622.52416212 16327.61251437
0.06900000 1305917.70681694 20568.20484535
0.07000000 1297146.01526111 16577.52685134
0.07100000 1288310.90710920 13913.75844847
0.07200000 1279414.64780823 16811.50925977
0.07300000 1270460.02163941 18332.73897125
0.07400000 1261448.96839401 21286.95233924
0.07500000 1252383.47375241 14277.17226998
0.07600000 1243264.52258251 14359.70590902
0.07700000 1234097.14707318 17326.72475733
0.07800000 1224881.80830620 21772.27516368
0.07900000 1215620.30112283 17504.93315722
0.08000000 1206316.94356790 19053.77701749
0.08100000 1196972.38787739 16195.03716782
0.08200000 1187588.44825790 22178.21531193
0.08300000 1178168.87458149 16329.42136807
0.08400000 1168714.81335733 19371.44894067
0.08500000 1159228.94647387 19440.27034499
0.08600000 1149712.79023197 21005.25366377
0.08700000 1140170.57294150 24080.40363128
0.08800000 1130601.10714993 16602.87803823
0.08900000 1121010.41268937 16647.00541034
0.09000000 1111398.02824447 22755.87569727
0.09100000 1101766.45694858 16724.81560223
0.09200000 1092117.72065896 15235.04291904
0.09300000 1082457.14187992 22893.96962660
0.09400000 1072780.88143771 16815.84110684
0.09500000 1063095.11873697 19901.14155816
0.09600000 1053400.76718671 16859.68007136
0.09700000 1043702.08566535 23013.63207086
0.09800000 1033999.01719962 18425.86335284
0.09900000 1024294.48257062 18437.30155324
0.10000000 1014588.87664245 23056.53330598
0.10100000 1004884.87844403 24599.58298127
0.10200000 995185.42149711 18450.73858241
0.10300000 985491.12893750 18448.39480154
0.10400000 975805.65880711 18442.72781909
0.10500000 966131.39627828 16897.63891593
0.10600001 956465.76207156 15351.27620358
0.10700001 946815.69520263 16872.25648248
0.10800001 937180.37935832 33710.37983199
0.10900001 927562.99549882 22957.18521909
0.11000001 917963.86314137 19869.32875294
0.11100001 908385.68806685 15260.88027790
0.11200001 898829.93699986 18282.20177925
0.11300001 889298.44453316 16727.70452922
0.11400001 879793.23429857 16694.07740685
0.11500001 870316.07296736 15143.50038271
0.11600001 860867.88469765 16619.05529670
0.11700001 851451.53628496 21098.97006280
0.11800001 842065.97124993 27055.58093053
0.11900001 832714.46601828 20984.40553206
0.12000001 823397.51291516 28394.86457042
0.12100001 814120.11712893 19367.91849888
0.12200001 804879.99418411 20790.05122922
0.12300001 795680.62911042 16279.62643860
0.12400001 786521.59967160 22120.92103305
0.12500001 777404.46089842 17631.53400398
0.12600001 768333.47142103 19027.77931640
0.12700001 759306.96559523 18952.30275441
0.12800001 750326.98538858 17422.59342184
0.12900001 741395.00320280 23131.52519016
0.13000001 732512.59789870 18712.03519531
0.13100001 723679.82957830 15761.74743119
0.13200001 714898.56427164 18540.89513841
0.13300001 706170.40744258 19871.63620224
0.13400001 697495.05310591 18361.55813868
0.13500001 688875.48077347 15458.36651739
0.13600001 680311.20850359 20970.59399090
0.13700001 671804.04930675 20859.51671457
0.13800001 663353.07240775 15214.00343310
0.13900001 654962.50077791 17880.47711445
0.14000001 646630.22146333 13676.22982893
0.14100001 638359.48744923 16316.46926874
0.14200001 630149.44856749 16220.04757115
0.14300001 622002.33174303 14778.77609929
0.14400001 613915.42321143 14687.92719316
0.14500001 605894.63002293 15922.91162812
0.14600001 597937.32630992 13184.51866710
0.14700001 590046.16329356 15718.83053170
0.14800001 582218.12511346 14313.83328122
0.14900001 574457.40350200 15510.35062634
0.15000001 566763.25923537 15404.62611285
0.15100001 559136.31569492 17847.63203912
0.15200001 551578.41128260 16456.34267714
0.15300001 544088.37280998 12568.44200500
0.15400001 536665.61131228 16220.71886739
0.15500001 529313.58506479 17340.31386506
0.15600001 522029.37455826 13523.17158616
0.15700001 514817.95116311 17081.66042579
0.15800001 507673.68240464 13318.81968652
0.15900001 500602.27811643 20424.57391120
0.16000001 493599.31343904 17880.63597334
0.16100001 486669.84305047 13008.68551880
0.16200001 479811.15171166 15250.79817709
0.16300001 473023.51734702 12800.01698367
0.16400001 466308.09382843 17311.68880066
0.16500001 459663.61466669 12590.18700012
0.16600001 453091.70403141 17024.92158278
0.16700001 446591.13136703 15755.73585853
0.16800001 440162.71095215 13389.75029938
0.16900001 433807.41547153 14380.71650191
0.17000001 427522.74810633 10965.95900674
0.17100001 421311.05467576 17391.72115828
0.17200001 415171.16583596 11851.06148843
0.17300001 409102.97724398 12813.10585237
0.17400001 403107.78498395 17988.68575444
0.17500001 397183.09804817 11534.19771205
0.17600001 391328.85678651 18701.60694909
0.17700001 385548.91682167 12352.98787841
0.17800001 379838.38006152 13258.25928226
0.17900001 374198.75969667 14144.71378464
0.18000001 368631.20711376 12010.00529506
0.18100001 363134.62965076 10904.93344352
0.18200001 357706.41637158 10800.94575255
0.18300001 352348.85227590 10697.31166043
0.18400001 347061.28309305 12520.23637905
0.18500001 341843.31493635 10491.17183102
0.18600001 336694.71403645 12277.57332737
0.18700001 331614.16188445 10286.67178765
0.18800001 326600.58599157 10185.03975535
0.18900001 321658.32647380 13750.89410645
0.19000001 316779.60245657 9983.30964312
0.19100001 311970.73259982 12578.66053277
0.19200001 307227.04204189 11562.49027359
0.19300001 302551.31529156 9684.66806011
0.19400001 297939.56183646 11329.15237418
0.19500001 293393.92889372 9488.36010880
0.19600001 288912.00995982 10244.82035731
0.19700001 284496.12604657 9294.48887718
0.19800001 280142.65531966 9198.48452213
0.19900001 275852.93045567 9930.70596573
0.20000001 271624.39762865 9827.37117066
0.20100001 267459.77996754 8104.03171603
0.20200001 263355.39235319 9623.00649140
0.20300001 259312.37332681 7934.95899884
0.20400001 255330.45780346 10206.83553313
0.20500001 251407.30193596 10099.03179612
0.20600001 247543.01973199 8454.83223859
0.20700001 243738.04050625 9125.55266791
0.20800001 239990.20286350 9028.43185850
0.20900001 236302.31800309 7443.52336896
0.21000001 232668.09267820 11782.31277020
0.21100001 229091.45676897 9470.64127054
0.21200001 225569.20253846 7927.62999799
0.21300001 222101.70389699 8555.35803857
0.21400001 218688.81429291 7757.98605381
0.21500001 215330.36190701 7674.37446119
0.21600001 212023.22281768 11042.16996640
0.21700001 208768.82412909 7509.41495897
0.21800001 205566.13897654 7428.13278312
0.21900001 202413.63448083 9351.51035517
0.22000001 199310.66622031 7928.57867713
0.22100001 196258.85747468 7188.96228922
0.22200001 193255.15837893 11635.89363619
0.22300001 190299.24534745 7672.86593522
0.22400001 187390.46753187 7589.31429391
0.22500001 184530.46838957 10634.49139617
0.22600001 181714.72222435 7424.86390120
0.22700001 178945.42363204 9179.90066643
0.22800001 176220.55035240 7869.12904812
0.22900001 173539.06355132 7783.22736835
0.23000001 170901.81938493 6513.92315391
0.23100001 168308.55335686 7614.27931396
0.23200001 165755.61606550 5793.15905547
0.23300001 163245.38368163 8021.87853351
0.23400001 160775.10343917 8500.98399640
0.23500001 158344.76355410 8968.64783189
0.23600001 155954.48151089 6653.01849592
0.23700001 153603.30590914 5483.63828032
0.23800001 151289.84395198 6508.48939466
0.23900001 149014.35655151 6973.87221647
0.24000001 146775.32579456 6897.70676198
0.24100001 144573.73058169 5248.02666835
0.24200001 142407.92143780 5709.84588014
0.24300001 140276.59053112 7701.18518445
0.24400001 138180.04911598 6601.55215879
0.24500001 136116.85244184 5524.98330197
0.24600001 134087.54772537 6955.12142953
0.24700001 132091.32773664 5896.55714911
0.24800001 130127.04891306 5832.29460819
0.24900001 128193.23982023 5768.69606481
0.25000001 126291.81464056 4754.88704616
0.25100001 124419.82990910 7054.60468959
0.25200001 122579.70621362 4651.90007089
0.25300001 120767.45108812 4601.24010414
0.25400001 118985.14018687 5916.53637571
0.25500001 117229.43082704 5401.93242809
0.25600001 115502.87430929 7124.21762446
0.25700001 113802.67808705 7046.66216055
0.25800001 112129.46279159 4791.85281912
0.25900001 110483.31216034 4739.73431594
0.26000001 108862.09718183 4261.95130632
0.26100001 107265.72422428 5901.76042607
0.26200001 105695.65473776 5003.63253204
0.26300001 104148.27246935 4536.69896343
0.26400001 102625.96633821 4487.32059047
0.26500001 101126.77926673 5648.94215714
0.26600001 99650.34638768  5587.39518635
0.26700001 98196.69945198  5131.75975620
0.26800001 96765.56325534  4294.93972833
0.26900001 95355.32933620  4248.08012295
0.27000001 93967.07116205  3819.76162350
0.27100001 92599.33990621  5667.07987044
0.27200001 91252.96118006  3736.80893716
0.27300001 89926.38005644  4065.57183475
0.27400001 88618.29728215  4021.05542947
0.27500001 87331.70638168  4700.19265990
0.27600001 86061.88948459  3933.45884505
0.27700001 84812.67771504  4597.69547653
0.27800001 83580.83697195  6995.71638564
0.27900001 82367.45133749  5535.09299184
0.28000001 81171.40648683  4789.92492349
0.28100001 79992.97329470  4060.44351662
0.28200001 78831.94158341  4350.34090218
0.28300001 77687.57130856  3640.43976382
0.28400001 76559.07512556  3927.48073983
0.28500001 75447.49974542  3560.36768150
0.28600001 74351.65140050  5441.42586530
0.28700001 73272.02883676  4431.49251380
0.28800001 72206.39178440  4382.20612482
0.28900001 71157.51050871  3095.35185364
0.29000001 70122.76701345  4285.20249503
0.29100001 69103.39845359  3026.72899554
0.29200001 68098.09405837  3591.49365064
0.29300001 67107.18376775  3255.36963867
0.29400001 66129.74564569  3511.48966001
0.29500001 65167.37448087  3472.11787670
0.29600001 64217.23416891  3433.05350118
0.29700001 63281.29110531  3394.40861557
0.29800001 62358.59848211  4195.17491148
0.29900001 61449.28680861  4700.87066339
0.30000001 60551.95984050  3007.31322784
0.30100001 59668.38077204  3243.57333232
0.30200001 58796.35189584  2939.52375219
0.30300001 57937.53714842  2641.95181904
0.30400001 57090.71076278  2611.90014105
0.30500001 56256.51982464  3873.26157330
0.30600001 55433.01447033  2807.95948093
0.30700001 54622.31305516  3028.26117915
0.30800001 53822.85801766  2993.62750467
0.30900001 53035.32409047  3452.59976175
0.31000001 52259.12567278  3169.25482647
0.31100001 51493.87129150  3614.86993581
0.31200001 50740.63010091  3335.18177444
0.31300001 49997.72455301  2590.38223174
0.31400001 49267.23933046  3259.02803601
0.31500001 48546.24554902  2301.09214797
0.31600002 47837.28229781  2729.59545715
0.31700002 47138.21455520  2473.34223482
0.31800002 46449.61726909  3111.66000819
0.31900002 45772.31816127  3075.89992608
0.32000002 45105.53756248  3257.74760470
0.32100002 44448.74290061  2790.93669888
0.32200002 43803.25872937  3183.40197889
0.32300002 43166.36294868  3566.40507569
0.32400002 42540.80072096  3732.95544002
0.32500002 41925.18017307  2460.16968905
0.32600002 41319.75641625  2432.08097782
0.32700002 40724.32789723  2805.09183839
0.32800002 40139.79691433  2971.34860729
0.32900002 39563.08474676  2154.21006647
0.33000002 38997.77783992  2323.48771373
0.33100002 38441.09597232  1914.36667008
0.33200002 37895.77463538  1892.89403267
0.33300002 37359.20661689  2994.71414423
0.33400002 36832.96578842  2406.11360407
0.33500002 36315.83136801  2562.44518267
0.33600002 35807.90879731  2172.10785051
0.33700002 35309.61813031  1969.21749638
0.33800002 34821.47209185  2833.07510356
0.33900002 34341.98192933  2276.87350974
0.34000002 33871.98770413  1732.55225312
0.34100002 33411.35681518  2228.20349153
0.34200002 32960.85708892  1865.41979529
0.34300002 32518.84476584  3020.35044489
0.34400002 32086.71263836  1992.58494921
0.34500002 31663.26252018  2136.32042341
0.34600002 31249.51617462  2439.80609088
0.34700002 30843.79730548  1771.05092516
0.34800002 30448.02990502  1912.74532922
0.34900002 30060.77128574  2051.64773742
0.35000002 29682.82985783  1719.08117264
0.35100002 29314.51128003  1857.36752267
0.35200002 28953.38697451  2606.23925195
0.35300002 28602.44733230  1974.42703286
0.35400002 28259.80549521  1655.31818528
0.35500002 27926.23914965  2087.76573771
0.35600002 27600.71342719  1625.82010143
0.35700002 27283.95717962  1611.66342694
0.35800002 26976.05432659  1597.92665372
0.35900002 26677.30427431  1728.68939886
0.36000002 26386.61420299  1857.48579480
0.36100002 26103.78602623  2551.38416705
0.36200002 25830.87751089  1406.49134709
0.36300002 25564.85303228  1395.84104168
0.36400002 25307.78922634  1524.16167835
0.36500002 25058.05829868  2063.53119864
0.36600002 24817.42850757  2049.29925608
0.36700002 24584.34897798  1357.05612787
0.36800002 24360.10286586  2022.49763624
0.36900002 24143.64865631  1875.96158946
0.37000002 23934.47988292  1598.34464229
0.37100002 23733.10319704  1456.73794324
0.37200002 23540.29291030  1580.49534087
0.37300002 23354.85317546  1572.24879025
0.37400002 23176.71786945  1564.42853030
0.37500002 23006.58640371  1297.57153464
0.37600002 22844.00586544  1808.56003004
0.37700002 22688.59324699  1672.37628746
0.37800002 22540.55982742  1537.71706427
0.37900002 22400.62561216  1787.57000853
0.38000002 22267.01206166  1527.07175953
0.38100002 22139.89104429  1395.47739863
0.38200002 22020.99471174  1897.65930918
0.38300002 21908.17623211  1261.91101075
0.38400002 21802.75852826  2014.57498345
0.38500002 21703.40481700  1884.94079765
0.38600002 21611.75290873  1881.84347368
0.38700002 21525.70761761  1252.79624270
0.38800002 21446.21832680  2127.35772771
0.38900002 21373.20123983  1625.43203129
0.39000002 21307.00445560  1999.44939284
0.39100002 21246.14201116  1499.12785133
0.39200002 21191.99374510  1624.04851760
0.39300002 21143.31635777  1624.44107273
0.39400002 21101.63194264  2000.43480294
0.39500002 21064.61293352  1251.23806753
0.39600002 21033.49032192  1878.81661202
0.39700002 21007.30558783  1504.96344361
0.39800002 20987.74080962  1884.17452045
0.39900002 20972.54575298  1384.18808528
0.40000002 20962.99283463  1639.20130237
0.40100002 20958.17011172  1642.91103290
0.40200002 20958.87361587  1520.35676413
0.40300002 20964.16632523  1397.47139345
0.40400002 20974.20991512  1656.43830653
0.40500002 20988.62027182  1406.02773863
0.40600002 21008.48931569  1667.33883354
0.40700002 21032.15608452  1415.88481470
0.40800002 21060.02798136  1292.03277787
0.40900002 21091.67763559  1815.99353047
0.41000002 21128.25464425  1563.06835264
0.41100002 21168.39560488  1569.84829244
0.41200002 21211.59989552  1314.05867579
0.41300002 21259.87120821  1848.33329042
0.41400002 21310.88004316  1459.26258010
0.41500002 21365.39249744  1333.20055501
0.41600002 21422.38705949  1875.95852369
0.41700002 21484.06311614  2020.57623182
0.41800002 21548.97649989  2031.52985579
0.41900002 21615.17305126  1361.75596676
0.42000002 21684.83213171  1780.21637821
0.42100002 21757.91783096  1790.45914315
0.42200002 21833.31681124  1662.38882078
0.42300002 21910.73352433  1950.93180545
0.42400002 21990.56416228  2102.84779766
0.42500002 22073.04721933  1551.51456257
0.42600002 22156.47895952  1419.12254460
0.42700002 22243.13355223  1856.41201424
0.42800002 22330.85257843  1724.38851782
0.42900002 22421.34970595  1735.41254948
0.43000002 22513.01864258  1601.01339663
0.43100002 22604.97515517  1904.24319731
0.43200002 22699.55693282  1916.63718045
0.43300002 22794.65884757  1632.32559743
0.43400002 22891.43644424  1493.66629877
0.43500002 22988.68008058  1503.45974852
0.43600002 23087.58350536  1816.06940459
0.43700002 23186.56658344  2894.37924377
0.43800002 23285.85860955  1686.71124832
0.43900002 23386.80360876  2006.58784472
0.44000002 23487.45534303  1709.06476903
0.44100002 23588.80599425  2189.51307615
0.44200002 23690.29406689  1889.06413842
0.44300002 23792.06761053  1901.46213354
0.44400002 23893.62158876  1913.87917996
0.44500002 23994.67311843  1926.29244924
0.44600002 24095.43685813  1777.15902969
0.44700002 24196.99550319  2113.84962734
0.44800002 24297.06031854  2290.96992601
0.44900002 24397.20334214  1976.17356437
0.45000002 24497.11091151  2154.39852121
0.45100002 24595.35538879  1834.32169183
0.45200002 24693.41716485  2684.66844140
0.45300002 24790.22267950  2025.85709338
0.45400002 24886.18282753  2208.02667602
0.45500002 24981.51252255  2904.85041379
0.45600002 25075.17115245  2062.68367676
0.45700002 25168.01654978  1901.94710081
0.45800002 25259.06738468  1912.99555904
0.45900002 25348.88018272  2273.79466015
0.46000002 25437.65762288  1934.91551879
0.46100002 25524.06469355  1945.69954381
0.46200002 25609.51897510  1956.43929483
0.46300002 25693.10418206  2682.36020374
0.46400002 25774.43719945  1797.76707987
0.46500002 25855.05081033  1807.26813730
0.46600002 25932.65519708  2906.53213225
0.46700002 26008.45846182  2190.95264467
0.46800002 26082.89044092  2201.91771539
0.46900002 26154.55461519  2028.28580654
0.47000002 26224.15401466  2038.01022584
0.47100002 26291.86208981  2233.75670902
0.47200002 26357.33581475  1870.05306469
0.47300002 26420.38696012  3193.43232323
0.47400002 26480.56223369  3584.80628230
0.47500002 26538.76090161  2273.84114182
0.47600002 26595.21351253  2093.17637872
0.47700002 26648.05614128  2483.86543066
