# SAXS profile: number of points = 501, q_min = 0, q_max = 0.5, delta_q = 0.001
#    q    intensity    error
0.00000000 1646666.22097351 345.79990640
0.00100000 1646585.39922774 592.77075780
0.00200000 1646342.86427399 889.02517486
0.00300000 1645938.85022946 1580.10135251
0.00400000 1645373.21591290 1357.43295471
0.00500000 1644646.46285880 1628.20006268
0.00600000 1643758.51391216 2243.73046284
0.00700000 1642709.92564557 2759.75278978
0.00800000 1641500.49800834 3324.03864881
0.00900000 1640131.45622123 3444.27620530
0.01000000 1638602.20752536 2703.69375916
0.01100000 1636914.00218488 3241.08986544
0.01200000 1635066.74177623 4144.89437213
0.01300000 1633061.63661386 4801.20142340
0.01400000 1630898.60508401 4403.42642893
0.01500000 1628579.18258990 4690.30825471
0.01600000 1626102.67337621 4561.21820272
0.01700000 1623471.35568808 5260.04742839
0.01800000 1620685.16646250 5080.84822549
0.01900000 1617744.72568763 5338.55783566
0.02000000 1614651.32807575 6103.38229622
0.02100000 1611406.81845569 6912.93556460
0.02200000 1608009.75080266 6102.39728154
0.02300000 1604463.59541471 6353.67612705
0.02400000 1600767.44281470 6603.16600270
0.02500000 1596924.10540764 7473.60515463
0.02600000 1592933.65424509 8386.79607320
0.02700000 1588798.02944510 8674.83763809
0.02800000 1584517.07317534 9649.70941817
0.02900000 1580093.33197809 8532.50438444
0.03000000 1575528.18552997 8058.82703941
0.03100000 1570821.86392855 11309.91794069
0.03200000 1565975.81126218 7751.58062277
0.03300000 1560993.94259116 10349.39031649
0.03400000 1555874.49466420 10618.84391604
0.03500000 1550620.22502350 10048.01952215
0.03600000 1545232.75654536 12864.06329274
0.03700000 1539713.73040487 11409.27926995
0.03800000 1534064.68871749 10769.13461319
0.03900000 1528287.64807948 11920.64420707
0.04000000 1522382.34867062 14043.97781727
0.04100000 1516353.08142446 13374.23479828
0.04200000 1510200.25202736 13637.10890847
0.04300000 1503925.16010710 19851.81303489
0.04400000 1497530.92492042 13140.83447646
0.04500000 1491019.16201466 14403.24577431
0.04600000 1484389.74827685 11511.44303302
0.04700000 1477646.92476407 17022.49336496
0.04800000 1470791.23227304 12972.37927223
0.04900000 1463826.04351409 14272.30458860
0.05000000 1456751.15580786 14487.39091913
0.05100000 1449571.34084958 14698.65408094
0.05200000 1442284.54484291 12612.77893242
0.05300000 1434897.09889814 11622.66704290
0.05400000 1427408.49139872 12953.73266353
0.05500000 1419821.54766603 16697.10217946
0.05600000 1412137.21012910 18110.66056502
0.05700000 1404360.89562772 14661.52843473
0.05800000 1396491.28153121 19774.31746979
0.05900000 1388530.50404904 14996.13014414
0.06000000 1380483.18399885 16420.84824083
0.06100000 1372349.99031331 15315.42660761
0.06200000 1364133.15281855 15469.27067605
0.06300000 1355836.42786613 15619.23637930
0.06400000 1347457.95527510 18392.80194968
0.06500000 1339003.64568609 21209.81873982
0.06600000 1330475.33130040 14708.40547571
0.06700000 1321873.22678626 17528.03980748
0.06800000 1313201.73585789 17669.13018304
0.06900000 1304462.87237550 15066.54688134
0.07000000 1295657.36594539 15178.62675284
0.07100000 1286788.32769592 13897.31459004
0.07200000 1277858.30448982 16791.05890760
0.07300000 1268869.60678829 18309.78928387
0.07400000 1259824.81112016 21259.54468396
0.07500000 1250725.30244011 17109.92293937
0.07600000 1241572.46883548 18642.21149352
0.07700000 1232371.37118962 17302.49486279
0.07800000 1223122.33884847 18842.20051359
0.07900000 1213827.22811561 17479.11290470
0.08000000 1204490.40221445 17561.47088811
0.08100000 1195112.45142103 16169.87222639
0.08200000 1185695.34829361 16238.09855686
0.08300000 1176242.76141507 14820.65948939
0.08400000 1166755.77227801 19338.97783325
0.08500000 1157237.10541228 14928.35936063
0.08600000 1147688.56860747 17972.80382824
0.08700000 1138113.86530184 15023.10372743
0.08800000 1128512.70565680 16572.20986086
0.08900000 1118890.19949087 16615.52024287
0.09000000 1109246.08515393 16655.33075098
0.09100000 1099583.18084029 16691.67346935
0.09200000 1089903.54186827 22806.23268518
0.09300000 1080212.23742833 15230.99326348
0.09400000 1070505.84938566 22882.06360602
0.09500000 1060790.02606440 16802.91480264
0.09600000 1051065.89145394 15293.00943955
0.09700000 1041337.93820648 19899.96893468
0.09800000 1031605.90162694 26042.89221105
0.09900000 1021873.09965443 16860.90693714
0.10000000 1012139.16092065 18400.69081087
0.10100000 1002407.56308399 15336.83643650
0.10200000 992680.63940387 23005.37490027
0.10300000 982959.63677022 21467.83947692
0.10400000 973247.85252171 26058.71247720
0.10500000 963547.51983384 19916.52817203
0.10600001 953856.30644970 19902.21277054
0.10700001 944181.18565875 19884.45670569
0.10800001 934521.35361777 18335.30982087
0.10900001 924880.23168784 16786.57699521
0.11000001 915257.49429783 19810.74939656
0.11100001 905656.38754354 16736.53082965
0.11200001 896078.39819708 19745.08843381
0.11300001 886524.85582315 18191.49089796
0.11400001 876998.43420373 21179.51318325
0.11500001 867500.51399445 15094.50965427
0.11600001 858032.22031845 15058.46617571
0.11700001 848596.14952923 18024.18306485
0.11800001 839191.72795889 22469.35957437
0.11900001 829821.85218870 26886.22927730
0.12000001 820487.03218283 14891.84033560
0.12100001 811192.54745516 25236.20134016
0.12200001 801936.08231496 28111.87068994
0.12300001 792720.64641609 19167.98613343
0.12400001 783546.49500880 17629.79696837
0.12500001 774414.90621207 23418.30786734
0.12600001 765329.98737096 21869.30541968
0.12700001 756290.09793753 17424.92467765
0.12800001 747297.27958292 15906.22334557
0.12900001 738353.73014959 15837.68825817
0.13000001 729460.07748818 18634.05855775
0.13100001 720616.54655467 17121.84995322
0.13200001 711825.41268215 19881.28471342
0.13300001 703088.02605306 18371.69098686
0.13400001 694404.34236837 15467.85745550
0.13500001 685776.79541920 16787.81674338
0.13600001 677205.39825600 19483.20022647
0.13700001 668691.93874389 17994.50092010
0.13800001 660235.34264008 20648.86131478
0.13900001 651839.48785236 15057.49287947
0.14000001 643502.87558396 16332.10375255
0.14100001 635228.71376686 18942.52113791
0.14200001 627015.82323251 16139.38805122
0.14300001 618866.47384356 14704.26811209
0.14400001 610778.10296543 14612.86680273
0.14500001 602756.43888037 18480.51328784
0.14600001 594799.28110699 17049.92219725
0.14700001 586908.66458877 18241.12215597
0.14800001 579081.88345559 14236.72877643
0.14900001 571323.55392769 14140.25862686
0.15000001 563632.04523966 14042.89306973
0.15100001 556008.56179534 15212.39496852
0.15200001 548454.78100757 17621.85294530
0.15300001 540969.65985347 19994.23957169
0.15400001 533552.52748972 18607.64527432
0.15500001 526206.73117721 17238.53332690
0.15600001 518929.58612749 13442.87156307
0.15700001 511725.91648461 18191.85718963
0.15800001 504590.16395293 14441.37117395
0.15900001 497527.80416553 14328.80143630
0.16000001 490534.30592987 14215.68485686
0.16100001 483615.49237769 16452.59982732
0.16200001 476767.70863834 11656.97102649
0.16300001 469991.83982360 12717.97978601
0.16400001 463288.71241654 16052.95464309
0.16500001 456657.20262583 12507.84137043
0.16600001 450098.92524469 12402.47647068
0.16700001 443612.65422320 15650.65517994
0.16800001 437199.28868284 17732.80398626
0.16900001 430859.62037601 17579.07334139
0.17000001 424591.11695629 13068.91519702
0.17100001 418396.09834668 11874.08183179
0.17200001 412273.63560455 13908.05175390
0.17300001 406223.35389452 13783.15904854
0.17400001 400246.76879675 17861.01290106
0.17500001 394341.15399506 14574.84973999
0.17600001 388506.60397633 13409.30606955
0.17700001 382746.95664631 11241.27864763
0.17800001 377057.23482145 13161.18340307
0.17900001 371439.10870226 12034.62769039
0.18000001 365893.34712695 11920.80581248
0.18100001 360419.09220552 9839.44168199
0.18200001 355013.96246827 12668.67384912
0.18300001 349679.76009195 12546.51038479
0.18400001 344416.19545626 9557.54987542
0.18500001 339222.60783490 13250.03568799
0.18600001 334098.89147638 14994.35895785
0.18700001 329043.69779265 9279.03271614
0.18800001 324055.92977015 14699.17766885
0.18900001 319140.03355702 10914.58966334
0.19000001 314287.73379533 9904.77839855
0.19100001 309506.03231171 11587.90639728
0.19200001 304789.82913927 12353.13235872
0.19300001 300141.95129771 12227.78367366
0.19400001 295558.46846953 11238.61129462
0.19500001 291041.41749464 8556.61807869
0.19600001 286588.55868471 11856.16923307
0.19700001 282201.96518107 10895.81839055
0.19800001 277878.18097129 9953.59691279
0.19900001 273618.54637927 12312.83516897
0.20000001 269420.38839656 12184.53764109
0.20100001 265286.23460986 8841.99061744
0.20200001 261212.66602827 8749.31866214
0.20300001 257200.95249032 11018.48932547
0.20400001 253250.52125835 8566.19928645
0.20500001 249358.95783929 8475.71137758
0.20600001 245526.67030698 10673.04486274
0.20700001 241753.75869108 12822.61996709
0.20800001 238038.27468661 8208.75029060
0.20900001 234382.88690748 8121.36741525
0.21000001 230781.42490226 8765.07893213
0.21100001 227237.64754845 9394.00479374
0.21200001 223748.58069441 7863.64424025
0.21300001 220314.23488536 7072.08727416
0.21400001 216934.80724786 7695.76265095
0.21500001 213609.76790581 8305.14816882
0.21600001 210336.19271312 8215.73207580
0.21700001 207115.49670474 7449.94476870
0.21800001 203946.53759816 7369.60848455
0.21900001 200827.85655995 9278.24741176
0.22000001 197758.87925922 10489.13145186
0.22100001 194740.95801999 7133.36162956
0.22200001 191771.25217215 8339.17329502
0.22300001 188849.38605179 6979.87363852
0.22400001 185974.67578013 7531.97472525
0.22500001 183148.56143406 6829.61017883
0.22600001 180366.87157858 7369.79072120
0.22700001 177631.56280125 9112.49960263
0.22800001 174940.63395632 7811.97437875
0.22900001 172293.05737090 5944.11076040
0.23000001 169689.66774424 7643.67144502
0.23100001 167130.09452262 8142.57859023
0.23200001 164610.74049293 7479.08934801
0.23300001 162134.04270824 6829.08620185
0.23400001 159697.32846689 9006.92975152
0.23500001 157300.31003567 5568.43123863
0.23600001 154943.15640815 6059.05241792
0.23700001 152625.10961547 7083.33167228
0.23800001 150344.63614886 5928.84100696
0.23900001 148101.91772527 6398.00314835
0.24000001 145895.42354865 6328.94377290
0.24100001 143726.30148974 5738.99148995
0.24200001 141592.71086143 5161.05455503
0.24300001 139493.36690812 7147.64045848
0.24400001 137428.63399630 5555.55279210
0.24500001 135397.05122032 5995.38171164
0.24600001 133398.96620392 5930.91831799
0.24700001 131433.86311884 7822.94390290
0.24800001 129500.38765402 7738.94353231
0.24900001 127597.31497481 6698.85935308
0.25000001 125726.11172702 5680.30599655
0.25100001 123884.27678712 5619.39106091
0.25200001 122073.95473130 5559.24816147
0.25300001 120291.13019655 6416.32918824
0.25400001 118537.97059216 6347.70862553
0.25500001 116811.11883329 5382.65661050
0.25600001 115113.14641595 4881.37320472
0.25700001 113441.13786504 5707.22391602
0.25800001 111795.83564325 4777.59526226
0.25900001 110177.18770644 4296.91052386
0.26000001 108583.30415236 7226.76214980
0.26100001 107013.67323476 5467.32882426
0.26200001 105470.21740352 4576.88030079
0.26300001 103948.91381849 5351.29033659
0.26400001 102452.34353810 5294.22510284
0.26500001 100978.62928662 4431.95224910
0.26600001 99527.21284893  4384.67156954
0.26700001 98098.15803605  5126.60998156
0.26800001 96691.23469765  4291.64065514
0.26900001 95304.90409754  6947.72783749
0.27000001 93940.10847759  4964.26526742
0.27100001 92595.42130890  4155.68270500
0.27200001 91271.64057442  6353.87555928
0.27300001 89967.24144486  4437.18455805
0.27400001 88681.06808589  5121.33192433
0.27500001 87415.84975653  3980.91798631
0.27600001 86166.89774593  3580.23477078
0.27700001 84938.30147654  4604.50554096
0.27800001 83726.52314327  5255.93273907
0.27900001 82532.84674382  5199.56959094
0.28000001 81356.07537198  3772.07461315
0.28100001 80196.39891350  3731.53861806
0.28200001 79053.85245161  3355.83619540
0.28300001 77927.39018625  3651.67767696
0.28400001 76816.47321274  4597.46613938
0.28500001 75721.87466152  4223.00914975
0.28600001 74642.62196084  3856.03803301
0.28700001 73579.22436348  4450.07170014
0.28800001 72529.30836089  4401.80393277
0.28900001 71495.73441876  3110.06459443
0.29000001 70475.99503507  3999.16052756
0.29100001 69470.95893597  3347.11095997
0.29200001 68479.58795961  3310.64583662
0.29300001 67502.25365356  3274.53447974
0.29400001 66537.89521358  3827.59260335
0.29500001 65588.29381646  3203.33242163
0.29600001 64650.34077569  4320.25922685
0.29700001 63726.08083437  3133.41154296
0.29800001 62814.77769237  4225.86436930
0.29900001 61916.42597174  4457.98288100
0.30000001 61029.58112583  3857.68000559
0.30100001 60156.07400962  2997.57730981
0.30200001 59293.66711058  3233.87675731
0.30300001 58444.07924716  3731.07019577
0.30400001 57606.00810286  3426.11749412
0.30500001 56780.26538980  2606.21430478
0.30600001 55964.63383273  3608.04011401
0.30700001 55161.46553673  3312.99777698
0.30800001 54369.23806644  3276.01859479
0.30900001 53588.29143865  2741.04123686
0.31000001 52818.43526774  3203.17415847
0.31100001 52059.11930297  2923.64027848
0.31200001 51311.49437394  2649.98225241
0.31300001 50573.77900876  3096.63263532
0.31400001 49847.94687926  2826.37872187
0.31500001 49131.39113848  2794.59366027
0.31600002 48426.46159764  2763.21402959
0.31700002 47731.05823705  2276.77158571
0.31800002 47045.70461110  2701.36448668
0.31900002 46371.28163923  2670.98594889
0.32000002 45707.13098888  2861.03799972
0.32100002 45052.60583750  2828.85325448
0.32200002 44408.86212861  3227.41420802
0.32300002 43773.53542342  3403.83027570
0.32400002 43149.19764872  2313.87583348
0.32500002 42534.44048906  2495.92108608
0.32600002 41929.56850732  2879.30360574
0.32700002 41334.36308537  3253.84121616
0.32800002 40749.73936445  2212.09970615
0.32900002 40172.71122110  2187.40422957
0.33000002 39606.71888342  2163.12105425
0.33100002 39049.13384837  2333.57634928
0.33200002 38502.44732200  2115.51706829
0.33300002 37964.36141299  2853.02189529
0.33400002 37436.33947216  2257.41137707
0.33500002 36917.24750765  2232.75523500
0.33600002 36406.90473762  2024.40603380
0.33700002 35905.98421541  2548.60688030
0.33800002 35415.12418546  2161.03098014
0.33900002 34932.56589584  2672.34141759
0.34000002 34459.24252431  2115.10840631
0.34100002 33995.06721284  2267.13113979
0.34200002 33540.83708781  2415.94660985
0.34300002 33094.89429776  2220.00561463
0.34400002 32658.59413852  2535.12349007
0.34500002 32230.76349685  2509.16505706
0.34600002 31812.52645821  2649.34732891
0.34700002 31402.10409816  1967.02789387
0.34800002 31001.43123408  1785.21750216
0.34900002 30609.08907887  2249.76815385
0.35000002 30225.90746886  1909.67292433
0.35100002 29852.19173463  2206.67411754
0.35200002 29485.55593429  1717.38628673
0.35300002 29128.98108748  1856.09876281
0.35400002 28780.44032720  1839.07022401
0.35500002 28440.99629003  1518.74927382
0.35600002 28109.43802433  1505.26047750
0.35700002 27786.43711387  1939.77126680
0.35800002 27472.27177025  1775.25828588
0.35900002 27167.08208591  1760.42700255
0.36000002 26869.86194851  1455.00309343
0.36100002 26580.51005061  2453.64699899
0.36200002 26300.89339862  1718.50045607
0.36300002 26028.14402623  1421.13673115
0.36400002 25764.28953807  1974.83288664
0.36500002 25507.64822079  2100.55493048
0.36600002 25260.14258987  1807.74219007
0.36700002 25020.02086989  1519.21573918
0.36800002 24788.86201409  2469.71443945
0.36900002 24565.26316815  1363.37217041
0.37000002 24349.06599884  1355.02558702
0.37100002 24140.54398609  1616.45090188
0.37200002 23940.50559221  1875.25989187
0.37300002 23747.92292051  1865.16195453
0.37400002 23562.74299859  1988.10653468
0.37500002 23385.41528225  1450.83123284
0.37600002 23215.66831691  1312.84610551
0.37700002 23053.04746977  1437.81863880
0.37800002 22897.94230166  1692.27250597
0.37900002 22750.81151811  1815.51484515
0.38000002 22610.18111570  1292.17191198
0.38100002 22475.96933172  1416.66041409
0.38200002 22350.10103867  1284.01336550
0.38300002 22230.28391016  1408.51085527
0.38400002 22117.82489944  1788.22622784
0.38500002 22011.61040381  1656.81399359
0.38600002 21913.08966654  1526.46589849
0.38700002 21820.22824263  1396.93107827
0.38800002 21734.06966167  1395.00132732
0.38900002 21654.36008067  1646.81416215
0.39000002 21581.53960713  1772.06030109
0.39100002 21514.22560058  1771.05113535
0.39200002 21453.57351016  1644.09468384
0.39300002 21398.54315016  1644.05014812
0.39400002 21350.62536544  1265.02461284
0.39500002 21307.41899179  1392.22682288
0.39600002 21270.16124448  1773.29342697
0.39700002 21237.97770109  1394.69806171
0.39800002 21212.50249365  1269.56833439
0.39900002 21191.46999311  1525.78591179
0.40000002 21176.25210984  1910.62743713
0.40100002 21165.87079057  2042.08331063
0.40200002 21161.10688429  1407.10786894
0.40300002 21160.97332094  1538.82605281
0.40400002 21165.82766319  1414.40650061
0.40500002 21174.97742460  1547.46742351
0.40600002 21189.90319717  1681.73674692
0.40700002 21208.64489638  1427.76604207
0.40800002 21231.71242081  1563.07874248
0.40900002 21258.79678187  1830.38248965
0.41000002 21290.82878418  1443.83762241
0.41100002 21326.52717063  1581.57532991
0.41200002 21365.43826763  2250.10123777
0.41300002 21409.59737640  1861.35048410
0.41400002 21456.59702245  1736.37519632
0.41500002 21507.25007633  1744.66820886
0.41600002 21560.56255256  1483.47457672
0.41700002 21618.52731406  2168.77076291
0.41800002 21680.07262129  1635.11115458
0.41900002 21742.88722309  1506.78215596
0.42000002 21809.37234571  1514.98812178
0.42100002 21879.36422486  1661.95658527
0.42200002 21951.85076033  2785.68999349
0.42300002 22026.45410901  1540.97080249
0.42400002 22103.62215518  1690.92717500
0.42500002 22183.63847251  1842.79493523
0.42600002 22264.58298215  1711.25592910
0.42700002 22349.05254070  1865.25201343
0.42800002 22434.68801446  1876.77391478
0.42900002 22523.10325906  1452.74022905
0.43000002 22613.05749707  1461.93423646
0.43100002 22703.25656394  1765.40531407
0.43200002 22796.27250841  1480.61796958
0.43300002 22889.93498731  1639.14832212
0.43400002 22985.45269168  1649.78094513
0.43500002 23081.47534916  1811.43427124
0.43600002 23179.34427259  1975.22791579
0.43700002 23277.50286404  1835.19841277
0.43800002 23375.91275531  2001.09510625
0.43900002 23476.20405612  2014.25840347
0.44000002 23576.30371655  2027.44433418
0.44100002 23677.24370996  1569.80133236
0.44200002 23778.46605396  1580.07914417
0.44300002 23880.08211038  1908.49625271
0.44400002 23981.54888033  2080.99900271
0.44500002 24082.60795645  1772.23920350
0.44600002 24183.63885436  2270.11828684
0.44700002 24285.37002371  2121.57002582
0.44800002 24385.89032917  1642.38979151
0.44900002 24486.50821110  1818.12332084
0.45000002 24587.01918766  2328.63669762
0.45100002 24685.92863520  1841.07664487
0.45200002 24784.74272991  1852.53568314
0.45300002 24882.46591809  2033.39521119
0.45400002 24979.43135855  2898.23866073
0.45500002 25075.86978109  2744.30331890
0.45600002 25170.69352994  2070.54134790
0.45700002 25264.81244176  2603.53904551
0.45800002 25357.26240171  1920.43235901
0.45900002 25448.47230000  1931.53913911
0.46000002 25538.79576660  2119.20937315
0.46100002 25626.78007453  1953.52953767
0.46200002 25713.92930983  2678.74871281
0.46300002 25799.26671412  2334.31776293
0.46400002 25882.39316162  2166.35641030
0.46500002 25964.88932176  1814.94584961
0.46600002 26044.42163978  2736.61773350
0.46700002 26122.25618434  1833.78247105
0.46800002 26198.71698579  2027.38781004
0.46900002 26272.49048012  2037.43173330
0.47000002 26344.32240849  2047.34911301
0.47100002 26414.20380509  1870.12571804
0.47200002 26481.97115005  2630.45431901
0.47300002 26547.35271790  2831.27530156
0.47400002 26609.88851767  2085.55011142
0.47500002 26670.53385265  3237.26955247
0.47600002 26729.41494809  2294.98767622
0.47700002 26784.64208033  2496.59660664
