# SAXS profile: number of points = 501, q_min = 0, q_max = 0.5, delta_q = 0.001
#    q    intensity    error
0.00000000 1664650.74656090 299.63713438
0.00100000 1664569.39570164 649.18207974
0.00200000 1664325.27953957 823.84103946
0.00300000 1663918.62036318 998.35120778
0.00400000 1663349.28135758 1497.01441011
0.00500000 1662617.78062551 2094.89848651
0.00600000 1661724.03205854 2268.25339611
0.00700000 1660668.57866962 2391.36285267
0.00800000 1659451.22392123 3136.36294563
0.00900000 1658073.22565545 2735.82093928
0.01000000 1656533.96582503 3279.93739396
0.01100000 1654834.71645795 3574.44314318
0.01200000 1652975.34001730 3545.63225979
0.01300000 1650957.07450866 4160.41201126
0.01400000 1648779.85931057 3709.75484791
0.01500000 1646445.18332215 3951.46861593
0.01600000 1643952.41478658 4611.28672962
0.01700000 1641303.80603136 6204.12866511
0.01800000 1638499.26815603 6070.64006168
0.01900000 1635539.51548061 4906.61876784
0.02000000 1632425.70838383 7198.99769962
0.02100000 1629159.80104815 6989.09586337
0.02200000 1625740.31102789 6730.56519344
0.02300000 1622170.69754693 8175.74068778
0.02400000 1618450.11787499 6676.10704065
0.02500000 1614581.41269881 6926.55457682
0.02600000 1610564.49367736 7827.34379728
0.02700000 1606401.42640502 7421.57492991
0.02800000 1602092.04311370 7666.01077786
0.02900000 1597638.90232127 7908.31292959
0.03000000 1593043.39313090 8148.41733041
0.03100000 1588305.72408382 7623.86782640
0.03200000 1583427.35548570 15675.93154131
0.03300000 1578412.24798689 8854.89311942
0.03400000 1573258.42139626 9911.52851212
0.03500000 1567968.97482792 11007.14271158
0.03600000 1562545.43701630 9539.34033383
0.03700000 1556989.28603343 9762.32327491
0.03800000 1551302.21042546 11797.65385628
0.03900000 1545486.28137514 10200.20992945
0.04000000 1539541.09397988 12308.63161674
0.04100000 1533471.01325134 14491.30174714
0.04200000 1527276.53318649 11821.12091528
0.04300000 1520958.91005416 14053.66098124
0.04400000 1514521.25786149 12267.62275841
0.04500000 1507965.06757518 13526.44728465
0.04600000 1501290.47734520 10584.09835731
0.04700000 1494501.58132404 10760.41188598
0.04800000 1487598.89796375 14214.00813139
0.04900000 1480585.94547883 14435.71364036
0.05000000 1473462.48753199 13526.38626542
0.05100000 1466233.24874259 12580.28186025
0.05200000 1458896.02162743 12758.04630367
0.05300000 1451457.42793343 17635.20857151
0.05400000 1443917.00839475 15486.01063721
0.05500000 1436277.31257305 18097.09498264
0.05600000 1428539.53576149 18321.02040108
0.05700000 1420708.88485280 19776.26860028
0.05800000 1412784.11911826 15003.76804560
0.05900000 1404767.66516277 13907.20053466
0.06000000 1396663.71004107 16613.31560709
0.06100000 1388473.21046846 16786.64189903
0.06200000 1380198.32780777 16955.73724969
0.06300000 1371842.72925304 17120.59806156
0.06400000 1363404.73569518 18610.47551259
0.06500000 1354890.40876330 18778.78194389
0.06600000 1346300.89982986 16236.38961162
0.06700000 1337637.48667206 17737.07390335
0.06800000 1328903.64187645 16504.98400469
0.06900000 1320101.83104613 18019.39083743
0.07000000 1311232.70193974 16757.55471552
0.07100000 1302299.47635171 16877.80200404
0.07200000 1293304.57510259 16994.02291296
0.07300000 1284250.57718068 19957.25490450
0.07400000 1275139.59632686 17214.38535715
0.07500000 1265973.42217667 18761.72699607
0.07600000 1256753.29614456 24676.35212664
0.07700000 1247484.37460669 20433.79501417
0.07800000 1238166.83200221 20541.18870622
0.07900000 1228802.80956238 19169.32472829
0.08000000 1219396.39528505 19260.36696705
0.08100000 1209948.51922991 17858.84098174
0.08200000 1200460.96671625 19429.46165803
0.08300000 1190937.10012199 21008.13143211
0.08400000 1181378.58557166 15062.57767306
0.08500000 1171787.80101992 16627.66967706
0.08600000 1162166.78209083 19716.16038387
0.08700000 1152519.05749829 16734.57750069
0.08800000 1142844.35536031 18308.36743270
0.08900000 1133147.79483102 18356.99513849
0.09000000 1123429.51902481 15334.81365505
0.09100000 1113691.96163694 21516.52970970
0.09200000 1103937.14699211 23099.88588620
0.09300000 1094170.09962538 21598.91878158
0.09400000 1084387.74409895 16997.77868760
0.09500000 1074595.61650392 23211.26640748
0.09600000 1064794.79481856 17042.04149218
0.09700000 1054989.89539219 20160.85784876
0.09800000 1045180.55858738 15520.93202478
0.09900000 1035369.98082819 20189.71557552
0.10000000 1025558.13067551 26413.25089769
0.10100000 1015748.12027406 17095.04166822
0.10200000 1005942.49342599 15541.81225446
0.10300000 996142.70914352 21755.75779110
0.10400000 986351.77134339 18642.04935541
0.10500000 976572.01148838 17080.24528455
0.10600001 966801.08094894 15517.15807937
0.10700001 957046.30005320 21705.81110663
0.10800001 947306.29788142 17037.30456920
0.10900001 937584.83556922 23205.22577251
0.11000001 927881.60526769 18539.07534587
0.11100001 918199.95733426 18510.91201123
0.11200001 908540.97901513 18479.72438314
0.11300001 898906.54660912 16908.43293778
0.11400001 889298.83426137 23010.60841995
0.11500001 879719.74538600 26022.11129385
0.11600001 870169.94258744 16798.63153272
0.11700001 860652.34039346 21326.96599934
0.11800001 851166.25596638 22789.97757687
0.11900001 841714.62287703 19696.12310304
0.12000001 832297.91198301 18127.44937688
0.12100001 822921.71211718 16565.41484528
0.12200001 813583.07291710 18012.73008299
0.12300001 804285.89304357 22439.57747314
0.12400001 795029.53126861 17888.16529639
0.12500001 785815.91784391 19307.49801120
0.12600001 776648.86123780 20713.22610529
0.12700001 767527.05850829 14736.52021784
0.12800001 758452.14283615 24949.28441444
0.12900001 749426.44968516 18997.96139493
0.13000001 740450.64099667 14549.85578139
0.13100001 731525.16669522 18829.45867831
0.13200001 722652.22412799 15858.60380607
0.13300001 713833.06373715 15782.84978328
0.13400001 705067.22406485 19988.65674462
0.13500001 696358.00293482 17046.84471557
0.13600001 687705.04054591 16958.80709948
0.13700001 679109.95185359 18274.84966610
0.13800001 670571.87643359 15379.56671124
0.13900001 662094.79104015 15294.39039428
0.14000001 653677.03155906 16590.32384338
0.14100001 645321.72279105 15119.88867809
0.14200001 637027.95856923 16397.10042695
0.14300001 628797.92656166 16298.44302524
0.14400001 620628.80286639 14848.54480898
0.14500001 612526.91001402 17438.64195072
0.14600001 604489.29234888 17327.68638260
0.14700001 596518.82951992 19864.07796013
0.14800001 588612.34044455 23679.87557327
0.14900001 580774.34507287 19601.13507101
0.15000001 573003.36793055 20765.64303359
0.15100001 565300.90602129 15466.63351854
0.15200001 557668.24909609 15358.18430481
0.15300001 550104.43861664 13978.15444486
0.15400001 542608.89302446 15138.78882980
0.15500001 535185.03011445 15027.99635483
0.15600001 527829.90703035 12430.39489722
0.15700001 520548.67974709 13570.70472150
0.15800001 513335.41145736 13467.35515523
0.15900001 506196.11264502 13363.57800460
0.16000001 499125.99691491 15670.06141281
0.16100001 492130.74050844 14350.53307063
0.16200001 485206.82366152 14235.96887825
0.16300001 478355.17183552 15297.79911748
0.16400001 471576.75016584 12838.67762937
0.16500001 464870.08986572 12732.79236255
0.16600001 458237.25451095 16070.38127443
0.16700001 451676.50197047 13658.69806448
0.16800001 445189.02512549 14671.20501573
0.16900001 438775.73079576 13426.53799633
0.17000001 432433.97181062 13310.31828084
0.17100001 426166.15348887 14293.61346298
0.17200001 419970.90540923 10898.24551002
0.17300001 413848.74985861 11881.59816954
0.17400001 407800.34879792 11775.23562764
0.17500001 401823.36778018 11668.95115143
0.17600001 395917.88085157 17869.75439621
0.17700001 390087.81769482 12498.41426925
0.17800001 384327.93720663 14446.88784195
0.17900001 378639.95960319 12267.93527060
0.18000001 373025.08916389 12153.15797901
0.18100001 367482.12077751 13041.94108245
0.18200001 362008.42065150 10930.84477792
0.18300001 356606.42133801 10826.57146326
0.18400001 351275.20747390 10722.67621469
0.18500001 346014.59824685 10619.18852187
0.18600001 340824.36666990 10516.13633042
0.18700001 335702.85004914 13253.54914610
0.18800001 330649.21405729 10311.29622755
0.18900001 325668.10042957 9281.54130077
0.19000001 320751.19616655 11027.42664524
0.19100001 315905.19105866 11827.49091209
0.19200001 311125.01310955 9907.77651063
0.19300001 306413.90419387 11591.63854339
0.19400001 301767.53222169 9709.37080804
0.19500001 297188.21159886 9611.06721728
0.19600001 292673.31462993 11243.04591281
0.19700001 288225.32278959 8560.29249139
0.19800001 283840.56687980 11861.69785048
0.19900001 279520.51365280 9224.17738648
0.20000001 275262.43170866 9129.07897907
0.20100001 271068.86210596 10677.40298299
0.20200001 266936.34190979 8941.03319485
0.20300001 262866.14514626 11261.18619032
0.20400001 258857.60077283 12735.79455999
0.20500001 254908.63518628 7876.67719956
0.20600001 251019.44923331 10911.81597395
0.20700001 247190.03180818 9254.79522836
0.20800001 243418.69420425 9920.52935124
0.20900001 239707.75519678 12081.27143301
0.21000001 236051.30129208 7471.02403907
0.21100001 232453.17063930 10348.81564609
0.21200001 228910.18713274 10239.15315450
0.21300001 225422.36423069 7959.66405728
0.21400001 221989.94371521 8591.01122793
0.21500001 218612.54671752 9207.96090307
0.21600001 215287.05244305 10511.39083250
0.21700001 212015.08263364 9012.76158888
0.21800001 208795.23565536 7544.81619713
0.21900001 205626.11087025 8142.79437547
0.22000001 202507.20088528 6713.11402676
0.22100001 199439.92140999 9297.88957577
0.22200001 196421.36752331 9198.41307606
0.22300001 193451.12762865 7799.94983481
0.22400001 190528.37463284 7073.36624272
0.22500001 187655.02706522 8269.95743383
0.22600001 184826.41949624 7552.00785774
0.22700001 182044.86993923 9961.49575415
0.22800001 179307.88025105 6775.14857568
0.22900001 176615.01323855 9139.82736733
0.23000001 173966.79983644 6630.74488935
0.23100001 171362.68572376 7752.44826878
0.23200001 168799.57538758 5899.54543881
0.23300001 166279.41926864 6420.04868160
0.23400001 163799.68560391 8083.51486687
0.23500001 161360.29602025 5712.15474928
0.23600001 158961.20052413 9606.82060805
0.23700001 156601.51376870 8945.07888955
0.23800001 154280.09276650 5530.94158729
0.23900001 151996.86496474 6566.26487706
0.24000001 149750.26983241 5954.81976155
0.24100001 147541.51987624 6426.90890981
0.24200001 145368.73839791 6358.42891829
0.24300001 143230.79947773 7863.37126329
0.24400001 141127.76122896 5705.09001755
0.24500001 139058.45571438 8723.13733961
0.24600001 137022.97318088 6092.04167581
0.24700001 135021.04060564 6027.33953776
0.24800001 133051.20257011 5466.40891619
0.24900001 131111.95144002 7375.04761740
0.25000001 129205.21365965 7783.32243907
0.25100001 127328.39657704 4813.01361831
0.25200001 125483.36435507 4762.09390257
0.25300001 123666.19382639 6596.35509078
0.25400001 121879.11771469 6060.43941509
0.25500001 120118.87049892 5996.33429900
0.25600001 118387.99913224 5933.01485722
0.25700001 116683.44335638 4967.21441870
0.25800001 115005.89916841 6255.17115173
0.25900001 113355.52411037 5747.12534432
0.26000001 111730.16904376 6123.93085505
0.26100001 110129.61591788 5193.71293243
0.26200001 108555.56059602 6423.77560222
0.26300001 107004.14976918 4661.10098450
0.26400001 105477.61677060 5869.82965103
0.26500001 103974.54995757 6637.73558338
0.26600001 102494.03115282 5746.84059868
0.26700001 101036.36043609 4873.99425808
0.26800001 99601.06721307  4822.68390267
0.26900001 98186.72555700  4374.21883056
0.27000001 96794.31275501  4721.62679963
0.27100001 95422.39047213  3893.23371550
0.27200001 94071.71934554  5393.13192530
0.27300001 92740.77043726  4573.97501442
0.27400001 91428.28307476  4148.55854085
0.27500001 90137.12931023  4478.01279606
0.27600001 88862.60452445  4799.91381055
0.27700001 87608.79618146  4749.27306576
0.27800001 86372.05434303  5060.53890346
0.27900001 85153.80806276  3934.10611869
0.28000001 83952.62537348  3892.46365967
0.28100001 82768.90874355  4551.46250722
0.28200001 81602.69507738  6235.26222598
0.28300001 80452.87340650  3427.29256933
0.28400001 79318.83716737  5425.40871904
0.28500001 78201.37814085  3690.32320913
0.28600001 77099.59019524  3982.96501801
0.28700001 76013.92519026  3283.80172365
0.28800001 74941.88808247  3898.47720258
0.28900001 73886.74425237  4499.70293796
0.29000001 72845.41826471  4451.58372087
0.29100001 71819.17973181  3460.24824327
0.29200001 70806.81544400  3423.15565468
0.29300001 69808.83592151  3386.42679085
0.29400001 68823.90677005  3654.54962248
0.29500001 67854.09501899  3615.26635375
0.29600001 66896.21824695  4172.31732957
0.29700001 65951.98550856  3832.47005932
0.29800001 65021.14800192  4082.67807631
0.29900001 64103.53932213  3173.12534666
0.30000001 63197.39836717  3138.69893849
0.30100001 62305.05185778  2822.41898277
0.30200001 61423.97102410  4187.57942281
0.30300001 60555.81502943  4142.01794410
0.30400001 59699.40690199  4096.87199260
0.30500001 58855.54354995  3241.76349220
0.30600001 58021.90815779  3206.29079659
0.30700001 57200.98975143  3435.49160712
0.30800001 56391.25918711  2875.10848577
0.30900001 55592.95085399  3877.60850565
0.31000001 54805.84328757  3068.03125249
0.31100001 54029.42508314  3540.00809905
0.31200001 53264.84292129  3000.94139227
0.31300001 52510.37787446  2720.56280648
0.31400001 51767.91931044  2446.03430323
0.31500001 51034.74760958  2902.85658148
0.31600002 50313.57662245  2392.41068167
0.31700002 49601.92746031  4022.22048820
0.31800002 48900.62264781  3509.84235673
0.31900002 48210.22849753  3008.31840069
0.32000002 47530.37952988  2517.44667100
0.32100002 46860.04439696  2942.34232700
0.32200002 46200.84888514  2686.11748137
0.32300002 45550.05617316  2435.10611832
0.32400002 44910.50346230  2627.26457695
0.32500002 44280.47146519  3031.44122005
0.32600002 43660.41936753  2784.00677280
0.32700002 43050.25968982  2541.68745244
0.32800002 42450.75802108  3142.41751131
0.32900002 41858.90116512  2279.21727637
0.33000002 41278.15855892  2459.35280340
0.33100002 40705.95465604  2635.30362923
0.33200002 40144.68894382  2205.75003847
0.33300002 39592.09265136  2975.34590365
0.33400002 39049.56944862  2158.46505349
0.33500002 38516.36129752  1941.22470132
0.33600002 37991.71721199  2496.62581482
0.33700002 37476.58990619  2090.06951805
0.33800002 36971.64093387  2068.00883357
0.33900002 36474.91707951  2232.26503098
0.34000002 35987.68988133  2393.00155199
0.34100002 35509.60158175  2732.46397112
0.34200002 35041.47665474  1983.17246520
0.34300002 34581.58297431  2141.29171918
0.34400002 34131.56086050  2472.83170146
0.34500002 33689.92947332  1923.35816472
0.34600002 33258.07085932  2423.51573830
0.34700002 32834.03347276  1885.33029130
0.34800002 32419.69896637  2376.03984978
0.34900002 32013.78179547  2521.08543580
0.35000002 31617.08938540  2164.03178548
0.35100002 31229.80301750  2968.08061936
0.35200002 30849.79009143  2450.24469406
0.35300002 30479.74535442  1942.16946597
0.35400002 30117.70389135  1924.52136981
0.35500002 29764.78595442  1748.38360977
0.35600002 29419.98184530  2048.07213317
0.35700002 29083.59644374  2186.50488420
0.35800002 28756.15232158  1858.22265104
0.35900002 28437.62401786  2149.88447758
0.36000002 28127.10119041  1523.08260160
0.36100002 27824.53767580  2266.30870104
0.36200002 27531.65092336  1798.91815654
0.36300002 27245.63416875  1636.37286569
0.36400002 26968.44778810  1476.52258634
0.36500002 26698.64907907  2198.63385581
0.36600002 26437.94623661  1892.03171204
0.36700002 26184.62874086  1879.00904745
0.36800002 25940.25599046  1722.95188450
0.36900002 25703.45617634  1997.15863951
0.37000002 25474.04062958  1842.91955665
0.37100002 25252.42639990  1690.90255183
0.37200002 25039.15896158  1961.31741437
0.37300002 24833.42183573  1950.41704337
0.37400002 24635.08419576  1524.29590682
0.37500002 24444.54700008  1516.53976772
0.37600002 24261.64389663  1783.59483555
0.37700002 24085.90208987  1638.80485583
0.37800002 23917.62643082  1359.71712700
0.37900002 23757.36124249  1625.00358597
0.38000002 23603.54843339  1888.51999962
0.38100002 23456.20024078  1881.65647246
0.38200002 23317.17691734  1339.57187736
0.38300002 23184.29473762  1736.04007220
0.38400002 23058.61998501  1731.12597739
0.38500002 22939.23055963  2125.09041972
0.38600002 22827.60988428  1457.65709822
0.38700002 22721.57094503  1983.59323747
0.38800002 22622.26268067  1584.01090794
0.38900002 22529.43925505  1317.97225886
0.39000002 22443.44577287  1711.20060402
0.39100002 22362.94340658  1314.94113460
0.39200002 22289.28028489  1313.95313504
0.39300002 22221.05106817  1575.91701642
0.39400002 22160.11416382  1575.58419169
0.39500002 22103.71706628  1312.96085594
0.39600002 22053.28647506  1444.60059899
0.39700002 22008.03678388  1708.04381572
0.39800002 21969.47866921  1577.84803278
0.39900002 21935.33295726  2105.79206367
0.40000002 21907.01074098  1844.78946190
0.40100002 21883.52462927  1979.36489650
0.40200002 21865.70291083  1453.95998394
0.40300002 21852.54236452  1456.69054304
0.40400002 21844.38441876  1857.86498284
0.40500002 21840.44121902  2527.15757319
0.40600002 21842.36372009  1600.17164195
0.40700002 21848.01108188  1470.80817572
0.40800002 21858.17900068  1877.39908332
0.40900002 21872.29060245  1345.14593579
0.41000002 21891.35607291  1484.56238243
0.41100002 21914.19265462  1354.29717022
0.41200002 21940.09664412  1359.18905150
0.41300002 21971.47397152  1773.75717777
0.41400002 22005.58646449  1506.83260455
0.41500002 22043.40655529  1513.05949765
0.41600002 22083.83718608  1519.47848959
0.41700002 22128.94599356  1803.73047340
0.41800002 22177.83918195  1393.87725863
0.41900002 22227.93828654  1400.36017841
0.42000002 22281.76582702  1547.80293652
0.42100002 22339.08036442  1979.68939570
0.42200002 22398.88691267  1563.33038615
0.42300002 22460.89665503  1999.91833293
0.42400002 22525.44536173  1435.99720986
0.42500002 22593.03706242  2021.17319138
0.42600002 22661.52358406  2177.20598151
0.42700002 22733.56422010  2043.29284893
0.42800002 22806.78944654  1761.14036452
0.42900002 22882.75695023  1623.53168255
0.43000002 22960.48539551  2820.35135721
0.43100002 23038.40856819  1642.17784056
0.43200002 23119.24105708  1952.07321116
0.43300002 23200.71369546  1963.47649309
0.43400002 23284.21725746  2127.01334726
0.43500002 23368.13768071  2598.06967046
0.43600002 23454.10377696  1844.89989052
0.43700002 23540.29444544  1701.25716019
0.43800002 23626.80841811  2022.57303048
0.43900002 23715.34061936  1565.21255505
0.44000002 23803.64025704  2204.45522867
0.44100002 23892.94772410  1742.51276010
0.44200002 23982.55221391  2231.09693819
0.44300002 24072.55448693  1923.87864577
0.44400002 24162.64228232  1935.42773853
0.44500002 24252.23257437  1784.72187973
0.44600002 24341.92310893  1958.55122616
0.44700002 24432.48516613  1970.23569717
0.44800002 24521.77108628  1981.84963312
0.44900002 24611.28192513  1827.38776954
0.45000002 24700.75013593  1671.00582589
0.45100002 24788.76299118  1848.74603150
0.45200002 24876.69240450  2197.48272770
0.45300002 24963.56540926  1870.02077343
0.45400002 25049.92085026  2564.48576858
0.45500002 25135.80802844  1891.21828569
0.45600002 25220.05023431  2939.01869335
0.45700002 25303.74110282  2433.71393461
0.45800002 25385.91267396  1747.82017044
0.45900002 25466.80920401  2635.81487754
0.46000002 25546.98575334  2296.54639314
0.46100002 25624.88591544  2663.70701716
0.46200002 25702.05496205  2677.51170257
0.46300002 25777.59851405  2332.35722409
0.46400002 25850.94679619  2344.03471184
0.46500002 25923.81940709  2174.49007493
0.46600002 25993.82700022  2367.12796797
0.46700002 26062.15462787  2378.43234407
0.46800002 26129.30760420  2389.65594020
0.46900002 26193.77035153  2031.32698704
0.47000002 26256.49582919  2411.52797373
0.47100002 26317.31328970  2049.59245615
0.47200002 26376.21980127  2619.95003704
0.47300002 26432.80668065  3006.99623051
0.47400002 26486.57549823  2075.88545307
0.47500002 26538.68624010  1894.86228736
0.47600002 26589.13394100  1902.45262365
0.47700002 26635.96935321  2673.71873040
