# SAXS profile: number of points = 501, q_min = 0, q_max = 0.5, delta_q = 0.001
#    q    intensity    error
0.00000000 1664650.74656090 324.60689558
0.00100000 1664569.39773834 749.05624677
0.00200000 1664325.29111201 823.84104519
0.00300000 1663918.64221779 1098.18634298
0.00400000 1663349.32408937 1621.76565261
0.00500000 1662617.86314793 1795.62736327
0.00600000 1661724.13785302 2617.21562367
0.00700000 1660668.70544978 2192.08278230
0.00800000 1659451.41124559 3136.36329967
0.00900000 1658073.46324975 2984.53236143
0.01000000 1656534.24635748 4373.25059922
0.01100000 1654835.05608742 3574.44387678
0.01200000 1652975.74057461 3867.96340253
0.01300000 1650957.55582830 4160.41322418
0.01400000 1648780.41737739 4451.70732427
0.01500000 1646445.81801165 4741.76416702
0.01600000 1643953.14973841 4192.08071923
0.01700000 1641304.62126834 7533.58854957
0.01800000 1638500.19790014 5603.67092897
0.01900000 1635540.54475783 5887.94622681
0.02000000 1632426.81197002 8227.43150450
0.02100000 1629161.03612760 6451.47799557
0.02200000 1625741.67078046 6169.68992092
0.02300000 1622172.17321234 7007.78410726
0.02400000 1618451.72472594 6676.11366891
0.02500000 1614583.17726045 7556.24961468
0.02600000 1610566.34174819 8479.63217715
0.02700000 1606403.42523621 6746.89469501
0.02800000 1602094.20552898 9059.84314775
0.02900000 1597641.21256381 10784.07867995
0.03000000 1593045.82426556 8889.19610800
0.03100000 1588308.37102476 12198.20885075
0.03200000 1583430.13718046 7837.97954005
0.03300000 1578415.23251248 8854.90986261
0.03400000 1573261.47967844 9911.54777930
0.03500000 1567972.25375266 13547.28089801
0.03600000 1562548.87152137 12141.00529280
0.03700000 1556992.99127745 14199.77673715
0.03800000 1551306.07595804 9982.65506078
0.03900000 1545490.33311281 12054.82515654
0.04000000 1539545.29316622 12308.66518923
0.04100000 1533475.42485315 9660.89562452
0.04200000 1527281.16593373 22657.21714776
0.04300000 1520963.67562214 14053.70501509
0.04400000 1514526.33246860 17379.19047220
0.04500000 1507970.36573368 15607.49401054
0.04600000 1501295.92042951 13759.37775037
0.04700000 1494507.23893518 11836.49788286
0.04800000 1487604.76185113 16400.84326251
0.04900000 1480591.93183349 14435.77200733
0.05000000 1473468.79001051 12399.24044532
0.05100000 1466239.72188858 13724.00443620
0.05200000 1458902.80722506 11598.27785793
0.05300000 1451464.34013788 17635.29255479
0.05400000 1443924.20236735 14294.85027006
0.05500000 1436284.84888774 15684.23128151
0.05600000 1428547.20308262 13435.48707195
0.05700000 1420716.74496452 12360.23625815
0.05800000 1412792.23160309 16254.17538354
0.05900000 1404776.08539790 16435.88096681
0.06000000 1396672.19596442 20447.28190419
0.06100000 1388481.96817030 15495.45948890
0.06200000 1380207.43206317 14347.25692694
0.06300000 1371851.99571880 18437.69168452
0.06400000 1363414.22798060 17281.27614784
0.06500000 1354900.11293922 17437.56526922
0.06600000 1346310.84608603 17589.55202710
0.06700000 1337647.68109650 13644.00698571
0.06800000 1328914.11064946 17880.54019576
0.06900000 1320112.52724462 18019.53684054
0.07000000 1311243.60748429 15361.21958102
0.07100000 1302310.61840136 15471.45087126
0.07200000 1293315.97135550 14161.81054978
0.07300000 1284262.13496053 18531.90347580
0.07400000 1275151.39261870 18649.08999102
0.07500000 1265985.48191073 15875.45868728
0.07600000 1256765.48882822 15967.20628411
0.07700000 1247496.90400788 16055.28590739
0.07800000 1238179.61124375 20541.40071385
0.07900000 1228815.73353180 16220.36844342
0.08000000 1219409.47366777 14815.82580009
0.08100000 1209961.76935896 16370.78350751
0.08200000 1200474.48539022 19429.68045778
0.08300000 1190950.86707272 19507.77611819
0.08400000 1181392.50175876 19581.58163578
0.08500000 1171801.91708492 24185.99270405
0.08600000 1162181.19620373 16683.11185480
0.08700000 1152533.59807876 16734.78862993
0.08800000 1142858.96662433 21360.03508936
0.08900000 1133162.77962218 16827.46806777
0.09000000 1123444.55858084 21469.02652300
0.09100000 1113707.21612473 19979.90839596
0.09200000 1103952.64441113 18480.16813576
0.09300000 1094185.81947777 15428.02077963
0.09400000 1084403.57231452 16998.02679489
0.09500000 1074611.57805582 17021.84819648
0.09600000 1064810.93346744 17042.29979127
0.09700000 1055006.31562692 15508.59356882
0.09800000 1045197.21344724 20177.53315430
0.09900000 1035386.45590140 17083.87732570
0.10000000 1025574.84004691 20198.69742461
0.10100000 1015764.87454234 20203.56430486
0.10200000 1005959.59488645 23313.11470806
0.10300000 996159.92291444 18648.11463418
0.10400000 986369.08577073 17088.84521492
0.10500000 976589.44230271 18633.32743582
0.10600001 966818.59691821 23276.15881603
0.10700001 957063.97169755 15504.43707110
0.10800001 947324.02485337 21684.24794939
0.10900001 937602.72616419 17017.49028082
0.11000001 927899.61332618 24719.24686253
0.11100001 918218.01946490 20053.88248912
0.11200001 908559.12193554 20020.10119434
0.11300001 898924.65636870 26131.74099094
0.11400001 889317.18173147 16874.79431789
0.11500001 879738.05317267 24491.90855360
0.11600001 870188.26628616 19853.34623024
0.11700001 860670.85093027 15233.87477890
0.11800001 851184.71604289 18232.37747635
0.11900001 841733.12002743 21211.67562380
0.12000001 832316.57731251 18127.85590778
0.12100001 822940.26165092 21083.73049671
0.12200001 813601.79651650 16512.04923821
0.12300001 804304.48882453 16456.07061667
0.12400001 795048.11093018 19379.29861703
0.12500001 785834.60830885 17822.72975626
0.12600001 776667.41007454 14795.51485914
0.12700001 767545.70048206 16210.56595813
0.12800001 758470.77699828 16144.05124927
0.12900001 749444.90854871 17537.01168660
0.13000001 740469.06135762 14550.21774150
0.13100001 731543.74112914 15933.02343284
0.13200001 722670.80552865 14417.28324993
0.13300001 713851.40250696 22957.46218691
0.13400001 705085.75078116 17133.58455176
0.13500001 696376.26532934 19888.50707551
0.13600001 687723.30871159 18372.52905851
0.13700001 679128.23124815 14057.95504972
0.13800001 670590.13420533 15379.98545325
0.13900001 662112.88410363 15294.80834407
0.14000001 653694.93376724 17973.34305156
0.14100001 645339.64651922 15120.30863106
0.14200001 637045.71196185 17764.02051590
0.14300001 628815.60101518 20373.62643387
0.14400001 620646.32680857 14848.96406932
0.14500001 612544.33886907 13414.72165403
0.14600001 604506.52604160 17328.18038643
0.14700001 596535.89692773 15891.71704387
0.14800001 588629.32382316 19733.79901219
0.14900001 580791.18496904 14374.58250619
0.15000001 573020.06107730 18170.46699410
0.15100001 565317.46289281 23200.62977184
0.15200001 557684.55646762 14078.74729236
0.15300001 550120.64328913 17790.90244351
0.15400001 542624.76351164 15139.23161641
0.15500001 535200.98488006 16280.81472839
0.15600001 527845.67689874 13673.84290540
0.15700001 520564.07402847 13571.10605044
0.15800001 513350.62811674 19589.46089353
0.15900001 506211.06797101 20653.41254807
0.16000001 499140.86973084 13259.67783029
0.16100001 492145.25890757 16742.78249837
0.16200001 485221.41855170 11863.66424363
0.16300001 478369.46690603 12944.67838557
0.16400001 471590.77376161 11671.87220162
0.16500001 464883.92990776 13890.73248144
0.16600001 458250.79423965 14922.93781897
0.16700001 451689.78046061 13659.09960604
0.16800001 445202.05878963 12414.45999551
0.16900001 438788.50250830 13426.92881075
0.17000001 432446.49703447 12201.47848998
0.17100001 426178.41816845 13194.48444956
0.17200001 419983.01258718 10898.55969130
0.17300001 413860.48895583 14042.28705341
0.17400001 407811.75265749 14987.08261794
0.17500001 401834.55318727 11669.27597567
0.17600001 395928.81452411 11563.10157429
0.17700001 390098.55741926 10415.63197503
0.17800001 384338.45158090 12383.38549483
0.17900001 378650.16245033 12268.26584286
0.18000001 373034.91284511 11140.68819835
0.18100001 367491.78352819 17055.29447918
0.18200001 362017.71209933 11924.86399986
0.18300001 356615.40106892 13779.61974824
0.18400001 351283.82099445 11697.75179173
0.18500001 346023.02382379 12550.25566699
0.18600001 340832.43882054 11472.42043270
0.18700001 335710.63700144 10413.74445178
0.18800001 330656.74734946 11248.94307630
0.18900001 325675.31841804 11138.09641614
0.19000001 320758.07112455 18379.43834384
0.19100001 315911.76657036 13647.38896068
0.19200001 311131.30482146 9007.25170019
0.19300001 306419.87965920 10700.18270331
0.19400001 301773.16930086 12357.61186682
0.19500001 297193.47319669 10484.98622985
0.19600001 292678.29626788 12108.10168879
0.19700001 288229.92465125 11128.55791669
0.19800001 283844.98278897 9320.05045033
0.19900001 279524.66388940 11740.03643819
0.20000001 275266.20557444 12448.91473545
0.20100001 271072.28499388 12320.23593525
0.20200001 266939.46238296 12192.46052060
0.20300001 262868.95147710 12870.06447262
0.20400001 258860.09362121 8755.94308059
0.20500001 254910.85071878 10239.76935738
0.20600001 251021.38265790 11691.32144992
0.20700001 247191.59086361 9254.85359940
0.20800001 243420.00809059 9157.46113724
0.20900001 239708.84469118 9060.99475765
0.21000001 236052.03968872 7471.04740932
0.21100001 232453.52903989 8131.22483021
0.21200001 228910.37128200 13164.63607478
0.21300001 225422.21961255 9406.86966915
0.21400001 221989.50541184 7159.16188799
0.21500001 218611.74302562 10624.53121335
0.21600001 215286.01632387 9810.58422771
0.21700001 212013.81971889 9012.70790237
0.21800001 208793.65771743 7544.75917834
0.21900001 205624.20736630 8821.27891310
0.22000001 202505.01319638 7384.34565536
0.22100001 199437.52281319 7969.52378844
0.22200001 196418.66696265 7227.22519263
0.22300001 193448.20322055 8449.81791623
0.22400001 190525.23196297 7073.24957109
0.22500001 187651.57391957 8905.94411936
0.22600001 184822.70544961 8181.17744360
0.22700001 182040.94437479 8093.54076964
0.22800001 179303.62299680 11086.34353417
0.22900001 176610.61703122 7920.98654844
0.23000001 173962.10450792 6630.56592689
0.23100001 171357.78900294 6559.57647325
0.23200001 168794.46040886 7079.24000435
0.23300001 166274.03407803 7003.46264659
0.23400001 163794.17304824 7505.86833493
0.23500001 161354.50360460 6854.33963731
0.23600001 158955.17479909 7346.11375079
0.23700001 156595.29015854 5590.45212308
0.23800001 154273.70070000 7189.92616120
0.23900001 151990.26989409 7113.14496749
0.24000001 149743.50845435 7037.19651267
0.24100001 147534.54792728 6426.60521170
0.24200001 145361.69287285 6358.12074701
0.24300001 143223.56036156 7338.77558007
0.24400001 141120.31044925 6742.02315063
0.24500001 139050.89748553 5644.07619593
0.24600001 137015.21744850 9137.54528389
0.24700001 135013.20315243 6529.23881332
0.24800001 133043.12554851 5962.99316917
0.24900001 131103.87904005 6882.95397522
0.25000001 129196.90621386 5350.69012398
0.25100001 127320.08869473 6737.77941248
0.25200001 125474.87151120 8095.01171852
0.25300001 123657.61792586 6595.89765222
0.25400001 121870.42129918 6060.00698581
0.25500001 120110.11493389 4612.22863167
0.25600001 118379.12858894 5019.86718532
0.25700001 116674.52498553 4966.83476363
0.25800001 114996.83394550 5361.15265220
0.25900001 113346.56035757 6630.77409465
0.26000001 111721.10244182 6123.43391457
0.26100001 110120.48930159 6058.82960805
0.26200001 108546.30775249 4282.15204345
0.26300001 106994.91622873 5084.39865977
0.26400001 105468.38521046 4611.60536154
0.26500001 103965.22920158 4563.03412558
0.26600001 102484.75114723 5335.86882097
0.26700001 101027.01662152 4467.41488640
0.26800001 99591.72418492  5224.08413933
0.26900001 98177.36838639  3976.18360781
0.27000001 96785.01962612  5508.03572757
0.27100001 95413.09678917  6617.85270647
0.27200001 94062.47072015  5777.78753741
0.27300001 92731.49471757  7241.40276519
0.27400001 91419.15814868  3771.04045210
0.27500001 90127.97135852  5596.94728624
0.27600001 88853.49810331  6276.16713555
0.27700001 87599.79110209  5844.65833894
0.27800001 86363.15833048  5060.01768606
0.27900001 85144.89426741  3576.08572848
0.28000001 83943.82503549  4245.87887125
0.28100001 82760.28304696  4550.98818015
0.28200001 81594.14021685  4502.77284098
0.28300001 80444.42491904  3769.62593012
0.28400001 79310.46553337  4068.62707443
0.28500001 78193.09415234  4025.38067749
0.28600001 77091.42369947  4314.42173155
0.28700001 76005.87707896  4925.18106784
0.28800001 74934.03509955  4222.90774792
0.28900001 73879.01715590  3535.11113824
0.29000001 72837.85940956  3497.30998509
0.29100001 71811.74230871  3459.88990821
0.29200001 70799.59627375  3422.80664387
0.29300001 69801.74049844  5233.03673288
0.29400001 68816.93594764  3349.66451581
0.29500001 67847.32703415  4518.63219437
0.29600001 66889.65272887  3575.92100416
0.29700001 65945.52853325  2947.76526498
0.29800001 65015.01136793  3207.51573768
0.29900001 64097.52778537  3461.26666426
0.30000001 63191.61810036  3423.72203076
0.30100001 62299.48041495  3104.38325604
0.30200001 61418.62285335  3628.91950309
0.30300001 60550.61515472  3037.21899995
0.30400001 59694.53518158  3277.23013662
0.30500001 58850.89071274  3241.50721392
0.30600001 58017.51290576  2938.87725538
0.30700001 57196.79353044  3699.48878069
0.30800001 56387.30381343  2874.90682104
0.30900001 55589.21666475  3877.34804594
0.31000001 54802.42236784  3067.83974940
0.31100001 54026.21333210  3539.79766511
0.31200001 53261.84203603  3500.90104278
0.31300001 52507.71273657  4204.29275787
0.31400001 51765.46675389  2690.51026192
0.31500001 51032.61145314  2660.84048715
0.31600002 50311.67698690  2392.32035400
0.31700002 49600.38242927  3075.71986007
0.31800002 48899.29462366  2807.79763024
0.31900002 48209.18621570  2545.44515271
0.32000002 47529.57093285  2746.25873853
0.32100002 46859.54951747  2263.31634886
0.32200002 46200.66166709  2686.10659651
0.32300002 45550.20391498  2435.11401660
0.32400002 44910.99942213  2846.23472315
0.32500002 44281.16949049  2381.88421968
0.32600002 43661.39850634  2355.75086796
0.32700002 43051.55414283  2541.76387695
0.32800002 42452.36334793  2514.02907651
0.32900002 41860.82011458  2072.11069379
0.33000002 41280.42236845  2254.53037441
0.33100002 40708.42362018  2432.73551074
0.33200002 40147.49666072  2205.90430848
0.33300002 39595.20438809  2578.83578392
0.33400002 39053.06356943  2354.89984475
0.33500002 38520.14772012  3300.40641295
0.33600002 37995.76666020  2304.82331476
0.33700002 37480.97367895  3040.45672882
0.33800002 36976.35327180  2632.34671408
0.33900002 36479.90236063  2790.71266275
0.34000002 35992.99414676  2025.14591157
0.34100002 35515.23725975  2368.51128502
0.34200002 35047.39783544  1803.18870403
0.34300002 34587.82857183  2141.67844660
0.34400002 34138.08138995  1943.31037516
0.34500002 33696.72861157  1923.74632754
0.34600002 33265.25507542  1731.45660868
0.34700002 32841.52795760  1885.76062464
0.34800002 32427.49966239  1867.33765650
0.34900002 32021.81940339  3194.17663677
0.35000002 31625.37568666  1831.58371964
0.35100002 31238.49135468  1814.33166381
0.35200002 30858.71692482  1797.36605241
0.35300002 30488.99815711  1942.75905459
0.35400002 30127.15579137  1764.69823406
0.35500002 29774.62140642  2225.95080177
0.35600002 29430.06878536  1733.57828391
0.35700002 29094.03180756  2187.28941489
0.35800002 28766.80454290  2013.82024741
0.35900002 28448.52935663  1843.46478963
0.36000002 28138.30603536  1828.42721278
0.36100002 27835.97781714  1813.79240048
0.36200002 27543.37177408  1649.71033055
0.36300002 27257.59386626  1785.91763471
0.36400002 26980.66455852  2068.06803637
0.36500002 26711.11153830  1613.08410221
0.36600002 26450.67313561  1747.33155011
0.36700002 26197.62649023  1879.94176599
0.36800002 25953.49488260  2011.13641372
0.36900002 25716.94207134  1712.74842308
0.37000002 25487.76705421  1702.07316451
0.37100002 25266.33202526  1409.86139379
0.37200002 25053.22308530  2242.76463684
0.37300002 24847.73962014  1533.35408459
0.37400002 24649.66790859  1663.85266265
0.37500002 24459.31832691  2483.11011418
0.37600002 24276.58710714  1647.40927913
0.37700002 24101.08312913  1913.14406942
0.37800002 23932.95817796  1768.76535793
0.37900002 23772.85213067  1626.06316277
0.38000002 23619.25198790  1889.77644108
0.38100002 23472.04225489  1479.44289341
0.38200002 23333.20820365  1474.54216228
0.38300002 23200.45621772  1336.34634145
0.38400002 23074.94605143  1865.60947664
0.38500002 22955.70429317  1727.87594400
0.38600002 22844.17663493  1458.71496813
0.38700002 22738.37275955  1323.37335730
0.38800002 22639.16367068  1717.29384160
0.38900002 22546.47490239  1450.86572870
0.39000002 22460.54926591  1317.31127685
0.39100002 22380.22595143  1315.95734829
0.39200002 22306.67062451  1446.47612518
0.39300002 22238.45483938  1314.29274327
0.39400002 22177.57401755  1708.22771963
0.39500002 22121.34360132  1314.00787217
0.39600002 22070.97404280  1577.19187982
0.39700002 22025.80723164  1840.91705564
0.39800002 21987.32256351  1447.53544955
0.39900002 21953.17786605  1448.90980781
0.40000002 21924.87587790  1582.53761585
0.40100002 21901.49071654  1452.72594806
0.40200002 21883.67689018  1719.72882990
0.40300002 21870.52343522  1722.95991786
0.40400002 21862.44148483  1992.21507470
0.40500002 21858.47236057  1331.18102983
0.40600002 21860.39263891  1734.95014399
0.40700002 21866.07646387  1873.48552019
0.40800002 21876.17668196  1744.73455394
0.40900002 21890.31204131  1884.75595606
0.41000002 21909.35735586  1350.71194499
0.41100002 21932.13435104  2575.27133752
0.41200002 21957.99175280  1632.35718425
0.41300002 21989.29398823  2048.30283206
0.41400002 22023.39332517  1645.14755934
0.41500002 22061.14067515  1514.27676769
0.41600002 22101.58005156  1658.94467728
0.41700002 22146.56723682  1666.30779785
0.41800002 22195.39684197  1534.47883338
0.41900002 22245.36415746  1962.04121166
0.42000002 22299.12364376  1408.18972483
0.42100002 22356.36559910  1981.22121327
0.42200002 22416.02145316  1564.52629146
0.42300002 22477.89294297  1572.55346481
0.42400002 22542.34350150  2011.90425284
0.42500002 22609.86869622  1589.24774597
0.42600002 22678.16858396  1888.29779662
0.42700002 22750.09351190  1606.61167994
0.42800002 22823.14830058  1762.40359529
0.42900002 22898.95219610  1476.98248664
0.43000002 22976.52768173  2079.60561902
0.43100002 23054.27497388  1643.30879801
0.43200002 23134.94349493  1803.13758144
0.43300002 23216.24454175  1662.51535042
0.43400002 23299.57454065  2128.41623515
0.43500002 23383.31922509  1988.04989473
0.43600002 23469.09218888  2922.95822518
0.43700002 23555.03778313  1857.07926683
0.43800002 23641.37178804  2490.85504963
0.43900002 23729.63407773  1722.77151568
0.44000002 23817.74440211  1890.65264024
0.44100002 23906.83703726  1743.52570775
0.44200002 23996.21884564  2391.82322679
0.44300002 24085.97275179  1764.53844742
0.44400002 24175.80910236  1775.10886746
0.44500002 24265.16802334  1623.33981769
0.44600002 24354.61662635  2449.46568328
0.44700002 24444.87484302  1971.23480076
0.44800002 24533.93686668  1817.59679891
0.44900002 24623.23494543  1994.48212510
0.45000002 24712.43515448  1838.97594917
0.45100002 24800.12772408  2017.73848726
0.45200002 24887.80330015  2029.35157727
0.45300002 24974.35401093  1870.82894762
0.45400002 25060.40464475  2223.48450748
0.45500002 25146.01511802  3095.97752806
0.45600002 25230.00084264  1902.46830370
0.45700002 25313.41208668  2086.83779133
0.45800002 25395.25061168  2273.00201373
0.45900002 25475.84965338  2109.40045127
0.46000002 25555.70665496  1767.17719894
0.46100002 25633.34705474  1954.03013859
0.46200002 25710.18634941  2321.24428457
0.46300002 25785.41226011  1794.66477836
0.46400002 25858.45805598  1803.62753489
0.46500002 25930.96490348  2900.11925226
0.46600002 26000.66381164  2003.48124496
0.46700002 26068.68321763  1830.02164861
0.46800002 26135.48958407  2206.35813526
0.46900002 26199.59178940  1847.07130870
0.47000002 26262.05046148  2040.95534835
0.47100002 26322.56500197  2050.00145952
0.47200002 26381.12642737  2246.08921048
0.47300002 26437.33671301  1879.69472939
0.47400002 26490.79512071  2076.21616599
0.47500002 26542.56855207  1895.13948444
0.47600002 26592.65006833  2473.51546334
0.47700002 26639.13778272  2101.02889651
