# SAXS profile: number of points = 501, q_min = 0, q_max = 0.5, delta_q = 0.001
#    q    intensity    error
0.00000000 1682732.95097188 302.89193117
0.00100000 1682651.14982688 858.15210679
0.00200000 1682405.68669447 908.49909958
0.00300000 1681996.78311527 1614.71696931
0.00400000 1681424.28775689 1387.17509011
0.00500000 1680688.76078257 2117.66792241
0.00600000 1679790.06591682 2116.53556922
0.00700000 1678728.77142583 3223.15937509
0.00800000 1677504.68762521 2944.02085108
0.00900000 1676119.06951630 2765.59658292
0.01000000 1674571.27019697 3868.25980118
0.01100000 1672862.60755595 3613.38338965
0.01200000 1670992.93185897 5213.49817598
0.01300000 1668963.47479704 4205.78814198
0.01400000 1666774.18993737 4500.29051233
0.01500000 1664426.52137939 5991.93574378
0.01600000 1661919.89068362 5509.26468390
0.01700000 1659256.55931331 5823.99078445
0.01800000 1656436.40547898 5192.92836485
0.01900000 1653460.15563445 7440.57103609
0.02000000 1650328.95325231 5718.39008169
0.02100000 1647044.81072740 7609.34737056
0.02200000 1643606.24539453 8505.66270635
0.02300000 1640016.57162798 6494.46591926
0.02400000 1636275.13251411 7363.23843206
0.02500000 1632384.75937611 7639.56102278
0.02600000 1628345.24326580 7254.27839055
0.02700000 1624158.68523004 6821.46679040
0.02800000 1619825.00617345 9160.11082999
0.02900000 1615346.75497974 11630.49716986
0.03000000 1610725.22850998 8987.84718821
0.03100000 1605960.73468156 9250.33425740
0.03200000 1601054.72931252 7925.22127512
0.03300000 1596011.12155683 9767.58851422
0.03400000 1590827.82999493 10857.40044068
0.03500000 1585508.13969492 10274.09321966
0.03600000 1580053.68780896 10523.15804712
0.03700000 1574465.70581887 11666.79141968
0.03800000 1568745.97495621 11012.59725385
0.03900000 1562896.60823158 12190.59410875
0.04000000 1556917.10659455 12447.55284403
0.04100000 1550811.99210124 13678.16240454
0.04200000 1544581.65640017 16936.33864815
0.04300000 1538227.35947895 12182.76125257
0.04400000 1531752.25240064 11373.26100227
0.04500000 1525157.83869472 10523.58957597
0.04600000 1518444.19234870 17128.05128592
0.04700000 1511615.52778611 13060.35876748
0.04800000 1504672.23217911 14377.14384741
0.04900000 1497617.97571995 14601.77594295
0.05000000 1490452.51681216 14822.55096993
0.05100000 1483180.42530159 16196.33099878
0.05200000 1475799.58639015 14079.12871027
0.05300000 1468316.67985593 14272.03879353
0.05400000 1460731.15402150 16871.44561573
0.05500000 1453045.73016285 12205.58470275
0.05600000 1445261.49202530 19771.17813351
0.05700000 1437383.64634440 16256.80979900
0.05800000 1429410.78461643 16445.37184489
0.05900000 1421345.84303694 14071.32450328
0.06000000 1413192.45365331 14223.78271054
0.06100000 1404951.94550188 14372.65907414
0.06200000 1396626.41626568 14517.93227570
0.06300000 1388219.34080216 15992.28755377
0.06400000 1379729.26099273 14797.59701618
0.06500000 1371162.22779846 14931.95735921
0.06600000 1362519.31777797 17801.31571967
0.06700000 1353801.95843729 16570.53674676
0.06800000 1345013.46196415 19489.24597613
0.06900000 1336156.28407484 16835.56996757
0.07000000 1327231.21214573 19789.01829978
0.07100000 1318241.37970686 24202.91286503
0.07200000 1309189.25838205 18636.30996612
0.07300000 1300077.45019025 15873.94641061
0.07400000 1290908.09358294 20331.80342676
0.07500000 1281682.97035399 24839.01712973
0.07600000 1272403.16581917 16165.88297960
0.07700000 1263074.22721043 14777.96915128
0.07800000 1253695.96433192 19313.18723625
0.07900000 1244270.60974581 20903.74722419
0.08000000 1234802.31627247 16503.13373116
0.08100000 1225292.09702554 16578.20285058
0.08200000 1215741.71163003 16649.58352206
0.08300000 1206154.32741741 21276.56333419
0.08400000 1196531.87962326 21358.09505380
0.08500000 1186876.44342991 21434.98957461
0.08600000 1177190.45341122 24579.73782128
0.08700000 1167477.41103664 18492.84305920
0.08800000 1157736.63458673 21638.09871663
0.08900000 1147973.58894028 17047.40859647
0.09000000 1138188.38877340 24858.03557853
0.09100000 1128383.43149977 20243.19971216
0.09200000 1118560.89192487 18724.71021064
0.09300000 1108725.41942316 17196.33206335
0.09400000 1098874.24219216 20356.64629332
0.09500000 1089012.89302645 17249.96503633
0.09600000 1079142.53394526 15701.52460700
0.09700000 1069267.80423234 20433.70869953
0.09800000 1059388.12718216 22024.68019967
0.09900000 1049506.47533125 15742.59787022
0.10000000 1039623.49951948 18900.35611009
0.10100000 1029741.81974222 18906.06069965
0.10200000 1019864.31479298 18908.28528564
0.10300000 1009992.18419418 17331.46669606
0.10400000 1000128.58273553 28353.64665445
0.10500000 990275.78064685 20469.00134902
0.10600001 980431.37197656 22030.29396492
0.10700001 970603.20387935 25158.03622843
0.10800001 960789.09059811 25134.24379291
0.10900001 950993.19295529 23537.08263343
0.11000001 941215.53887437 23506.85918984
0.11100001 931459.00169386 18778.21435810
0.11200001 921724.81669818 15623.23637853
0.11300001 912014.92910193 15595.45602189
0.11400001 902331.53342825 15565.21968452
0.11500001 892676.56506076 23298.85944518
0.11600001 883050.37684944 21696.54878091
0.11700001 873456.50938507 17006.19903863
0.11800001 863893.64036347 18504.60264812
0.11900001 854364.94990932 18454.28378727
0.12000001 844871.24714904 16867.85524389
0.12100001 835417.77467206 22932.21899504
0.12200001 826001.51318847 18287.67436355
0.12300001 816626.84558532 28859.59408269
0.12400001 807292.46333600 19677.75472098
0.12500001 798000.88760966 18098.66098380
0.12600001 788755.53105904 18030.95228969
0.12700001 779555.50379448 19457.70629168
0.12800001 770401.98435784 22360.91864984
0.12900001 761297.69283149 22267.95856486
0.13000001 752243.17127746 19216.05271603
0.13100001 743238.64143690 23545.80127061
0.13200001 734286.93129357 16113.92746685
0.13300001 725388.59652138 24786.52951165
0.13400001 716543.69773178 15961.01161947
0.13500001 707755.18547372 21657.30969660
0.13600001 699023.01496386 20110.89308875
0.13700001 690348.49592858 21435.32180933
0.13800001 681730.89117364 18478.31667662
0.13900001 673174.49848628 22618.66421579
0.14000001 664677.17560214 18275.29980505
0.14100001 656242.36293379 16773.55558768
0.14200001 647868.91489733 18065.82554399
0.14300001 639559.54474388 22103.17890890
0.14400001 631310.69680650 13731.00830323
0.14500001 623129.36200700 16375.84040603
0.14600001 615012.05155454 14917.11801416
0.14700001 606962.06601285 21559.29360187
0.14800001 598976.35592320 17403.25884241
0.14900001 591058.73345820 22607.99762144
0.15000001 583208.23186103 15851.60048991
0.15100001 575426.60351282 17055.64533289
0.15200001 567714.63853274 19543.57735369
0.15300001 560071.72615931 12937.65748480
0.15400001 552496.84658716 19268.32843402
0.15500001 544994.11092177 12752.86279742
0.15600001 537559.86731785 18989.30320920
0.15700001 530199.83686893 16335.45774491
0.15800001 522907.78697733 18707.02696206
0.15900001 515689.64165942 14851.86238081
0.16000001 508541.24085962 14737.52585576
0.16100001 501467.42591942 17059.92263508
0.16200001 494465.33649021 16925.54926705
0.16300001 487535.49425632 13192.71109738
0.16400001 480679.17923878 17845.21537170
0.16500001 473894.75900414 11799.98005630
0.16600001 467184.50000765 16384.16118881
0.16700001 460546.06456819 13926.91365010
0.16800001 453981.20588753 19564.32099148
0.16900001 447491.00628786 14834.32755889
0.17000001 441072.40289645 14707.55996907
0.17100001 434728.02637730 11215.98361017
0.17200001 428456.18075912 12230.28225732
0.17300001 422257.86156485 12123.02377803
0.17400001 416133.24620114 10923.49822865
0.17500001 410080.55439633 14073.96529156
0.17600001 404099.56278460 11801.72828851
0.17700001 398194.25579198 12758.14455815
0.17800001 392359.31256148 10534.84803986
0.17900001 386596.33765783 14613.34225371
0.18000001 380907.08055361 11375.79049807
0.18100001 375289.89400915 10245.41459041
0.18200001 369741.97661714 14209.18483261
0.18300001 364266.40427357 11059.12855617
0.18400001 358861.52691697 12945.93019510
0.18500001 353527.83136408 14795.14044154
0.18600001 348264.74473295 11722.59186153
0.18700001 343070.54759469 13544.42585894
0.18800001 337944.62649590 10538.80367519
0.18900001 332891.65742837 10436.15395346
0.19000001 327903.11225056 12212.75199281
0.19100001 322985.74354723 10232.18883905
0.19200001 318134.55445496 11051.99494399
0.19300001 313352.74756273 10030.42192345
0.19400001 308636.10379949 11735.88840154
0.19500001 303986.84937156 11618.37793201
0.19600001 299402.20430302 11501.53622182
0.19700001 294884.92702830 9633.89102129
0.19800001 290431.39840839 13871.00424351
0.19900001 286042.73140209 12013.79528666
0.20000001 281716.46187131 11891.25241758
0.20100001 277455.02926925 10928.95411944
0.20200001 273255.08771648 12480.92672134
0.20300001 269117.86697125 9882.00854225
0.20400001 265042.34729295 11410.07359027
0.20500001 261027.21117669 8065.74120660
0.20600001 257072.16210998 7982.09101081
0.20700001 253177.09236227 9478.95078610
0.20800001 249340.69711663 7816.83122411
0.20900001 245564.97679442 8508.82684815
0.21000001 241844.18130020 7654.36869999
0.21100001 238182.07462473 7574.19033112
0.21200001 234575.57061008 8244.15881883
0.21300001 231024.70237680 7415.89329689
0.21400001 227529.59448304 11006.74465348
0.21500001 224089.85619492 7260.51168397
0.21600001 220702.66606835 7902.25933218
0.21700001 217369.23026434 8529.56899885
0.21800001 214088.40286082 7032.80436649
0.21900001 210858.49122651 9741.66275527
0.22000001 207679.52190876 8949.94941983
0.22100001 204552.54742160 9536.24021170
0.22200001 201474.78563814 8761.13146774
0.22300001 198445.76483850 10001.66702079
0.22400001 195464.48721943 7256.61943116
0.22500001 192533.25410905 6526.87762294
0.22600001 189647.13876205 8394.73099427
0.22700001 186808.63412050 7666.62670685
0.22800001 184014.84708927 6320.91029643
0.22900001 181265.98774477 6879.04456023
0.23000001 178561.99265192 6187.17333799
0.23100001 175902.75301339 6733.55770380
0.23200001 173284.83094564 7267.56615357
0.23300001 170710.38415241 7789.51519728
0.23400001 168176.68232633 7113.87399886
0.23500001 165683.89244493 7038.25208394
0.23600001 163231.96263888 6383.18620090
0.23700001 160819.60878782 6315.38633580
0.23800001 158446.25222015 9088.47745722
0.23900001 156111.41270245 6182.01223542
0.24000001 153813.73141726 8340.54998061
0.24100001 151554.41020595 6051.56788577
0.24200001 149331.39984210 5443.12978172
0.24300001 147143.84666360 6462.55805116
0.24400001 144991.42448052 6926.96563223
0.24500001 142873.35273047 7380.83775120
0.24600001 140789.41367227 8867.62163963
0.24700001 138739.83218072 5677.23420140
0.24800001 136722.55849623 6127.90536169
0.24900001 134736.34762099 5557.87460229
0.25000001 132783.08997493 7998.85371850
0.25100001 130860.36935479 6430.47885431
0.25200001 128969.87917512 6362.72929012
0.25300001 127107.52704712 7264.19551442
0.25400001 125275.84053930 7187.70169100
0.25500001 123471.36999881 7111.95124841
0.25600001 121696.82357255 4691.41277068
0.25700001 119949.16473754 6498.84605296
0.25800001 118228.69938931 5052.50370746
0.25900001 116536.18968483 5908.38509657
0.26000001 114868.85852731 7645.09724102
0.26100001 113227.18379253 6674.74280039
0.26200001 111611.93115852 4403.09089254
0.26300001 110020.14086206 4356.79778429
0.26400001 108453.52950891 5173.23360236
0.26500001 106910.89315434 4692.31932258
0.26600001 105391.27712624 7175.56544268
0.26700001 103894.95233060 5011.89273759
0.26800001 102421.42989805 5372.51635953
0.26900001 100969.27189445 6542.80912838
0.27000001 99539.50516836  4450.90918423
0.27100001 98130.72678602  5605.22737927
0.27200001 96743.51527395  4753.97656554
0.27300001 95376.63940613  5095.97408463
0.27400001 94028.54470127  4266.54541773
0.27500001 92702.20512637  3837.87147386
0.27600001 91393.05377228  3797.38156395
0.27700001 90105.03231405  4133.11802785
0.27800001 88834.43371271  4833.03759487
0.27900001 87582.68328390  4046.32015922
0.28000001 86348.44871535  4367.50474273
0.28100001 85132.23581471  3601.09374540
0.28200001 83933.87271406  4631.89098495
0.28300001 82752.32331416  4230.29896804
0.28400001 81586.86501141  4534.19023762
0.28500001 80438.55942414  3795.89579889
0.28600001 79306.24178961  5121.20080596
0.28700001 78190.43519580  3715.60965637
0.28800001 77088.67318314  5012.69121100
0.28900001 76004.31698642  4298.04432902
0.29000001 74934.06140000  3925.04632192
0.29100001 73879.24066827  5177.45743111
0.29200001 72838.82573373  3521.39319678
0.29300001 71813.12854813  3800.35094266
0.29400001 70800.83259618  4386.11178696
0.29500001 69803.91555502  3409.22339709
0.29600001 68819.56010967  3679.09385762
0.29700001 67849.02509826  3032.85156546
0.29800001 66892.47991739  3300.14065295
0.29900001 65949.33813821  3264.49239238
0.30000001 65018.11369051  3229.12476930
0.30100001 64101.01999083  4355.66451457
0.30200001 63195.54915874  4595.58055238
0.30300001 62303.39058227  3409.24169406
0.30400001 61423.33421040  3091.12944048
0.30500001 60556.11060178  5003.14609478
0.30600001 59699.53822463  3024.08025194
0.30700001 58855.89923026  3262.97120781
0.30800001 58023.85503783  4034.10871249
0.30900001 57203.64520392  3457.96051629
0.31000001 56395.08293441  2630.83074345
0.31100001 55597.20938483  3122.33942688
0.31200001 54811.68941562  3088.09072788
0.31300001 54036.54894985  4326.70667927
0.31400001 53273.66753646  2517.18091028
0.31500001 52520.47714480  3236.31195489
0.31600002 51779.57846676  2954.54288720
0.31700002 51048.62455373  3896.03121041
0.31800002 50328.13986813  2408.20160671
0.31900002 49618.95643170  3334.39403009
0.32000002 48920.58059796  2591.07867406
0.32100002 48232.03178660  3261.45014384
0.32200002 47554.91861766  2764.84309935
0.32300002 46886.60783557  2506.55817358
0.32400002 46229.78378449  2253.70206621
0.32500002 45582.50739207  2228.98471702
0.32600002 44945.57121222  2425.03840959
0.32700002 44318.96323640  2834.64102283
0.32800002 43703.18129720  2803.77772889
0.32900002 43095.36869386  2133.22085136
0.33000002 42498.76877113  2954.08955717
0.33100002 41911.02378272  2713.31980818
0.33200002 41334.53605442  2477.59220843
0.33300002 40767.01049952  2450.91278729
0.33400002 40209.64332712  3030.80200931
0.33500002 39661.91993762  3198.33737523
0.33600002 39123.01943025  1977.66872585
0.33700002 38593.79290943  2543.71701112
0.33800002 38075.01799523  2323.33770810
0.33900002 37564.70631173  2298.96013515
0.34000002 37064.08602316  2085.41089885
0.34100002 36572.93466366  2251.42996452
0.34200002 36091.75873811  2228.30529002
0.34300002 35619.06252693  2573.12119881
0.34400002 35156.45309726  2365.15049413
0.34500002 34702.52081243  1981.16700701
0.34600002 34258.64771220  2674.74404681
0.34700002 33822.54594761  1765.53698208
0.34800002 33396.50141989  1923.13762535
0.34900002 32979.00358340  1904.53754714
0.35000002 32570.92116176  2572.28862058
0.35100002 32172.45765693  2038.44701369
0.35200002 31781.37723543  1851.10640475
0.35300002 31400.51630913  1834.10424449
0.35400002 31027.64761465  2147.88900786
0.35500002 30664.18857939  1801.21452247
0.35600002 30309.09906123  2434.57849741
0.35700002 29962.50684233  2091.68270174
0.35800002 29625.00441357  3190.61312647
0.35900002 29296.57635575  1582.01519814
0.36000002 28976.34179982  1882.88277934
0.36100002 28664.11741694  2334.69247420
0.36200002 28361.86931254  1698.73424294
0.36300002 28066.51014200  2298.64728951
0.36400002 27780.13292667  1520.96234978
0.36500002 27501.29451094  2566.69593828
0.36600002 27231.69509794  2098.74684061
0.36700002 26969.54700170  2084.20669102
0.36800002 26716.57530848  1922.39126738
0.36900002 26471.22447678  1469.15302805
0.37000002 26233.30165046  1751.85996720
0.37100002 26003.29490033  1741.18070901
0.37200002 25781.88719580  1730.99598832
0.37300002 25568.04342011  1434.36730381
0.37400002 25361.75500136  2139.89817961
0.37500002 25163.27459713  1561.12962996
0.37600002 24972.55048504  2400.73625461
0.37700002 24789.19633821  2108.32124844
0.37800002 24613.19236004  2098.89007793
0.37900002 24445.40459771  1672.06575369
0.38000002 24284.19437378  1665.41012905
0.38100002 24129.48483262  1935.66736497
0.38200002 23983.17452644  1377.83344182
0.38300002 23843.17492573  2060.05041118
0.38400002 23710.39752527  1780.05817854
0.38500002 23583.98521253  1638.61537019
0.38600002 23465.38093082  1770.81505584
0.38700002 23352.51666693  2174.58645505
0.38800002 23246.30951720  1492.06444705
0.38900002 23146.74348716  1760.30992559
0.39000002 23054.06616343  1757.75735791
0.39100002 22966.94641140  1620.54781556
0.39200002 22886.81887215  1619.01364372
0.39300002 22812.00928847  1887.46573795
0.39400002 22744.60400663  1482.37963636
0.39500002 22681.72433398  1616.75338712
0.39600002 22624.99313828  1751.51392678
0.39700002 22573.41719927  1347.63307064
0.39800002 22528.65697084  1483.17420195
0.39900002 22488.27205338  1484.22602584
0.40000002 22453.73554107  1350.59225678
0.40100002 22424.11682818  1622.60917056
0.40200002 22400.17758840  2031.13619906
0.40300002 22380.96335643  1898.80102112
0.40400002 22366.76904794  2038.17192606
0.40500002 22356.89457748  1361.53494428
0.40600002 22352.76979166  1501.10032648
0.40700002 22352.58996605  2188.76571318
0.40800002 22356.74263278  1508.74484806
0.40900002 22365.03030038  1650.53931437
0.41000002 22378.30962166  1931.47199496
0.41100002 22395.30577700  1384.02996260
0.41200002 22415.40662170  1944.08830842
0.41300002 22440.98307679  1672.30213812
0.41400002 22469.37405390  1678.46232136
0.41500002 22501.34705962  2106.12618458
0.41600002 22536.09892810  1832.52297117
0.41700002 22575.50106030  1698.58078026
0.41800002 22618.76542005  1563.74842141
0.41900002 22663.09225487  1570.55236768
0.42000002 22711.26105361  1864.48106454
0.42100002 22763.05288893  1873.17171099
0.42200002 22817.08132004  2171.61581754
0.42300002 22873.53699901  1891.18412869
0.42400002 22932.47186264  1900.52869567
0.42500002 22994.48548945  1616.28246164
0.42600002 23057.37364934  1919.87230789
0.42700002 23123.74858085  2078.36262093
0.42800002 23191.37589593  2089.31115347
0.42900002 23261.79860669  1800.46329748
0.43000002 23334.00944443  2111.96129490
0.43100002 23406.32445260  1668.40288604
0.43200002 23481.58206209  2287.69324081
0.43300002 23557.54704160  2300.39457762
0.43400002 23635.43115950  2159.09673874
0.43500002 23713.91642682  1861.06824937
0.43600002 23794.28460917  2027.63005906
0.43700002 23874.90028243  1882.29722747
0.43800002 23955.92325291  2050.74690725
0.43900002 24038.85256848  2062.53364812
0.44000002 24121.61145233  2074.33807515
0.44100002 24205.38494025  2086.26222687
0.44200002 24289.45930990  2421.05197145
0.44300002 24373.88356342  2272.62101115
0.44400002 24458.41940475  1959.11948716
0.44500002 24542.50820390  2627.03020264
0.44600002 24626.61381643  1651.21453464
0.44700002 24711.68598268  1660.62537674
0.44800002 24795.38658385  2838.94792146
0.44900002 24879.46231889  1847.30016472
0.45000002 24963.39379193  2195.40577108
0.45100002 25045.88821662  1867.92243172
0.45200002 25128.29486357  1878.21448859
0.45300002 25209.58750168  1888.45028925
0.45400002 25290.45440033  2071.28831355
0.45500002 25370.81467220  2255.97294757
0.45600002 25449.59367836  2442.39762107
0.45700002 25527.72626962  1753.75487784
0.45800002 25604.39149395  1762.86243791
0.45900002 25679.75259684  2657.85451974
0.46000002 25754.41237909  2671.37655063
0.46100002 25826.81871256  2326.73820809
0.46200002 25898.49182821  2158.38041126
0.46300002 25968.54005133  2711.11570985
0.46400002 26036.42381791  2360.85284158
0.46500002 26103.80862853  2189.58757154
0.46600002 26168.33411823  2566.32864861
0.46700002 26231.16956936  2209.71382925
0.46800002 26292.89834649  2774.55822952
0.46900002 26351.83689510  2043.58504807
0.47000002 26409.17949718  1865.80861991
0.47100002 26464.58307607  1873.69257059
0.47200002 26518.05045207  1881.45576875
0.47300002 26569.25340341  2077.98140717
0.47400002 26617.65746816  2086.15900295
0.47500002 26664.32548945  1903.83293018
0.47600002 26709.32531423  2102.15754849
0.47700002 26750.86774159  2685.25223118
