# SAXS profile: number of points = 501, q_min = 0, q_max = 0.5, delta_q = 0.001
#    q    intensity    error
0.00000000 1664650.74656090 324.60689558
0.00100000 1664569.47161860 599.24502401
0.00200000 1664325.58699824 898.73584544
0.00300000 1663919.30905711 1697.19775570
0.00400000 1663350.50795027 1372.26422120
0.00500000 1662619.69228456 1645.99356051
0.00600000 1661726.80021798 1919.29453239
0.00700000 1660672.32428882 2192.08755916
0.00800000 1659456.13032020 2240.26587052
0.00900000 1658079.42607850 2735.83116998
0.01000000 1656541.62079041 2733.29379233
0.01100000 1654843.93773331 3872.33498289
0.01200000 1652986.33088159 4190.32053250
0.01300000 1650969.98616990 4507.14826103
0.01400000 1648794.79753033 5193.70384246
0.01500000 1646462.30422750 4741.81164732
0.01600000 1643971.85793052 4611.34126764
0.01700000 1641325.73561448 4431.57968495
0.01800000 1638523.90275437 6537.71066617
0.01900000 1635566.85602562 8341.39134212
0.02000000 1632455.98068768 5656.46022896
0.02100000 1629193.14970172 6451.60516532
0.02200000 1625776.87368290 7291.60960974
0.02300000 1622210.62814054 9343.93364341
0.02400000 1618493.49793672 6069.35089401
0.02500000 1614628.38762432 8186.16629912
0.02600000 1610615.22639895 7827.59035832
0.02700000 1606455.98063617 8771.25005601
0.02800000 1602150.64412105 8363.22674585
0.02900000 1597701.68349765 10784.48685877
0.03000000 1593110.46703341 8148.76041344
0.03100000 1588377.15572255 9911.47390777
0.03200000 1583503.37733381 8622.17628670
0.03300000 1578492.92214778 11270.43998371
0.03400000 1573343.84966296 8260.05559185
0.03500000 1568059.36034901 10161.02512428
0.03600000 1562640.76497384 13876.25063424
0.03700000 1557089.82154573 11538.03611126
0.03800000 1551407.97676753 9075.73708411
0.03900000 1545597.38905815 12983.01866933
0.04000000 1539657.64149194 9468.89493395
0.04100000 1533593.17965499 14492.45621970
0.04200000 1527404.38040755 10836.93458175
0.04300000 1521092.60429862 11043.13281981
0.04400000 1514660.87994146 12268.75369731
0.04500000 1508110.59213307 11446.55992615
0.04600000 1501442.05667503 19053.30058493
0.04700000 1494659.38188977 12913.85766012
0.04800000 1487763.05757122 10935.05898194
0.04900000 1480756.50290681 14437.37657537
0.05000000 1473639.46534901 19164.68213929
0.05100000 1466416.71369748 11438.05089967
0.05200000 1459086.16811155 12759.70913475
0.05300000 1451654.32399329 11758.40057250
0.05400000 1444120.72941796 19062.39451727
0.05500000 1436487.83004230 12066.49833525
0.05600000 1428756.99808006 13437.46019399
0.05700000 1420933.37568040 13598.33304001
0.05800000 1413015.64072095 12505.18900428
0.05900000 1405006.30203417 13909.56303980
0.06000000 1396909.53073991 17894.41192478
0.06100000 1388726.39465127 18081.21850332
0.06200000 1380458.82753757 14349.87018302
0.06300000 1372110.60697625 14489.48868713
0.06400000 1363680.07736177 14625.46951369
0.06500000 1355173.12055411 16099.45742528
0.06600000 1346591.17048422 17593.21446554
0.06700000 1337935.34735404 24564.49412701
0.06800000 1329209.17401872 22011.70495210
0.06900000 1320414.94898850 18023.66489754
0.07000000 1311553.38713876 22348.87076341
0.07100000 1302627.96989008 14068.38273374
0.07200000 1293640.74831121 15581.90354337
0.07300000 1284594.27772759 14258.99715089
0.07400000 1275491.24994333 14349.27723433
0.07500000 1266332.77922316 20210.67210373
0.07600000 1257120.61971888 21779.61575767
0.07700000 1247859.42876698 23359.92960183
0.07800000 1238549.86976978 19079.86163858
0.07900000 1229193.53776742 14750.32314505
0.08000000 1219794.93949943 14820.50921016
0.08100000 1210354.76035977 22331.04637637
0.08200000 1200875.02762442 23921.43167280
0.08300000 1191359.03074012 16512.23694101
0.08400000 1181808.40986178 19588.47531292
0.08500000 1172225.29214808 22682.56046790
0.08600000 1162612.04037156 16689.29662312
0.08700000 1152972.04156179 16741.15482960
0.08800000 1143305.16319091 18315.74957450
0.08900000 1133616.36753179 21425.35035269
0.09000000 1123905.81030205 19943.70954068
0.09100000 1114175.78516963 16913.18921348
0.09200000 1104428.53903731 23110.16826523
0.09300000 1094669.15197941 15434.83576823
0.09400000 1084894.31220481 21643.64254568
0.09500000 1075109.54155563 17029.73593868
0.09600000 1065316.22991604 17050.38706131
0.09700000 1055518.79998191 18619.35250703
0.09800000 1045716.66941920 20187.56125231
0.09900000 1035913.37283326 17092.57145548
0.10000000 1026108.62309250 24872.87419346
0.10100000 1016305.95707768 15549.48187461
0.10200000 1006507.49598596 26435.92062552
0.10300000 996714.59190511 17103.62320166
0.10400000 986930.60882968 17098.57360238
0.10500000 977157.89695968 15536.81129266
0.10600001 967393.53625229 21737.33378241
0.10700001 957645.50573814 21719.40109221
0.10800001 947912.08527759 15498.36332367
0.10900001 938197.01569211 18576.30178501
0.11000001 928500.39565429 17005.48554685
0.11100001 918825.17864031 18523.51647335
0.11200001 909172.43507379 18492.56819998
0.11300001 899544.01648600 24611.52544979
0.11400001 889942.49230835 27632.71568724
0.11500001 880369.36096679 21445.79864299
0.11600001 870825.26585066 21396.17778953
0.11700001 861313.61852140 21343.35247212
0.11800001 851833.08908589 21287.30989885
0.11900001 842386.95711884 18195.55913081
0.12000001 832975.78162389 19654.06449322
0.12100001 823604.65205303 18086.35901110
0.12200001 814271.38664394 18027.96934962
0.12300001 804979.09696255 20961.65667250
0.12400001 795727.64139807 16411.88337712
0.12500001 786518.68996184 16351.72433481
0.12600001 777356.44826072 16289.50514092
0.12700001 768239.03156561 22125.28515177
0.12800001 759168.49270298 17627.89323135
0.12900001 750147.19561548 14627.87100394
0.13000001 741175.53476419 16020.50993905
0.13100001 732253.85699466 17398.35246231
0.13200001 723384.88217024 18760.98780348
0.13300001 714569.26468099 21544.26434579
0.13400001 705807.11457314 17151.11369273
0.13500001 697101.18536662 15642.95133716
0.13600001 688451.46894712 15562.44618933
0.13700001 679859.48445974 23924.25638624
0.13800001 671324.22814706 16796.53298029
0.13900001 662850.03712747 16703.82172333
0.14000001 654434.85381880 24914.33605986
0.14100001 646082.02744475 16513.85740033
0.14200001 637790.34392589 13680.60352246
0.14300001 629562.62290745 14958.40862583
0.14400001 621395.40062935 17569.95578157
0.14500001 613295.45402329 18803.63950736
0.14600001 605259.44471967 16015.16566279
0.14700001 597290.17795058 14585.82683366
0.14800001 589385.07436027 22393.68695682
0.14900001 581548.21398244 17010.28606155
0.15000001 573778.34226803 14295.68807212
0.15100001 566076.54246725 15487.85493270
0.15200001 558444.37719038 12816.29906128
0.15300001 550881.27000856 13997.89373146
0.15400001 543385.83985208 13897.09351003
0.15500001 535962.08478421 20066.42140131
0.15600001 528606.85922543 13693.56133450
0.15700001 521325.28920898 12355.40993739
0.15800001 514111.62600650 18392.34428848
0.15900001 506971.72372349 15817.51852677
0.16000001 499900.84948197 12072.60608485
0.16100001 492904.44537506 11977.57858801
0.16200001 485979.57341587 11882.20113093
0.16300001 479126.43985329 14143.81317217
0.16400001 472346.48107682 15197.74874613
0.16500001 465638.17993401 17391.58684162
0.16600001 459003.43741959 11498.03665022
0.16700001 452440.54398804 13681.80269618
0.16800001 445950.82566860 14696.31015382
0.16900001 439535.18208108 13449.77720675
0.17000001 433190.80956179 13333.61374792
0.17100001 426920.14167817 18724.71829821
0.17200001 420722.00782786 12009.51028057
0.17300001 414596.56487920 12985.16502523
0.17400001 408544.74235099 17158.87998909
0.17500001 402564.33879643 14878.77866460
0.17600001 396655.21012308 16849.91412183
0.17700001 390821.31666103 13565.40854201
0.17800001 385057.33547005 12406.54793483
0.17900001 379365.15319003 15364.28942991
0.18000001 373745.89377598 11161.92164485
0.18100001 368198.31542238 11056.99593443
0.18200001 362719.93440291 10952.32893666
0.18300001 357312.97471870 11834.20628172
0.18400001 351976.62840155 15627.76303930
0.18500001 346710.73664301 9673.23000932
0.18600001 341515.06476077 13411.29722675
0.18700001 336387.88358016 11383.36651816
0.18800001 331328.56859671 15029.06458161
0.18900001 326341.50323126 12090.95326599
0.19000001 321418.48496363 10129.50403224
0.19100001 316566.19593795 9117.10687380
0.19200001 311779.65510426 10831.22573011
0.19300001 307062.02518836 15190.35910385
0.19400001 302408.78904855 13268.18624648
0.19500001 297822.51996457 9631.58075080
0.19600001 293300.54465214 9533.73465445
0.19700001 288845.32729823 10294.44795140
0.19800001 284453.31652559 9340.02508952
0.19900001 280125.63620370 11765.27727658
0.20000001 275859.88195231 13307.48133431
0.20100001 271658.47739804 9877.50270503
0.20200001 267518.03378459 8960.51696512
0.20300001 263439.83427369 10479.63710272
0.20400001 259422.99534030 7977.25748377
0.20500001 255465.68431672 9472.66802221
0.20600001 251567.99938697 9373.42410022
0.20700001 247729.86398723 9275.00654610
0.20800001 243949.60026963 8412.60236296
0.20900001 240229.85551615 9080.68896777
0.21000001 236564.35926651 7487.26232473
0.21100001 232957.06354401 7408.03497090
0.21200001 229404.88704947 8062.43513650
0.21300001 225907.66174023 7976.79991315
0.21400001 222465.68872959 8609.42256086
0.21500001 219078.60065708 7807.96169656
0.21600001 215743.48624751 9129.18605218
0.21700001 212461.44000579 9031.73624166
0.21800001 209231.75509563 8247.91617584
0.21900001 206052.50728839 6799.73306202
0.22000001 202923.41029190 9417.67591694
0.22100001 199845.88354565 7320.35506041
0.22200001 196816.96912377 8558.58630704
0.22300001 193836.33378037 7815.48134758
0.22400001 190903.13604343 7731.57737536
0.22500001 188019.06497941 8286.00058547
0.22600001 185179.77237930 8827.52016676
0.22700001 182387.42468944 12475.30043870
0.22800001 179639.68042979 6787.68564603
0.22900001 176935.80527260 7935.57124176
0.23000001 174276.64005398 9661.89738152
0.23100001 171661.38368508 5973.81643476
0.23200001 169087.18905762 7091.51704446
0.23300001 166555.86726345 8184.55570441
0.23400001 164064.86054958 6361.61526868
0.23500001 161614.12911156 8581.71066171
0.23600001 159203.80338329 7357.60412135
0.23700001 156832.74395368 7278.60799115
0.23800001 154499.73911688 6092.69750025
0.23900001 152204.96690045 6027.31697435
0.24000001 149946.82965642 5962.63596332
0.24100001 147726.69594329 7507.47104295
0.24200001 145542.32044297 5835.51961419
0.24300001 143392.71757767 5772.99108276
0.24400001 141278.02457890 6230.36117865
0.24500001 139197.10417795 7190.92274200
0.24600001 137149.90253500 6097.68495516
0.24700001 135136.40137688 5529.78180593
0.24800001 133154.79786259 6465.33151607
0.24900001 131203.93190917 4920.14767935
0.25000001 129285.54667869 5841.12127528
0.25100001 127396.90526464 5297.16357151
0.25200001 125540.28271181 5717.10474517
0.25300001 123711.38095704 5184.74422120
0.25400001 121912.71239371 5595.79376361
0.25500001 120140.68317123 5536.08294245
0.25600001 118398.21054944 5477.10147915
0.25700001 116681.98292930 5418.71154361
0.25800001 114992.81447175 4914.21815896
0.25900001 113331.00468791 5303.89127035
0.26000001 111694.10889509 4372.82457015
0.26100001 110082.08363209 7354.58435545
0.26200001 108496.44563788 4708.20348123
0.26300001 106933.68720488 4234.57421368
0.26400001 105395.80419662 6284.22512258
0.26500001 103881.42765760 4973.84299160
0.26600001 102389.67407684 4510.77730490
0.26700001 100920.72267054 4462.71456767
0.26800001 99474.37718084  4415.17044010
0.26900001 98048.90638462  3970.98089649
0.27000001 96645.43884115  5107.22845725
0.27100001 95262.53833845  4664.05409777
0.27200001 93900.90348908  5383.33905179
0.27300001 92559.25940381  4565.02288983
0.27400001 91236.02206843  5645.22913264
0.27500001 89934.26264429  5957.24583949
0.27600001 88649.26266899  3683.37703822
0.27700001 87384.90596911  5101.53105191
0.27800001 86137.87423989  3604.87020755
0.27900001 84909.24083895  4279.42594082
0.28000001 83697.91718716  3527.86737641
0.28100001 82504.19016437  4187.91289095
0.28200001 81327.97135176  4142.84705674
0.28300001 80168.20090741  4098.19862436
0.28400001 79024.39354385  3716.12228229
0.28500001 77897.38052126  5012.69667380
0.28600001 76785.96730978  3636.19965406
0.28700001 75690.93176825  4904.77261074
0.28800001 74609.68417462  3557.76295827
0.28900001 73545.30174206  3519.14285493
0.29000001 72494.96889767  4746.60831325
0.29100001 71459.72749413  3442.92983364
0.29200001 70438.58188261  3714.93098434
0.29300001 69431.93770865  4592.92289684
0.29400001 68438.58367320  3331.24821798
0.29500001 67460.25351243  3294.75893751
0.29600001 66494.13982090  4147.23969695
0.29700001 65541.93758212  3222.69722347
0.29800001 64603.12684234  3766.68548885
0.29900001 63677.66940124  2865.49525871
0.30000001 62763.96909169  2833.79333864
0.30100001 61864.06560032  3082.68653480
0.30200001 60975.60308761  4157.01193729
0.30300001 60100.28653932  3288.68783512
0.30400001 59236.88807218  3523.11408488
0.30500001 58386.11694301  2947.91518401
0.30600001 57545.81840997  3709.97908853
0.30700001 56718.31497224  3406.50215851
0.30800001 55902.12156985  3109.27614892
0.30900001 55097.66858941  2562.04171071
0.31000001 54304.50454937  2533.30525717
0.31100001 53522.21440491  3757.25962911
0.31200001 52751.89546204  2724.37177012
0.31300001 51991.92140613  2448.81961417
0.31400001 51244.12261441  3147.67038062
0.31500001 50505.74893636  3112.16439681
0.31600002 49779.54337717  2603.71913962
0.31700002 49063.12277011  2574.34217364
0.31800002 48357.08329810  2313.88654537
0.31900002 47662.33587783  2516.57145351
0.32000002 46978.14560133  4071.59607206
0.32100002 46303.72623470  2236.47008303
0.32200002 45640.64544753  3095.80512729
0.32300002 44986.17673764  2842.22678087
0.32400002 44343.03558399  3242.58463062
0.32500002 43709.58434010  2137.39877544
0.32600002 43086.42145029  2747.40579387
0.32700002 42473.24924925  2507.62075442
0.32800002 41870.89872234  2479.59473975
0.32900002 41276.46601082  3473.41477929
0.33000002 40693.29367832  2424.50655216
0.33100002 40118.85222671  2797.08650970
0.33200002 39555.53343384  2173.37888744
0.33300002 39001.10612068  2540.14216193
0.33400002 38456.95268560  3091.93914234
0.33500002 37922.15913283  2293.53229297
0.33600002 37396.26497145  2835.57192574
0.33700002 36880.07334951  2056.80178811
0.33800002 36374.19386023  2034.59062992
0.33900002 35876.81258263  2744.57629255
0.34000002 35388.94864695  1810.14480902
0.34100002 34910.53339680  1790.91044807
0.34200002 34442.25620545  1949.25958226
0.34300002 33982.39811802  2279.53937371
0.34400002 33532.59193184  3123.56108638
0.34500002 33091.36765289  1889.18626878
0.34600002 32660.10589380  1699.95859228
0.34700002 32236.78458594  2524.14035262
0.34800002 31823.52570356  2332.34630928
0.34900002 31418.64534795  1979.37475067
0.35000002 31023.30067020  2450.06528647
0.35100002 30637.59190064  1779.43142187
0.35200002 30259.17029523  1922.66777162
0.35300002 29891.02210445  2063.37735360
0.35400002 29530.96569072  2358.78599627
0.35500002 29180.40315505  1869.88032274
0.35600002 28837.89957139  1698.69655471
0.35700002 28504.10098270  1989.87138385
0.35800002 28179.35203604  1517.45817902
0.35900002 27863.76257287  1956.03622526
0.36000002 27556.40278743  1790.61513794
0.36100002 27257.00946689  1776.06682099
0.36200002 26967.61378338  1762.06396807
0.36300002 26685.12553417  2622.61426172
0.36400002 26411.73169527  1879.85509245
0.36500002 26145.83394790  1866.02825725
0.36600002 25889.20438595  2280.32123033
0.36700002 25640.07862063  1839.93212897
0.36800002 25400.11536920  1968.25503319
0.36900002 25167.88796352  1955.54498740
0.37000002 24943.14274442  1943.32034327
0.37100002 24726.33598613  1517.70257472
0.37200002 24518.06578699  1646.14301492
0.37300002 24317.49074136  1500.63242474
0.37400002 24124.44968700  1357.00035918
0.37500002 23939.33813281  1755.23235504
0.37600002 23761.98024751  1612.48805598
0.37700002 23591.97382789  1738.96447323
0.37800002 23429.43377031  1731.55238482
0.37900002 23275.20254628  1857.36125118
0.38000002 23127.49489819  1321.73639605
0.38100002 22986.32947568  1843.96343789
0.38200002 22853.63427707  1969.41202712
0.38300002 22727.25255967  1570.90777134
0.38400002 22608.16059682  1436.18346995
0.38500002 22495.50985912  1693.23710731
0.38600002 22390.66002726  2079.64460185
0.38700002 22291.63141366  1686.58491266
0.38800002 22199.35077378  1424.86539692
0.38900002 22113.69863136  1940.47714683
0.39000002 22034.89458089  1292.34662840
0.39100002 21961.77836769  2066.16420672
0.39200002 21895.61653626  1548.89598716
0.39300002 21834.86377366  1419.48456118
0.39400002 21781.54048114  1677.72323505
0.39500002 21732.91485526  1549.12224428
0.39600002 21690.31539178  1291.65834278
0.39700002 21652.92025480  1421.94734050
0.39800002 21622.37781132  1423.50931065
0.39900002 21596.28443217  1554.93255279
0.40000002 21576.02560637  1557.35760205
0.40100002 21560.83869587  1560.14236195
0.40200002 21551.26454241  1563.32880398
0.40300002 21546.40634675  1436.28351513
0.40400002 21546.67286797  1963.44065812
0.40500002 21551.20237034  1968.70242981
0.40600002 21561.65359180  1447.97291556
0.40700002 21575.87787195  1452.48816716
0.40800002 21594.57377051  1324.82716359
0.40900002 21617.43809557  1728.31425763
0.41000002 21645.21698651  1467.87045949
0.41100002 21676.75998045  1339.62383027
0.41200002 21711.50834130  1748.53640712
0.41300002 21751.60844466  1756.00743294
0.41400002 21794.63452331  1628.05927603
0.41500002 21841.29629364  1635.47634396
0.41600002 21890.64097311  1369.25965775
0.41700002 21944.69078824  1651.11861314
0.41800002 22002.52486373  1659.43050385
0.41900002 22061.50704910  1667.85001194
0.42000002 22124.30595509  1956.00998217
0.42100002 22190.62362913  1826.06650497
0.42200002 22259.44521031  1553.59805207
0.42300002 22330.43428756  1704.25882558
0.42400002 22403.99093690  1571.07993890
0.42500002 22480.59560572  2298.41620364
0.42600002 22558.05794682  1444.84367996
0.42700002 22639.01911281  2034.79513428
0.42800002 22721.20056903  1900.74212367
0.42900002 22806.15559497  2353.59536893
0.43000002 22892.79711944  2516.03298664
0.43100002 22979.61769329  1637.98722680
0.43200002 23069.31122510  1798.02220209
0.43300002 23159.71576349  1507.69756765
0.43400002 23251.99467982  2275.78908713
0.43500002 23344.73442596  2595.46769647
0.43600002 23439.45769224  2151.03913435
0.43700002 23534.30821401  1700.82453523
0.43800002 23629.60786294  2334.01462727
0.43900002 23726.70214494  1565.96241578
0.44000002 23823.63699650  2206.30712680
0.44100002 23921.47535347  1585.99389110
0.44200002 24019.56410701  1596.10011055
0.44300002 24118.04406260  1766.88799176
0.44400002 24216.43106739  1939.73622042
0.44500002 24314.39080263  1789.29610396
0.44600002 24412.33210761  2127.90102900
0.44700002 24511.01260627  2635.42420032
0.44800002 24608.42851597  2154.59106083
0.44900002 24706.07818018  2334.72449867
0.45000002 24803.50507247  2013.54863721
0.45100002 24899.41895075  2363.45295881
0.45200002 24995.22531217  2038.11076855
0.45300002 25089.82770812  2562.92602185
0.45400002 25183.81309799  1890.67485794
0.45500002 25277.24685776  1901.86014371
0.45600002 25369.09926274  2260.76738794
0.45700002 25460.25011309  2798.59082507
0.45800002 25549.69090099  2990.46371324
0.45900002 25637.83034647  2122.81245330
0.46000002 25725.13793101  2312.56138391
0.46100002 25810.07649971  2146.36606344
0.46200002 25894.24107087  1798.35512760
0.46300002 25976.61905821  1988.77004935
0.46400002 26056.75941124  1999.20496058
0.46500002 26136.23317227  2192.30734240
0.46600002 26212.75271984  2754.30512258
0.46700002 26287.52207327  2214.46096441
0.46800002 26360.97703047  2039.94430419
0.46900002 26431.70954509  2236.12273350
0.47000002 26500.51037208  2246.71337583
0.47100002 26567.39392445  2633.36021060
0.47200002 26632.13071892  2267.45971688
0.47300002 26694.48342175  2846.96679187
0.47400002 26753.93985206  2859.32745721
0.47500002 26811.57854553  1914.34679889
0.47600002 26867.40700459  2306.83567475
0.47700002 26919.55179466  2123.14515068
