# SAXS profile: number of points = 501, q_min = 0, q_max = 0.5, delta_q = 0.001
#    q    intensity    error
0.00000000 1664650.74656091 349.57665678
0.00100000 1664569.46666182 649.18210742
0.00200000 1664325.56104683 898.73583142
0.00300000 1663919.25692957 1397.69222561
0.00400000 1663350.40784846 2245.52313592
0.00500000 1662619.54696561 1795.62918180
0.00600000 1661726.57483598 1919.29427207
0.00700000 1660672.03247613 1992.80652179
0.00800000 1659455.74520366 3136.37149085
0.00900000 1658078.93706670 2735.83036311
0.01000000 1656541.00821093 3279.95133788
0.01100000 1654843.20198559 4468.07683990
0.01200000 1652985.46852208 3223.32180494
0.01300000 1650968.96101051 6240.66294786
0.01400000 1648793.61796050 5564.67870730
0.01500000 1646460.94544732 4346.65708953
0.01600000 1643970.32745633 5868.97433138
0.01700000 1641324.01406877 7090.52005885
0.01800000 1638521.94063629 5603.74528913
0.01900000 1635564.69185878 5397.36372668
0.02000000 1632453.58737169 6170.67483940
0.02100000 1629190.51419561 5913.96183466
0.02200000 1625774.00325783 9535.16496231
0.02300000 1622207.45485427 7591.93123429
0.02400000 1618490.02048752 6676.27163893
0.02500000 1614624.68694233 6297.03656666
0.02600000 1610611.21188913 9784.46355975
0.02700000 1606451.65692888 8096.51672175
0.02800000 1602145.98848591 9060.13598038
0.02900000 1597696.67678331 7189.63537563
0.03000000 1593105.12625501 11111.90876639
0.03100000 1588371.49011741 9911.43855439
0.03200000 1583497.32377680 7838.31211371
0.03300000 1578486.45121390 10465.36565401
0.03400000 1573337.03785588 9086.02181285
0.03500000 1568052.05567208 11007.72593913
0.03600000 1562633.17899174 9539.87599862
0.03700000 1557081.72164354 9762.90284622
0.03800000 1551399.46384853 11798.39346859
0.03900000 1545588.45975241 12055.59054436
0.04000000 1539648.27845355 11362.60482152
0.04100000 1533583.34828131 10627.73309636
0.04200000 1527394.08519351 11822.03076786
0.04300000 1521081.77397152 11043.05419163
0.04400000 1514649.55711195 14313.43897945
0.04500000 1508098.81824971 13527.64702826
0.04600000 1501429.78838365 15877.62075026
0.04700000 1494646.58278464 15066.03825516
0.04800000 1487749.75956835 15308.94573825
0.04900000 1480742.64882910 12216.12742147
0.05000000 1473625.03849247 15782.52489719
0.05100000 1466401.75132763 11437.93419318
0.05200000 1459070.61934372 12759.57316077
0.05300000 1451638.21529908 14109.92411048
0.05400000 1444103.97527338 15488.01585707
0.05500000 1436470.54225857 13272.98842964
0.05600000 1428739.17818637 15880.43670659
0.05700000 1420914.92946882 13598.15650976
0.05800000 1412996.60143982 15006.02460796
0.05900000 1404986.62931794 12644.88025445
0.06000000 1396889.22987891 17894.15187074
0.06100000 1388705.42646022 15497.95328354
0.06200000 1380437.16225577 16958.67133102
0.06300000 1372088.42219084 17123.66430956
0.06400000 1363657.17041053 15954.78963996
0.06500000 1355149.57256927 21465.57023361
0.06600000 1346566.99332222 14886.29880769
0.06700000 1337910.44048410 16376.02455791
0.06800000 1329183.54181365 15132.75533190
0.06900000 1320388.67378000 15250.48989617
0.07000000 1311526.48756304 15364.53352130
0.07100000 1302600.29704834 14068.08386704
0.07200000 1293612.35268447 22664.08948077
0.07300000 1284565.26085152 15684.54256991
0.07400000 1275461.38757356 21523.41192398
0.07500000 1266302.30713298 18766.60107135
0.07600000 1257089.35155102 18875.19749842
0.07700000 1247827.42001138 20439.41409816
0.07800000 1238517.12879297 22014.64299670
0.07900000 1229160.11022753 17699.90641747
0.08000000 1219760.77110670 16302.10347059
0.08100000 1210319.87668916 20841.70925444
0.08200000 1200839.45616509 19435.58751005
0.08300000 1191322.59583702 18012.79849443
0.08400000 1181771.26483694 19587.85963410
0.08500000 1172187.36679764 21169.70483818
0.08600000 1162573.36509695 18205.89975221
0.08700000 1152932.68271745 24349.93940241
0.08800000 1143264.91573959 19841.36354449
0.08900000 1133575.40109941 15303.26863363
0.09000000 1123864.05440298 23011.11759486
0.09100000 1114133.32745184 18450.04876941
0.09200000 1104385.33594353 21568.64662442
0.09300000 1094625.10368126 21607.90056207
0.09400000 1084849.47500889 15459.10574542
0.09500000 1075063.93226804 17029.01348754
0.09600000 1065269.81213294 23249.51474271
0.09700000 1055471.61544918 17066.97682418
0.09800000 1045668.81746725 23292.27400423
0.09900000 1035864.63635368 21753.15838631
0.10000000 1026059.19146324 18653.75697804
0.10100000 1016255.62129624 29542.55230052
0.10200000 1006456.45221048 26434.57996069
0.10300000 996662.79227672 18657.52834908
0.10400000 986877.97591425 21760.66039264
0.10500000 977104.40260475 18643.15287885
0.10600001 967339.40225163 18630.95776402
0.10700001 957590.72120978 17064.26745496
0.10800001 947856.55103590 18596.94640653
0.10900001 938140.65457475 17027.25368193
0.11000001 928443.30949705 23187.87274613
0.11100001 918767.22678241 23152.93520480
0.11200001 909113.78925401 16950.42739862
0.11300001 899484.64605659 18457.42580607
0.11400001 889882.36751565 19955.61303114
0.11500001 880308.54327637 24507.79099884
0.11600001 870763.67543152 15281.90322347
0.11700001 861251.29144133 19817.39314936
0.11800001 851770.05001514 21285.73455240
0.11900001 842323.14253646 16677.99900778
0.12000001 832911.28793443 16629.07464692
0.12100001 823539.45216289 21099.08175835
0.12200001 814205.45745847 15022.09139782
0.12300001 804912.57254433 17965.64946563
0.12400001 795660.48858284 14918.63486386
0.12500001 786450.83127585 23782.27425841
0.12600001 777287.80531628 19249.53340576
0.12700001 768169.89660720 19173.52152289
0.12800001 759098.54526344 16157.41329742
0.12900001 750076.60653834 17551.79342025
0.13000001 741104.38061289 18931.51229509
0.13100001 732182.07650155 14497.20579809
0.13200001 723312.37662907 17316.09911279
0.13300001 714496.14556566 24414.33444494
0.13400001 705733.48729671 14291.10379152
0.13500001 697026.96368520 14219.35072959
0.13600001 688376.70603854 18389.98456892
0.13700001 679784.02711033 21107.29503705
0.13800001 671248.24611465 15395.07925061
0.13900001 662773.53067656 16701.89376068
0.14000001 654357.76490747 15223.63411853
0.14100001 646004.34416214 16511.87181553
0.14200001 637712.26075816 19150.50009381
0.14300001 629484.04832007 21754.96973607
0.14400001 621316.32111812 13513.63062176
0.14500001 613215.81456366 22830.02585315
0.14600001 605179.33783310 16013.04603447
0.14700001 597209.78131879 13258.05777075
0.14800001 589304.24808004 17122.23573577
0.14900001 581466.78226314 18316.20450546
0.15000001 573696.38826209 18191.91333014
0.15100001 565994.34389011 18066.54030944
0.15200001 558361.87622816 16658.72736334
0.15300001 550798.27294698 12723.44070548
0.15400001 543302.54781988 17684.49876609
0.15500001 535878.45593768 15047.46775286
0.15600001 528522.74796111 19914.73808305
0.15700001 521240.96264281 14824.09367721
0.15800001 514027.01668647 17163.36289725
0.15900001 506886.68363019 12165.28098133
0.16000001 499815.69748729 14484.65959689
0.16100001 492818.97114850 15568.15203346
0.16200001 485893.79376328 14256.12458199
0.16300001 479040.47522864 20033.47361980
0.16400001 472260.31766193 15194.97643812
0.16500001 465551.76264529 13910.68732458
0.16600001 458917.00055542 12645.45854733
0.16700001 452353.88034381 17098.97748432
0.16800001 445863.97576194 12432.91755116
0.16900001 439448.19297835 13447.11534008
0.17000001 433103.62915050 16663.66291842
0.17100001 426833.01860950 11012.29240014
0.17200001 420634.79941025 13098.56827219
0.17300001 414509.31712571 11900.56305668
0.17400001 408457.45875882 10722.00879878
0.17500001 402476.99176289 15938.08962653
0.17600001 396567.89963723 11581.76605590
0.17700001 390734.00731510 10432.59848805
0.17800001 384970.08508914 11370.09200014
0.17900001 379277.89108591 15360.75531452
0.18000001 373658.74344363 15217.25304553
0.18100001 368111.30196989 12059.32682217
0.18200001 362632.96126403 10949.70278261
0.18300001 357226.17474874 11831.33146658
0.18400001 351890.03993728 14647.42360434
0.18500001 346624.20561737 10637.89737295
0.18600001 341428.74527302 17238.73816325
0.18700001 336301.82922556 10432.08323544
0.18800001 331242.66559939 10329.80301476
0.18900001 326255.92587557 12087.78262481
0.19000001 321333.17439295 10126.81546947
0.19100001 316481.14562904 13671.98613718
0.19200001 311694.97407856 10828.28391114
0.19300001 306977.51446151 8933.04609294
0.19400001 302324.68955577 8842.99758737
0.19500001 297738.87993838 9628.87583222
0.19600001 293217.23849262 10397.48376830
0.19700001 288762.43675393 12006.74268764
0.19800001 284370.85645972 8488.47046648
0.19900001 280043.59075235 10921.70055550
0.20000001 275778.34516452 9146.18924964
0.20100001 271577.43107434 9051.67620551
0.20200001 267437.58117368 8143.47473163
0.20300001 263359.84345325 8864.69274962
0.20400001 259343.49272943 11164.73788971
0.20500001 255386.76859188 8680.59667474
0.20600001 251489.70319940 9370.50678413
0.20700001 247652.14873921 10044.77162767
0.20800001 243872.68415495 9939.03171256
0.20900001 240153.41929607 8321.31637197
0.21000001 236488.68287768 9730.32731698
0.21100001 232882.04638956 8146.21436781
0.21200001 229330.44435650 10257.95126101
0.21300001 225834.01501961 10873.90833726
0.21400001 222392.77655849 8606.60085970
0.21500001 219006.56594871 9224.55699387
0.21600001 215672.18686320 7722.14301573
0.21700001 212391.00694997 9028.74213232
0.21800001 209162.07483738 11680.65662156
0.21900001 205983.67964167 8836.70027444
0.22000001 202855.43797547 8069.58970421
0.22100001 199778.86547081 10644.21845558
0.22200001 196750.84523177 6581.31608420
0.22300001 193771.06772308 7812.84982003
0.22400001 190838.76361616 7084.88943427
0.22500001 187955.68246994 8283.20731814
0.22600001 185117.36078269 10715.51893562
0.22700001 182326.05513723 6859.10651862
0.22800001 179579.28820454 8019.11349400
0.22900001 176876.39525728 7322.68310995
0.23000001 174218.25418677 6640.32907236
0.23100001 171604.13104091 8957.73606397
0.23200001 169030.97382589 7679.92265899
0.23300001 166500.77378538 11688.35487253
0.23400001 164010.89112495 8672.07627838
0.23500001 161561.24420351 6291.19514683
0.23600001 159152.08582856 7355.21399445
0.23700001 156782.08962446 6716.54503719
0.23800001 154450.33321601 7751.86259076
0.23900001 152156.85288758 6025.41165935
0.24000001 149899.86417261 5418.88034615
0.24100001 147680.94648538 9113.39163869
0.24200001 145497.78907735 5303.39466273
0.24300001 143349.44069051 6295.90773294
0.24400001 141235.98764413 6747.54962888
0.24500001 139156.30939834 5648.35486567
0.24600001 137110.43697186 5587.93612313
0.24700001 135098.21575580 7538.48079579
0.24800001 133118.00169728 4971.95759860
0.24900001 131168.25372347 5410.69072206
0.25000001 129251.31762634 7299.46850827
0.25100001 127364.10358804 6740.10868075
0.25200001 125508.71211576 5239.36143515
0.25300001 123681.21184302 6125.93071241
0.25400001 121883.93672984 6526.88512068
0.25500001 120113.31077186 5073.58648704
0.25600001 118372.16384346 5932.22127168
0.25700001 116657.36020319 4966.10405881
0.25800001 114969.60340890 6699.85395565
0.25900001 113309.24666025 8838.12165767
0.26000001 111673.67633094 6558.03695283
0.26100001 110063.25047617 4758.03454322
0.26200001 108479.00296163 5135.39624319
0.26300001 106917.66420871 5504.12161391
0.26400001 105381.18998978 4188.90250031
0.26500001 103868.35841164 4558.78246640
0.26600001 102377.98096688 5330.30983127
0.26700001 100910.68199601 4462.27056902
0.26800001 99465.67767076  6020.16042590
0.26900001 98041.72821810  4764.82821688
0.27000001 96639.79317038  5892.61166742
0.27100001 95258.38455066  4275.19650095
0.27200001 93898.24014810  6921.23960885
0.27300001 92557.99043478  4945.37366297
0.27400001 91236.36232237  4139.85013630
0.27500001 89935.94407408  4095.68308696
0.27600001 88652.49563621  5525.26705202
0.27700001 87389.69687752  5101.81074516
0.27800001 86144.18770241  4686.67475376
0.27900001 84917.01177336  3923.16612960
0.28000001 83707.17059019  4233.90888884
0.28100001 82515.00018905  3490.38467319
0.28200001 81340.27072004  3452.89465549
0.28300001 80182.06720349  4440.48309190
0.28400001 79039.66704741  3378.94592620
0.28500001 77914.12333028  4345.27086380
0.28600001 76804.25055053  4628.99239978
0.28700001 75710.67281726  3597.77134257
0.28800001 74630.87707618  3558.77354183
0.28900001 73567.96449588  5760.37189269
0.29000001 72519.09156024  3482.00434608
0.29100001 71485.30620804  4070.37352816
0.29200001 70465.63494061  3716.35776268
0.29300001 69460.49899080  4288.49141069
0.29400001 68468.52402320  3029.73233144
0.29500001 67491.56659562  2996.62569870
0.29600001 66526.95816110  3556.53135165
0.29700001 65576.10234332  4103.75267891
0.29800001 64638.73871751  3188.95232559
0.29900001 63714.68216103  3153.87691627
0.30000001 62802.41430010  3686.18788185
0.30100001 61903.79051526  3084.66602740
0.30200001 61016.77563987  3050.53384253
0.30300001 60142.72832398  2742.50854141
0.30400001 59280.66307494  3796.92664970
0.30500001 58431.20142766  3486.58995425
0.30600001 57592.23716612  2652.12264706
0.30700001 56766.05943218  3147.11048391
0.30800001 55951.13246034  3371.33564601
0.30900001 55147.95375050  2820.81796789
0.31000001 54356.07802355  2535.71115985
0.31100001 53574.98428358  2758.04032150
0.31200001 52805.91198415  2727.16145354
0.31300001 52047.12210069  2451.41956701
0.31400001 51300.49879982  3151.13328797
0.31500001 50563.33187528  3595.05306655
0.31600002 49838.28131228  2606.79142746
0.31700002 49122.99442562  2811.80033406
0.31800002 48418.08999644  2780.16685923
0.31900002 47724.44145774  2519.85062828
0.32000002 47041.20729099  2491.53766214
0.32100002 46367.87076407  2911.43874313
0.32200002 45705.85150868  2435.89347150
0.32300002 45052.40655093  2627.45647446
0.32400002 44410.27010470  2814.50100116
0.32500002 43777.82229357  2354.80917268
0.32600002 43155.57756689  2328.45929788
0.32700002 42543.30919718  2093.13091162
0.32800002 41942.00744677  3104.75724827
0.32900002 41348.38596735  2865.44328323
0.33000002 40765.99628790  2428.83817385
0.33100002 40192.38416055  2401.89699117
0.33200002 39629.91002848  2375.41691959
0.33300002 39076.31079250  3132.35722146
0.33400002 38532.89904494  2904.41740305
0.33500002 37998.85393323  3064.22772629
0.33600002 37473.67286147  2083.72367814
0.33700002 36958.19034366  2435.91444091
0.33800002 36452.90016940  2224.35607368
0.33900002 35956.16495934  2383.89384970
0.34000002 35468.94705430  2177.08407330
0.34100002 34991.11894342  1795.04448681
0.34200002 34523.37081958  2486.71851790
0.34300002 34064.00630353  2109.24337021
0.34400002 33614.67342091  2261.42726149
0.34500002 33173.92379039  2238.24474414
0.34600002 32743.10898722  2215.56257455
0.34700002 32320.21729549  1855.82696500
0.34800002 31907.24660907  2171.44777082
0.34900002 31502.81820402  1653.89803404
0.35000002 31107.76832786  1637.82408003
0.35100002 30722.37110831  1622.14127135
0.35200002 30344.21429209  2410.08933430
0.35300002 29976.31384220  1750.91657445
0.35400002 29616.48151565  1734.78548695
0.35500002 29265.99935871  2031.64577171
0.35600002 28923.63265772  1703.74666240
0.35700002 28589.95736377  3070.56156631
0.35800002 28265.32001773  2587.54884358
0.35900002 27949.82317646  1660.21957532
0.36000002 27642.40910088  2095.57113320
0.36100002 27342.97733109  2227.08560911
0.36200002 27053.59672357  1767.68209365
0.36300002 26771.00378655  1754.03625118
0.36400002 26497.57932398  1450.74253671
0.36500002 26231.44018743  1584.11674795
0.36600002 25974.70045749  1715.88879350
0.36700002 25725.34533251  1704.04695554
0.36800002 25485.16870758  1974.84581670
0.36900002 25252.67843676  2382.59032337
0.37000002 25027.59149920  1949.89974607
0.37100002 24810.43707162  1661.30694501
0.37200002 24601.88077639  1514.12282411
0.37300002 24400.96673569  1642.67315846
0.37400002 24207.37978148  1770.16473037
0.37500002 24021.84987612  1490.31563691
0.37600002 23844.04542960  1348.38083292
0.37700002 23673.52908980  1610.74699557
0.37800002 23510.44140473  1603.88238861
0.37900002 23355.60736760  1730.65058792
0.38000002 23207.31568103  1326.29815400
0.38100002 23065.46326726  1718.14644017
0.38200002 22932.11462147  1712.68506164
0.38300002 22805.02629102  2233.06828021
0.38400002 22685.24239856  1703.09465375
0.38500002 22571.79281834  1437.59755271
0.38600002 22466.20110117  1434.57933928
0.38700002 22366.29644309  1562.06221759
0.38800002 22273.18500921  1429.60444754
0.38900002 22186.63554102  1557.50188877
0.39000002 22106.91497338  2074.51299938
0.39100002 22032.85002042  1554.63797109
0.39200002 21965.72160454  1424.36728493
0.39300002 21904.02031697  1941.79149310
0.39400002 21849.63912798  1424.05029763
0.39500002 21799.97855090  1812.88630218
0.39600002 21756.26100506  1684.26102550
0.39700002 21717.78359816  1815.17243913
0.39800002 21686.10606920  1427.70486071
0.39900002 21658.86791522  1429.48535013
0.40000002 21637.43961101  1691.93967055
0.40100002 21620.97424174  1434.11928940
0.40200002 21610.16439084  1698.23484912
0.40300002 21604.04478507  1571.04621121
0.40400002 21602.98421502  1443.61948857
0.40500002 21606.24418705  1447.40236667
0.40600002 21615.34965056  1319.61715869
0.40700002 21628.19258393  1588.37453862
0.40800002 21645.54902991  1460.74994550
0.40900002 21666.90816188  1332.51491509
0.41000002 21693.26217820  1872.34554732
0.41100002 21723.37345915  1611.00545206
0.41200002 21756.61374277  1617.38674227
0.41300002 21795.23867218  1488.83282424
0.41400002 21836.73481062  1495.27048701
0.41500002 21881.83769771  1501.96941074
0.41600002 21929.60273871  1783.20573119
0.41700002 21982.12579157  1378.27935244
0.41800002 22038.31180153  2077.66194354
0.41900002 22095.69566568  1531.23178219
0.42000002 22156.81931531  1818.96416788
0.42100002 22221.51379768  1547.28407905
0.42200002 22288.60899933  1414.21230802
0.42300002 22357.93256920  1564.16103666
0.42400002 22429.81060985  2144.85074120
0.42500002 22504.67269910  2157.07298042
0.42600002 22580.38703367  1590.90124384
0.42700002 22659.58640583  1600.22006781
0.42800002 22739.96231248  1609.64830857
0.42900002 22823.16993104  1766.51343637
0.43000002 22908.01543618  2369.60522901
0.43100002 22993.03399199  1787.93840794
0.43200002 23080.88861411  1499.10378653
0.43300002 23169.46106048  2262.49797977
0.43400002 23259.89249166  1821.24966840
0.43500002 23350.78831250  1527.14162801
0.43600002 23443.66972146  1844.07914768
0.43700002 23536.62661000  1855.62772987
0.43800002 23630.00991385  2178.45071719
0.43900002 23725.24869997  1879.03978608
0.44000002 23820.28566236  2205.99675973
0.44100002 23916.20340906  2537.03097786
0.44200002 24012.40564975  1755.18687415
0.44300002 24108.98092507  1766.22402627
0.44400002 24205.43945042  2746.71237181
0.44500002 24301.47782547  1950.92273228
0.44600002 24397.47940575  2617.36171469
0.44700002 24494.26109307  1810.61586581
0.44800002 24589.75710849  2318.56830764
0.44900002 24685.40791186  2166.14464692
0.45000002 24780.92626676  2011.71568968
0.45100002 24874.94768193  2192.47799259
0.45200002 24968.77510691  2714.60535828
0.45300002 25061.51206286  2560.03357855
0.45400002 25153.56409209  2060.07699678
0.45500002 25245.05660866  2072.11434464
0.45600002 25335.01070447  2778.74410576
0.45700002 25424.17407279  2095.96900990
0.45800002 25511.71473200  3161.66695658
0.45900002 25597.95111596  2472.76219500
0.46000002 25683.39286845  2131.20804123
0.46100002 25766.40600818  2321.29562729
0.46200002 25848.72420596  2154.23277742
0.46300002 25929.14549430  3428.87036268
0.46400002 26007.41695871  2358.22264450
0.46500002 26085.04402201  2552.68252898
0.46600002 26159.68616695  2015.73471313
0.46700002 26232.63165274  2025.68391223
0.46800002 26304.26924680  2590.70760091
0.46900002 26373.17942558  2417.10200892
0.47000002 26440.14393498  2054.79588330
0.47100002 26505.19509501  2251.88148200
0.47200002 26568.19070012  2073.51454147
0.47300002 26628.76329790  2082.63567624
0.47400002 26686.44356777  2471.83195262
0.47500002 26742.30396479  2291.28071230
0.47600002 26796.42837317  2109.01299507
0.47700002 26846.86277237  2502.39619762
