# SAXS profile: number of points = 501, q_min = 0, q_max = 0.5, delta_q = 0.001
#    q    intensity    error
0.00000000 1664650.74656091 299.63713438
0.00100000 1664569.27948973 599.24495485
0.00200000 1664324.81570832 898.73542894
0.00300000 1663917.57744078 1098.18564023
0.00400000 1663347.43173753 1247.51062121
0.00500000 1662614.89139736 1795.62415378
0.00600000 1661719.86782182 2093.76711870
0.00700000 1660662.92512830 2391.35471157
0.00800000 1659443.85338254 2464.27422631
0.00900000 1658063.88703564 3233.22471793
0.01000000 1656522.45249223 3006.58838110
0.01100000 1654820.76285236 4468.01625424
0.01200000 1652958.79479009 4190.25072851
0.01300000 1650937.64865409 3813.66613659
0.01400000 1648757.34258234 5564.55627790
0.01500000 1646419.43216177 4346.54749445
0.01600000 1643923.11430963 5868.80578044
0.01700000 1641270.77657924 5317.71755466
0.01800000 1638462.29070130 6537.46483407
0.01900000 1635498.33501973 5397.14474910
0.02000000 1632380.17182947 6170.39732864
0.02100000 1629109.70928754 7526.48719815
0.02200000 1625685.43464082 5608.61500432
0.02300000 1622110.83656476 8175.43898842
0.02400000 1618385.05639231 7889.62750966
0.02500000 1614510.97522925 8185.57101825
0.02600000 1610488.45855882 7174.72641104
0.02700000 1606319.56952553 8095.85100121
0.02800000 1602004.19839108 8362.46229910
0.02900000 1597544.94670074 10783.42888534
0.03000000 1592943.07241308 8888.62275263
0.03100000 1588198.82214998 10672.69657593
0.03200000 1583313.74316979 11756.10508450
0.03300000 1578291.79481587 8049.28852464
0.03400000 1573130.88694448 8258.93753753
0.03500000 1567834.25593230 10159.56644759
0.03600000 1562403.24550407 15608.40914391
0.03700000 1556839.54172842 8873.98579825
0.03800000 1551144.82118885 9074.19762390
0.03900000 1545320.87327451 11126.31080284
0.04000000 1539367.76523588 12307.24585337
0.04100000 1533289.51395690 14489.58657872
0.04200000 1527086.74877018 9849.70998652
0.04300000 1520760.57734870 15055.53041460
0.04400000 1514314.34077311 12265.94672992
0.04500000 1507749.52105739 14564.86105017
0.04600000 1501066.00381378 17990.27689202
0.04700000 1494268.19051784 13986.35091372
0.04800000 1487356.51088142 12025.27794999
0.04900000 1480334.36870514 13323.00993850
0.05000000 1473201.45863618 12396.99085170
0.05100000 1465962.75474283 13721.41202359
0.05200000 1458616.14369308 12755.59877102
0.05300000 1451167.98892125 14105.35350988
0.05400000 1443617.78784343 16673.78622715
0.05500000 1435968.28331730 13268.34755681
0.05600000 1428220.54225395 14653.54344732
0.05700000 1420380.09259088 14828.76885883
0.05800000 1412445.25049347 15000.16926063
0.05900000 1404418.59451818 13903.74473512
0.06000000 1396304.52949699 12776.18704179
0.06100000 1388103.86929832 16782.17656407
0.06200000 1379818.84245162 23470.71960721
0.06300000 1371452.88851984 14482.54317991
0.06400000 1363004.61055546 15947.15468930
0.06500000 1354479.71355960 16091.21974980
0.06600000 1345879.96159169 16231.31309624
0.06700000 1337206.11413084 17731.35390318
0.06800000 1328461.74390469 17874.45360092
0.06900000 1319649.56918373 26327.01013782
0.07000000 1310770.05430646 19543.58242491
0.07100000 1301826.24210996 16871.66888798
0.07200000 1292820.89232963 18403.30626445
0.07300000 1283756.13574646 18524.60190680
0.07400000 1274634.75097222 18641.53410659
0.07500000 1265458.25331769 15868.84724042
0.07600000 1256227.48241547 15960.37091232
0.07700000 1246948.13511151 24801.79957029
0.07800000 1237620.34559580 16132.38196139
0.07900000 1228245.82205095 22108.42583388
0.08000000 1218829.14633382 19251.40726945
0.08100000 1209370.88129682 16362.78879166
0.08200000 1199873.12688606 17926.10535686
0.08300000 1190339.04849070 20997.58180083
0.08400000 1180770.41557715 22582.23525789
0.08500000 1171169.50752223 16618.89609192
0.08600000 1161538.58883713 18189.69515522
0.08700000 1151880.92510512 16725.31181791
0.08800000 1142196.46954895 18297.98830152
0.08900000 1132490.16968172 22932.92701321
0.09000000 1122762.28951581 19923.41776337
0.09100000 1113014.99459293 21503.45070579
0.09200000 1103250.67007540 20007.45184190
0.09300000 1093474.31806851 16959.78747022
0.09400000 1083682.69450789 18530.97494699
0.09500000 1073881.25015210 18556.66887484
0.09600000 1064071.43179683 17030.46406647
0.09700000 1054257.56822133 17047.34567958
0.09800000 1044439.33074304 18611.90974893
0.09900000 1034620.17116635 17071.23362698
0.10000000 1024799.55854823 20183.42825478
0.10100000 1014981.30775816 17082.13621297
0.10200000 1005167.45858313 20188.78935525
0.10300000 995359.47665289 17080.36942284
0.10400000 985560.51086135 18627.09453159
0.10500000 975772.98903473 21720.70775786
0.10600001 965994.36383358 17054.63129596
0.10700001 956232.01262127 17040.05526678
0.10800001 946484.60581040 15475.02403328
0.10900001 936755.80925665 15456.47158020
0.11000001 927045.63845045 18522.37272808
0.11100001 917357.06201954 15411.59936740
0.11200001 907691.53901759 27693.67015916
0.11300001 898050.47455704 19963.66298931
0.11400001 888436.49844876 16858.08335182
0.11500001 878851.18298184 18350.41356474
0.11600001 869295.52922158 22884.20588441
0.11700001 859772.17780563 27392.34287493
0.11800001 850280.42888536 16695.25700748
0.11900001 840823.46128606 16648.30531763
0.12000001 831401.56574464 15089.93912908
0.12100001 822020.22149763 18051.56491446
0.12200001 812677.16348965 16493.28381004
0.12300001 803375.23820851 17931.33616164
0.12400001 794114.55422365 17867.57831191
0.12500001 784896.81244494 16318.00549964
0.12600001 775725.84887270 20688.60936435
0.12700001 766600.15981775 22078.08564321
0.12800001 757521.62542352 16123.84855704
0.12900001 748492.72446131 17514.73057790
0.13000001 739514.04540245 21797.17751564
0.13100001 730585.51287756 14465.59383685
0.13200001 721709.96230405 14398.11442670
0.13300001 712888.35276795 20060.67919261
0.13400001 704120.61586673 17110.13177223
0.13500001 695409.34819151 18442.25678356
0.13600001 686754.62617048 16935.36987988
0.13700001 678158.14983449 14037.87436351
0.13800001 669618.50458099 18150.01042254
0.13900001 661140.58180913 20825.92930910
0.14000001 652721.82548461 28990.64124611
0.14100001 644366.09128462 15097.49823084
0.14200001 636071.87808975 15008.11667139
0.14300001 627841.89125887 14917.52403993
0.14400001 619672.78387591 20216.82552758
0.14500001 611571.20740960 14732.75108147
0.14600001 603534.23070117 18631.10258065
0.14700001 595564.47856139 15865.83845737
0.14800001 587659.05293412 13134.18045273
0.14900001 579822.14026850 13045.99877156
0.15000001 572052.86096662 15548.39749469
0.15100001 564352.03147797 15440.67230980
0.15200001 556721.31268405 16609.78114769
0.15300001 549159.79884065 20296.94712294
0.15400001 541666.53368073 15112.49700287
0.15500001 534245.27671411 16251.74208461
0.15600001 526893.10434263 14889.99983145
0.15700001 519614.91141719 13546.36137999
0.15800001 512405.08461003 13442.94802923
0.15900001 505269.22371067 12126.46194143
0.16000001 498202.83321170 15641.07868698
0.16100001 491211.36410163 16711.01139557
0.16200001 484291.80252948 13025.02864389
0.16300001 477444.50317262 12919.64886576
0.16400001 470670.57259364 12814.00694381
0.16500001 463968.92973885 11552.82689592
0.16600001 457341.09063596 14893.31331972
0.16700001 450785.49112965 12495.77440410
0.16800001 444303.33923277 14642.01723576
0.16900001 437895.79234591 11166.34323207
0.17000001 431559.70960503 13283.40848888
0.17100001 425298.01380743 15361.76498413
0.17200001 419109.04449196 14138.64428360
0.17300001 412993.26443740 15090.77459520
0.17400001 406951.31682477 11750.71982826
0.17500001 400981.16052952 15878.85470689
0.17600001 395082.75221971 17832.06086363
0.17700001 389259.83316901 13511.20944744
0.17800001 383507.32920026 12356.60673046
0.17900001 377826.92552613 10201.32747105
0.18000001 372219.54905201 12126.91348093
0.18100001 366684.46577765 12012.58366631
0.18200001 361218.86263219 10907.00407240
0.18300001 355824.90509161 9820.76784445
0.18400001 350502.05308837 9726.43243269
0.18500001 345249.97575800 10595.72225658
0.18600001 340068.22446081 10492.80556145
0.18700001 334955.61708264 16057.77304159
0.18800001 329911.00742956 16835.35950454
0.18900001 324938.94340936 11112.91238966
0.19000001 320031.17783367 12836.45114942
0.19100001 315194.49754344 11800.88254562
0.19200001 310423.87797782 9885.44886130
0.19300001 305722.36881768 12455.12989417
0.19400001 301085.63399109 8806.75521039
0.19500001 296516.11097213 11332.84629689
0.19600001 292011.25186576 15532.07922073
0.19700001 287573.33047161 10249.11398236
0.19800001 283198.84443164 13525.57744926
0.19900001 278888.84581111 10876.66550066
0.20000001 274641.23255942 9108.47690831
0.20100001 270458.06739009 10653.34377800
0.20200001 266336.18435653 10542.91835605
0.20300001 262276.67924257 11235.93346981
0.20400001 258278.79764439 10324.69542384
0.20500001 254340.62618917 8645.03829279
0.20600001 250462.23629345 8554.53808496
0.20700001 246643.79142150 7695.28665610
0.20800001 242883.43418995 9137.27522615
0.20900001 239183.64851415 9794.57086966
0.21000001 235538.37421228 11182.18484434
0.21100001 231951.39645124 8851.26570701
0.21200001 228419.49196532 10217.20435862
0.21300001 224943.06098316 10831.00889838
0.21400001 221521.89562288 8572.89776590
0.21500001 218155.87824266 7068.25078923
0.21600001 214841.74774336 8391.71906360
0.21700001 211581.05800143 6918.70092376
0.21800001 208372.62207171 7529.54505456
0.21900001 205214.98534391 9480.93277116
0.22000001 202107.43539829 8709.82034031
0.22100001 199051.62196685 7954.10318989
0.22200001 196044.52651110 7213.45869406
0.22300001 193085.69994283 7785.21578982
0.22400001 190174.53930533 8343.90830657
0.22500001 187312.57127181 6984.88611302
0.22600001 184495.41206312 7538.48289338
0.22700001 181725.19064050 6215.00181381
0.22800001 178999.77406582 7993.23528891
0.22900001 176318.12336513 7299.57065252
0.23000001 173681.19578668 7823.46983420
0.23100001 171088.55995203 9526.21146865
0.23200001 168536.59763499 7657.46067569
0.23300001 166027.79908209 6410.33362573
0.23400001 163559.12831725 6918.55145503
0.23500001 161130.91326162 6274.43805916
0.23600001 158742.94820680 6771.97449080
0.23700001 156394.24851815 8374.91240426
0.23800001 154083.82832664 7181.07715882
0.23900001 151811.45951968 6011.73408133
0.24000001 149575.68265913 7570.02565744
0.24100001 147377.81867549 6419.77808517
0.24200001 145215.83564031 6881.05269730
0.24300001 143088.42137646 5760.74011712
0.24400001 140995.87684141 5181.59871903
0.24500001 138937.05506214 6152.13308917
0.24600001 136911.96781170 7608.88297107
0.24700001 134920.37195537 6524.74949642
0.24800001 132960.62767782 6455.90358230
0.24900001 131031.49982487 4913.68147589
0.25000001 129134.83513817 6806.69748215
0.25100001 127267.83182499 6253.94155175
0.25200001 125432.64393804 5236.18596892
0.25300001 123625.07913356 5181.12731161
0.25400001 121847.79598476 6991.01762538
0.25500001 120096.90677350 7839.92644510
0.25600001 118375.33125343 6845.05385359
0.25700001 116679.97664164 7224.82449548
0.25800001 115011.51562372 5808.65687141
0.25900001 113370.26065397 4421.44037470
0.26000001 111753.61759815 6562.73150397
0.26100001 110161.96441088 4762.30194682
0.26200001 108596.34784531 5140.95135025
0.26300001 107053.38638619 5087.17716178
0.26400001 105535.26317614 4614.52960073
0.26500001 104040.34778110 4981.45208748
0.26600001 102567.81844064 4929.40958751
0.26700001 101118.12472673 4471.44368701
0.26800001 99690.65876168  5229.27375280
0.26900001 98283.91420518  4776.59845641
0.27000001 96899.02580655  4332.84014398
0.27100001 95534.42105230  4677.36547607
0.27200001 94190.86043709  4628.53910092
0.27300001 92866.98747182  5725.25004858
0.27400001 91561.45598799  3776.91023825
0.27500001 90276.95133290  3737.46596206
0.27600001 89009.19938651  3698.33240954
0.27700001 87761.80141548  4391.60075067
0.27800001 86531.37140973  4707.73948435
0.27900001 85319.11554558  4300.08362701
0.28000001 84123.99205950  4254.99171975
0.28100001 82946.19653002  5262.93641892
0.28200001 81785.60087176  5207.69838199
0.28300001 80641.28114507  5496.50998300
0.28400001 79512.54117000  4078.99355508
0.28500001 78400.28497905  6054.07029263
0.28600001 77303.52436956  3327.91688163
0.28700001 76222.78879227  3292.82463168
0.28800001 75155.46603441  4235.38648884
0.28900001 74104.84167184  3223.56076531
0.29000001 73067.88463211  3827.29597819
0.29100001 72045.89020379  4733.41521044
0.29200001 71037.57458550  3434.31170590
0.29300001 70043.53327355  4324.48794901
0.29400001 69062.46892190  3361.61583390
0.29500001 68096.07892931  3325.81265234
0.29600001 67141.71487620  3888.51260113
0.29700001 66200.86767506  3255.09681767
0.29800001 65273.18422255  2927.50245097
0.29900001 64358.46911527  3185.74437202
0.30000001 63455.28295995  3151.50677740
0.30100001 62565.58628516  3117.64331218
0.30200001 61686.97366818  3084.04039454
0.30300001 60821.28027821  3050.79556318
0.30400001 59967.10180124  3840.89305220
0.30500001 59125.28921197  3528.00617430
0.30600001 58293.67847038  2684.42402065
0.30700001 57474.49648494  3451.91842231
0.30800001 56666.35523656  2889.13425852
0.30900001 55869.55692511  2597.93452001
0.31000001 55083.87127993  3597.52780362
0.31100001 54308.61655115  3304.13638741
0.31200001 53545.15171871  2765.33949144
0.31300001 52791.51978808  3232.42490967
0.31400001 52049.92011110  2705.29472586
0.31500001 51317.50812607  3405.43000048
0.31600002 50596.83847316  3608.81967497
0.31700002 49885.66344304  3093.41013657
0.31800002 49184.56458933  2588.82967974
0.31900002 48494.41054885  2560.50499822
0.32000002 47814.44628541  2532.49226742
0.32100002 47144.11977284  2504.76720213
0.32200002 46484.74685854  2702.62331033
0.32300002 45833.70265483  2673.02166540
0.32400002 45193.68316429  2423.51137444
0.32500002 44563.06306982  2614.96066476
0.32600002 43942.41882524  2586.45089453
0.32700002 43331.46785893  2131.90831961
0.32800002 42731.11560697  2319.65872057
0.32900002 42138.29739140  2294.43040161
0.33000002 41556.43035513  2682.25992429
0.33100002 40983.00624770  3673.71685401
0.33200002 40420.56631758  2220.90812149
0.33300002 39866.64470537  2396.78279319
0.33400002 39322.77675553  2173.56658809
0.33500002 38787.78986254  2736.86658231
0.33600002 38261.60185278  2320.94887830
0.33700002 37744.82659583  2296.39535884
0.33800002 37238.00297794  3029.68406576
0.33900002 36739.50599927  2435.82936311
0.34000002 36250.29651326  2039.62302991
0.34100002 35770.24983656  2018.51529387
0.34200002 35300.00411351  1816.18529765
0.34300002 34838.00219895  2157.16919832
0.34400002 34385.71273467  2135.35286195
0.34500002 33941.93915497  2290.06274324
0.34600002 33507.68847097  1918.48279427
0.34700002 33081.22217198  1726.83987916
0.34800002 32664.51062076  1880.98593318
0.34900002 32256.07426845  1693.44397930
0.35000002 31856.86539737  3354.52808522
0.35100002 31467.04015979  2326.04371878
0.35200002 31084.38034763  1810.50981910
0.35300002 30711.65738867  1956.94690149
0.35400002 30346.95168219  1615.97525361
0.35500002 29991.34256285  1921.84532245
0.35600002 29643.68309742  2539.87088809
0.35700002 29304.62844821  1731.02448443
0.35800002 28974.26279168  1872.31695028
0.35900002 28652.96728086  2011.43839839
0.36000002 28339.67945089  2148.43120093
0.36100002 28034.13015173  1522.25333934
0.36200002 27738.40260857  1812.42731229
0.36300002 27449.54878640  1948.36906515
0.36400002 27169.53765298  2231.29838544
0.36500002 26896.73453234  1624.29387535
0.36600002 26633.16280525  1612.77125007
0.36700002 26376.94289232  2038.41024327
0.36800002 26129.66098862  1446.27680423
0.36900002 25889.95946000  1724.27138171
0.37000002 25657.62646229  1998.98577237
0.37100002 25433.10496363  1561.08405662
0.37200002 25217.02783690  1410.89277431
0.37300002 25008.43456177  1402.97324537
0.37400002 24807.20029199  2651.26965680
0.37500002 24613.87313959  1804.68926408
0.37600002 24428.20604990  1657.69814107
0.37700002 24249.67965634  1787.44397214
0.37800002 24078.57232511  2053.30035229
0.37900002 23915.62425710  1772.14784140
0.38000002 23759.09717346  2172.53194846
0.38100002 23609.07588209  1893.92015698
0.38200002 23467.41981702  1483.02366559
0.38300002 23331.85557274  2150.26391145
0.38400002 23203.74425037  2010.02444091
0.38500002 23081.80868628  2004.65517937
0.38600002 22967.68588556  1466.60165170
0.38700002 22859.29366017  1463.45204946
0.38800002 22757.57290969  1460.69488641
0.38900002 22662.41161482  2121.20182764
0.39000002 22574.13525119  1456.37040473
0.39100002 22491.39111858  1322.49386043
0.39200002 22415.51566740  1717.81312456
0.39300002 22345.18839455  1452.66076635
0.39400002 22282.09257556  1584.25685718
0.39500002 22223.68033033  1716.11267641
0.39600002 22171.30615452  1452.33147846
0.39700002 22124.16079077  1584.97495414
0.39800002 22083.78502838  1586.05751588
0.39900002 22047.82281241  1322.86943142
0.40000002 22017.80774408  1456.80831841
0.40100002 21992.64191694  1989.23455564
0.40200002 21973.19833512  1593.93588275
0.40300002 21958.51630363  1596.82338126
0.40400002 21948.86904648  2133.43017240
0.40500002 21943.64812340  1470.00505744
0.40600002 21944.20777718  1339.69394827
0.40700002 21948.68489383  1880.56341081
0.40800002 21957.56623064  1885.93545291
0.40900002 21970.57990136  1756.54794634
0.41000002 21988.63580307  1491.15940764
0.41100002 22010.44787434  1904.34404032
0.41200002 22035.57276169  1774.63493645
0.41300002 22066.02775633  1781.39050518
0.41400002 22099.44478387  1788.39765387
0.41500002 22136.55097002  1519.45293058
0.41600002 22176.37520999  1387.13233511
0.41700002 22220.99647936  1950.55916338
0.41800002 22269.36454695  1959.48147933
0.41900002 22319.05722465  1968.54094049
0.42000002 22372.54769811  1836.67439031
0.42100002 22429.70412080  1845.74043956
0.42200002 22489.30617577  1997.72516226
0.42300002 22551.28239007  2007.96627916
0.42400002 22615.88124887  1585.93874773
0.42500002 22683.50233558  1739.37104151
0.42600002 22752.12298952  1894.45561049
0.42700002 22824.31057672  1611.85288931
0.42800002 22897.79981314  1915.51553414
0.42900002 22974.24304926  2074.57424566
0.43000002 23052.38154407  1937.43749868
0.43100002 23130.77663233  1798.64927616
0.43200002 23212.16915397  1959.91959539
0.43300002 23294.33091958  1668.10711620
0.43400002 23378.43874012  1983.07616010
0.43500002 23463.23555519  1534.49567803
0.43600002 23550.01624020  2006.81472901
0.43700002 23637.05094185  1552.95432047
0.43800002 23724.64856414  1874.72181838
0.43900002 23814.12035820  1728.90521994
0.44000002 23903.63764818  2213.71598751
0.44100002 23994.05260152  2068.04749173
0.44200002 24084.86289493  2240.61490130
0.44300002 24176.19962963  1932.16196597
0.44400002 24267.58040491  2267.80549631
0.44500002 24358.66167586  2281.43236068
0.44600002 24449.75163348  1803.29151719
0.44700002 24541.84919127  1979.05481257
0.44800002 24632.64714165  2156.71152270
0.44900002 24723.88094513  1835.74824718
0.45000002 24815.01950350  1678.73614897
0.45100002 24904.78871471  2026.25370586
0.45200002 24994.52583857  2038.05373347
0.45300002 25083.26304214  2562.25544119
0.45400002 25171.42355659  2405.12963482
0.45500002 25259.18003854  1900.50079617
0.45600002 25345.48437593  2258.66294721
0.45700002 25431.17748605  2096.54637131
0.45800002 25515.39233574  2108.08181469
0.45900002 25598.35752513  2119.54410354
0.46000002 25680.64453815  3018.88831176
0.46100002 25760.71493057  1963.73939223
0.46200002 25840.12572431  2332.97586159
0.46300002 25917.84646274  1984.27041923
0.46400002 25993.47263539  1994.34928247
0.46500002 26068.55713019  1822.19222976
0.46600002 26140.89906684  2014.28707306
0.46700002 26211.52269947  2208.05877686
0.46800002 26281.06092753  2403.53454105
0.46900002 26347.93711282  2229.03558539
0.47000002 26413.02589124  1866.08036766
0.47100002 26476.31574013  2061.97556757
0.47200002 26537.59795001  1882.84266379
0.47300002 26596.60970945  1891.01903997
0.47400002 26652.90927235  2278.82385080
0.47500002 26707.41988899  2478.98283159
0.47600002 26760.30642676  2297.64001870
0.47700002 26809.67211242  1922.25358157
