# SAXS profile: number of points = 501, q_min = 0, q_max = 0.5, delta_q = 0.001
#    q    intensity    error
0.00000000 1682732.95097189 353.37391970
0.00100000 1682650.97123192 605.75436403
0.00200000 1682404.97536966 984.20694176
0.00300000 1681995.18101461 1311.95628793
0.00400000 1681421.45010746 1387.17274905
0.00500000 1680684.30681921 1663.87752961
0.00600000 1679783.66923313 1940.15021695
0.00700000 1678720.07856501 3021.69626700
0.00800000 1677493.34308204 2944.00094140
0.00900000 1676104.69975430 3519.82001995
0.01000000 1674553.57432420 4420.82162710
0.01100000 1672841.17046509 4215.55993311
0.01200000 1670967.47219352 3584.22538500
0.01300000 1668933.60783820 4205.71287724
0.01400000 1666739.55012616 4875.21340024
0.01500000 1664386.89276945 5592.34020873
0.01600000 1661874.80839218 6356.67142627
0.01700000 1659205.71936761 8063.74015786
0.01800000 1656379.49737885 6136.88631393
0.01900000 1653396.82413550 6448.24790509
0.02000000 1650258.90138455 5718.14735196
0.02100000 1646967.72965885 7065.49188058
0.02200000 1643521.76045087 6804.18039740
0.02300000 1639924.44105326 8265.21955913
0.02400000 1636175.00275241 6135.65654009
0.02500000 1632276.33961401 7639.05361827
0.02600000 1628228.17951062 7913.18931436
0.02700000 1624032.73691488 10231.40671117
0.02800000 1619689.76816212 10568.47622192
0.02900000 1615202.15789605 8722.09205311
0.03000000 1610570.79704566 7489.15455050
0.03100000 1605796.11612747 8478.60388328
0.03200000 1600879.79194050 11094.09746912
0.03300000 1595825.61735703 8138.71102372
0.03400000 1590631.48195154 9185.89723211
0.03500000 1585300.76834558 10272.74945326
0.03600000 1579834.74410505 8768.08323499
0.03700000 1574235.11732134 12562.39681720
0.03800000 1568503.55198696 13763.61930566
0.03900000 1562641.86949387 10313.43681627
0.04000000 1556650.11916667 11488.07841180
0.04100000 1550532.40400127 11722.02551776
0.04200000 1544289.23875181 10956.73265726
0.04300000 1537921.88473841 11165.31340147
0.04400000 1531433.51516873 13438.32971971
0.04500000 1524825.66519361 11573.42733658
0.04600000 1518098.27574704 12843.11200986
0.04700000 1511255.81477142 10881.04237241
0.04800000 1504298.67077857 13267.91489360
0.04900000 1497230.25811691 12352.15020443
0.05000000 1490050.16490538 13678.66115079
0.05100000 1482763.48464745 13878.66686282
0.05200000 1475368.02402404 15247.92923886
0.05300000 1467870.40892758 15456.67612656
0.05400000 1460269.78699959 12047.22630456
0.05500000 1452569.14897088 25623.32098316
0.05600000 1444769.65987011 16058.61551882
0.05700000 1436876.46601522 12500.82583785
0.05800000 1428888.06725850 12645.65998569
0.05900000 1420807.38336168 14065.99375224
0.06000000 1412638.33370977 18095.89790024
0.06100000 1404382.23240051 16978.98198317
0.06200000 1396040.80086161 23746.65513266
0.06300000 1387617.76640434 13321.13118032
0.06400000 1379111.69781933 17480.24158735
0.06500000 1370528.47725920 14925.05581551
0.06600000 1361869.39456080 17792.82447244
0.06700000 1353136.00546885 17942.58427221
0.06800000 1344331.13374408 15305.21067410
0.06900000 1335457.86460428 19631.23152880
0.07000000 1326516.52206321 16952.88194585
0.07100000 1317510.46765922 18497.84783233
0.07200000 1308442.01297159 18625.67292720
0.07300000 1299313.74359704 20191.33652158
0.07400000 1290128.20461233 15965.33728028
0.07500000 1280886.88588219 16062.32230184
0.07600000 1271590.66872863 16155.56020358
0.07700000 1262245.43950653 17721.92680163
0.07800000 1252851.13449893 17815.54396806
0.07900000 1243409.51421144 17905.09784446
0.08000000 1233925.35266832 17990.63248586
0.08100000 1224398.97470020 19578.14052403
0.08200000 1214832.63665486 16637.13373969
0.08300000 1205229.28332774 19741.65658742
0.08400000 1195591.07440215 18292.54429698
0.08500000 1185919.90368492 22947.55121358
0.08600000 1176218.55746203 16884.61818513
0.08700000 1166489.88547324 21556.73409580
0.08800000 1156733.86277160 23163.59668985
0.08900000 1146955.54855097 21677.46088580
0.09000000 1137155.35462717 17074.38845180
0.09100000 1127335.37249828 18668.67464565
0.09200000 1117497.83213456 20265.82413798
0.09300000 1107647.69845469 20303.18326676
0.09400000 1097782.14362877 23465.09442287
0.09500000 1087906.30508155 23498.77729427
0.09600000 1078021.71269959 21959.30331995
0.09700000 1068132.98469244 17271.71117447
0.09800000 1058239.15877479 20429.30792069
0.09900000 1048344.28594010 20442.71453710
0.10000000 1038447.61212345 25171.97130164
0.10100000 1028552.98501892 17310.54755201
0.10200000 1018662.39097332 17312.16814889
0.10300000 1008777.38949562 20458.00642133
0.10400000 998901.35946461 15732.69715171
0.10500000 989036.22064044 18870.81197768
0.10600001 979179.71609059 17287.41870101
0.10700001 969339.54193771 21984.62184569
0.10800001 959513.71649553 18825.66000361
0.10900001 949706.34397731 18804.18649578
0.11000001 939917.64075910 15649.62945526
0.11100001 930150.28000216 17189.17798359
0.11200001 920405.63826328 24961.40208481
0.11300001 910685.43267921 29588.17110078
0.11400001 900991.92965202 17096.32267012
0.11500001 891327.23806140 17060.00413982
0.11600001 881691.71865699 21663.16654755
0.11700001 872088.61342270 18523.16302145
0.11800001 862516.78557200 18475.11041710
0.11900001 852979.62086627 16888.99728865
0.12000001 843477.64787678 19901.85603913
0.12100001 834016.08727401 16788.74462771
0.12200001 824592.56746222 21299.22702098
0.12300001 815210.45677931 19711.78977363
0.12400001 805869.05529861 16621.05004868
0.12500001 796570.76825774 18066.22587537
0.12600001 787319.25644325 16498.27579622
0.12700001 778113.06172270 16433.74863805
0.12800001 768953.85339921 14879.25776452
0.12900001 759844.28657234 20743.75000112
0.13000001 750784.93898848 19178.80217045
0.13100001 741775.61878701 23499.45271088
0.13200001 732819.60711185 19005.67740638
0.13300001 723917.52137559 17460.89143874
0.13400001 715069.03685224 21720.22301840
0.13500001 706277.32390855 15848.86389575
0.13600001 697542.09834931 15767.93987666
0.13700001 688865.23943638 15685.46224159
0.13800001 680245.09080719 21274.66621822
0.13900001 671687.11726731 16926.51615336
0.14000001 663188.27944810 15429.07604900
0.14100001 654752.39670120 19524.71739047
0.14200001 646378.21254054 18024.25730681
0.14300001 638068.68164378 17916.96942566
0.14400001 629819.81341988 16438.29790565
0.14500001 621638.92041404 25866.39669860
0.14600001 613522.33473807 21645.06899065
0.14700001 605473.40097704 13441.51013581
0.14800001 597489.00064783 17360.04373285
0.14900001 589573.19832760 17245.01686472
0.15000001 581725.05811401 14493.68050676
0.15100001 573946.01945241 17011.76081927
0.15200001 566236.94841299 16893.68015306
0.15300001 558597.36554876 15484.31970370
0.15400001 551026.19281302 19217.03938123
0.15500001 543527.17112616 13990.39004504
0.15600001 536097.57484679 18937.64772522
0.15700001 528742.33178120 15037.43262558
0.15800001 521455.29406934 16167.72215572
0.15900001 514242.87362402 12341.82954952
0.16000001 507099.97986459 14695.75811015
0.16100001 500032.32335713 13365.86463426
0.16200001 493036.79716729 12054.75025980
0.16300001 486113.82470606 16741.76091322
0.16400001 479264.51063219 15420.33635758
0.16500001 472487.88053469 12941.44365883
0.16600001 465785.48714868 12834.71970435
0.16700001 459155.27642467 16198.99891709
0.16800001 452598.87080510 14915.39649163
0.16900001 446117.66074828 17064.00132935
0.17000001 439708.17844197 12406.36684056
0.17100001 433373.22891054 15653.44176742
0.17200001 427111.19652714 16625.30410991
0.17300001 420923.12643168 12084.70353055
0.17400001 414808.91916747 16333.10196357
0.17500001 408766.98509423 11870.59380776
0.17600001 402797.15173048 10694.26488352
0.17700001 396903.13252979 13776.50838078
0.17800001 391079.80313873 11550.54253126
0.17900001 385329.05447647 12484.66195473
0.18000001 379651.84655169 11338.30293283
0.18100001 374047.22898742 14296.08576720
0.18200001 368512.20789548 10115.66058457
0.18300001 363049.68618733 12024.20617454
0.18400001 357658.13357673 14887.52051343
0.18500001 352338.13372324 13762.32815339
0.18600001 347088.76744299 11683.00846408
0.18700001 341908.87740045 13498.56311751
0.18800001 336797.29690432 9548.20381835
0.18900001 331758.80143692 13237.17680276
0.19000001 326785.22408962 11234.87653504
0.19100001 321882.92846807 9270.22877790
0.19200001 317047.01178738 12849.91599492
0.19300001 312280.91480770 10904.85006037
0.19400001 307579.82727609 11695.72348484
0.19500001 302946.58180822 9797.29291865
0.19600001 298378.13893908 10580.48930677
0.19700001 293877.25730494 9600.97044987
0.19800001 289440.09870282 9503.76609004
0.19900001 285067.95909339 11972.85484776
0.20000001 280758.76286948 8464.87710057
0.20100001 276514.41135098 10054.06447190
0.20200001 272331.70097964 9121.75075544
0.20300001 268211.89700893 10669.46976730
0.20400001 264153.97328631 10559.55558123
0.20500001 260156.37086758 11254.36513569
0.20600001 256219.05054762 11137.84265377
0.20700001 252342.13098526 9447.68983067
0.20800001 248523.57994614 12465.94335937
0.20900001 244766.20350206 8481.14935226
0.21000001 241063.78594924 8392.63610456
0.21100001 237420.09924931 11324.93926956
0.21200001 233831.95904240 8965.11773351
0.21300001 230299.83660843 10349.67514647
0.21400001 226823.19858349 7315.04850015
0.21500001 223402.37015545 7962.06084877
0.21600001 220033.98866913 8594.52800375
0.21700001 216719.33269738 8504.06701711
0.21800001 213457.42624549 10518.11517555
0.21900001 210246.77449851 6938.14388650
0.22000001 207086.64506072 7551.41486919
0.22100001 203978.68659795 6792.49058488
0.22200001 200920.10195819 6720.77772829
0.22300001 197910.14952533 9974.67200773
0.22400001 194948.10848674 10527.19835608
0.22500001 192036.01143545 9114.02953370
0.22600001 189169.13549131 9661.81405211
0.22700001 186349.62039536 10834.36744213
0.22800001 183575.19846994 7566.97003877
0.22900001 180845.24508201 9358.74187558
0.23000001 178160.45712282 8025.23817063
0.23100001 175520.36061182 6108.10883816
0.23200001 172921.39647112 6647.96340174
0.23300001 170366.09138297 7773.80511746
0.23400001 167851.11053654 6508.42711887
0.23500001 165377.37555098 7025.23124567
0.23600001 162944.19865968 6371.93318996
0.23700001 160550.66463297 6877.99079819
0.23800001 158196.01738706 6238.46024073
0.23900001 155879.70446864 8417.50443945
0.24000001 153600.53960902 7218.45770036
0.24100001 151359.71034613 7142.66506909
0.24200001 149155.11371796 5980.37456741
0.24300001 146985.69857763 5379.67682242
0.24400001 144851.35975247 6920.27403953
0.24500001 142751.34429231 8428.03976570
0.24600001 140685.36355001 6254.87155932
0.24700001 138653.48091861 6189.49168101
0.24800001 136653.75401202 7145.62513532
0.24900001 134684.98551206 8081.09951302
0.25000001 132749.25221718 4998.00958242
0.25100001 130843.51616429 6924.23920299
0.25200001 128970.16116855 5873.30141748
0.25300001 127124.63243248 5327.79359731
0.25400001 125309.84227672 6710.34237139
0.25500001 123521.82573839 6166.20983260
0.25600001 121763.75506056 5163.39227764
0.25700001 120032.20149198 6038.82034278
0.25800001 118327.80575583 5976.14611245
0.25900001 116651.09538851 4549.39293541
0.26000001 114999.34643540 6303.11447636
0.26100001 113373.09345431 5346.67534029
0.26200001 111773.03222044 4850.39096271
0.26300001 110196.32657463 5236.52968661
0.26400001 108644.56587829 5614.20820742
0.26500001 107116.56483778 5128.74136712
0.26600001 105611.19332030 5921.61988968
0.26700001 104129.20836580 5441.79268670
0.26800001 102669.70103311 4556.99489600
0.26900001 101231.20942620 4509.85059335
0.27000001 99814.98224148  4057.47922012
0.27100001 98419.38158159  4818.61315027
0.27200001 97045.13043282  5166.19776307
0.27300001 95691.22822621  3932.90966622
0.27400001 94355.54798724  4670.59984640
0.27500001 93041.54802255  4622.30432451
0.27600001 91744.64820019  4574.38837575
0.27700001 90468.35898560  4149.78382306
0.27800001 89209.27400662  4480.08995264
0.27900001 87968.80615059  4803.09704314
0.28000001 86745.69225840  5118.86354244
0.28100001 85540.25330501  5427.52932908
0.28200001 84352.43322769  4654.98924799
0.28300001 83181.14385090  4960.92365407
0.28400001 82025.73381334  3506.60028649
0.28500001 80887.13393694  3817.06403115
0.28600001 79764.25901962  3777.23666466
0.28700001 78657.78701175  4417.42152767
0.28800001 77564.89393137  4034.92597330
0.28900001 76489.25222570  3327.28262931
0.29000001 75427.30276548  3621.64211371
0.29100001 74380.75935128  3257.87741380
0.29200001 73348.04508193  3546.01140734
0.29300001 72329.97838258  3508.72741743
0.29400001 71325.11832711  4102.97762599
0.29500001 70335.15241694  4996.60946422
0.29600001 69357.59869632  3398.86928501
0.29700001 68393.67787841  3362.91730048
0.29800001 67443.25432838  4537.24514973
0.29900001 66506.14864980  4489.16524637
0.30000001 65580.57088292  3257.05920709
0.30100001 64668.94819902  3222.45384131
0.30200001 63768.57536988  3767.76645410
0.30300001 62881.46647891  4014.35301006
0.30400001 62005.93558702  2836.77168740
0.30500001 61143.02563366  3087.11151039
0.30600001 60290.62841519  3054.02192696
0.30700001 59450.75160023  3845.27479555
0.30800001 58622.24631239  3260.56949426
0.30900001 57805.39387693  3225.54113104
0.31000001 56999.84081086  3190.85123966
0.31100001 56204.63830017  3419.49035608
0.31200001 55421.73419325  3382.66570664
0.31300001 54648.68908113  3603.53472862
0.31400001 53887.92131151  3055.44528303
0.31500001 53136.51602269  3778.00646809
0.31600002 52397.11525836  2989.77953820
0.31700002 51667.34199850  3450.34526203
0.31800002 50947.85923733  2925.42621592
0.31900002 50239.48134854  2652.64474080
0.32000002 49541.61494711  3101.05753445
0.32100002 48853.32683906  4719.23159611
0.32200002 48176.33020027  2567.55763960
0.32300002 47507.81826196  3463.32011529
0.32400002 46850.54767384  2740.75716870
0.32500002 46202.58403844  2711.16775975
0.32600002 45564.89871274  2458.45422646
0.32700002 44937.14629827  2874.18001334
0.32800002 44320.06172394  2624.63417958
0.32900002 43710.68598706  2163.67905882
0.33000002 43112.38136289  2782.68878684
0.33100002 42522.69744394  2964.68260618
0.33200002 41944.10463815  3142.66218883
0.33300002 41374.17896190  2487.41575698
0.33400002 40814.39645419  2871.29292652
0.33500002 40263.70714421  2232.22002978
0.33600002 39721.96209919  2409.53433504
0.33700002 39189.64160032  2185.60641555
0.33800002 38667.49944305  1966.24243979
0.33900002 38153.71266985  1945.83943831
0.34000002 37649.45272181  1925.76959792
0.34100002 37154.52284899  2096.62982366
0.34200002 36669.35328342  2075.30214736
0.34300002 36192.47390607  2427.79126460
0.34400002 35725.55899958  2033.67754237
0.34500002 35267.26129047  2379.48223196
0.34600002 34818.64818198  1812.31072370
0.34700002 34377.72849583  1973.96926372
0.34800002 33946.86563499  2132.54220019
0.34900002 33524.28005751  2816.03965820
0.35000002 33111.03849279  2091.95551105
0.35100002 32707.19747860  1899.63411953
0.35200002 32310.74467165  2224.11021481
0.35300002 31924.22134166  2034.21148024
0.35400002 31545.77464769  2015.77509546
0.35500002 31176.47844897  2164.27123644
0.35600002 30815.45394515  1980.20116431
0.35700002 30462.97749385  1635.86196890
0.35800002 30119.24119578  1946.30545826
0.35900002 29784.64260911  2090.88201020
0.36000002 29458.21969353  1595.16267196
0.36100002 29139.58159451  1898.73522663
0.36200002 28830.79196152  1883.80403599
0.36300002 28529.04084269  2492.29712607
0.36400002 28235.99869560  1855.10520217
0.36500002 27950.47012366  1687.92897072
0.36600002 27674.13652743  1675.80741680
0.36700002 27405.21257066  2117.87492778
0.36800002 27145.30668094  1802.99135515
0.36900002 26893.06495100  2388.10428077
0.37000002 26648.16008343  1927.86123256
0.37100002 26411.26203903  1768.49818991
0.37200002 26182.82086933  1464.92889703
0.37300002 25961.87534635  1602.10740352
0.37400002 25748.43155730  1593.18427808
0.37500002 25542.83249782  1728.73898534
0.37600002 25345.06148298  1863.24228319
0.37700002 25154.41639569  1426.25547720
0.37800002 24971.27860209  1419.61725578
0.37900002 24796.33654996  1978.74775042
0.38000002 24627.85384606  1970.47467957
0.38100002 24465.99307757  1542.09161673
0.38200002 24312.52119001  1536.42984939
0.38300002 24165.20899246  1670.29932469
0.38400002 24025.34448185  1942.44919338
0.38500002 23891.74473060  1936.66491961
0.38600002 23765.95686739  2207.38217842
0.38700002 23646.01256864  1651.43759603
0.38800002 23532.73454429  1785.07566343
0.38900002 23426.07722249  1507.46814068
0.39000002 23326.38372670  1641.71096446
0.39100002 23232.17556805  1502.65718693
0.39200002 23145.04383607  2319.48067792
0.39300002 23063.37406549  1635.65456622
0.39400002 22989.06887879  1634.52287472
0.39500002 22919.29331662  1905.96852251
0.39600002 22855.82497704  1497.17088605
0.39700002 22797.53121222  1361.01267785
0.39800002 22746.09825330  1769.76025845
0.39900002 22699.10025316  1634.33529566
0.40000002 22658.07034156  1908.03619386
0.40100002 22621.90131283  2046.15107069
0.40200002 22591.56625942  1365.66024509
0.40300002 22566.01625728  1914.50090998
0.40400002 22545.51176615  1369.63990469
0.40500002 22529.56531481  1646.46071122
0.40600002 22519.29003501  2199.68435484
0.40700002 22513.13537915  1791.14513563
0.40800002 22511.33283828  1657.28440208
0.40900002 22513.78621127  2353.81645992
0.41000002 22521.30316948  1666.12608742
0.41100002 22532.60152420  1671.01780821
0.41200002 22547.24786136  1676.16248543
0.41300002 22567.29544492  2382.42949301
0.41400002 22590.31154180  1687.49635213
0.41500002 22616.97900795  2258.07929115
0.41600002 22646.53132076  1841.50278160
0.41700002 22680.82902329  1422.08804714
0.41800002 22719.11052923  1713.47539731
0.41900002 22758.56316479  2150.68432098
0.42000002 22801.95221823  2735.89236654
0.42100002 22849.13291633  1590.98520035
0.42200002 22898.56085953  1888.78788200
0.42300002 22950.68398091  1751.59628442
0.42400002 23005.26887278  1613.24455615
0.42500002 23063.01278912  2063.21722188
0.42600002 23121.87407648  1629.05171525
0.42700002 23184.17568169  1786.10897915
0.42800002 23247.97319485  2244.01071897
0.42900002 23314.73421645  1654.18047104
0.43000002 23383.28804539  1965.24853690
0.43100002 23452.02371495  1975.59857137
0.43200002 23523.92636497  2750.18236165
0.43300002 23596.58792190  1689.75174116
0.43400002 23671.25407525  2162.36916225
0.43500002 23746.74467942  2329.55576345
0.43600002 23824.22075835  2186.34884260
0.43700002 23901.93958483  1884.42900617
0.43800002 23980.37335677  1579.10766038
0.43900002 24060.71598063  2064.40952897
0.44000002 24141.03373172  2235.70123984
0.44100002 24222.46941487  2408.92469747
0.44200002 24304.29786887  1776.52273691
0.44300002 24386.64393576  1786.56561940
0.44400002 24469.22791597  2286.64945711
0.44500002 24551.48394869  2463.74153101
0.44600002 24633.79992073  2312.37490815
0.44700002 24717.28688580  2491.50263616
0.44800002 24799.35805618  1837.26052866
0.44900002 24882.11614454  1847.49721129
0.45000002 24964.71756216  1857.74954543
0.45100002 25046.06257503  2207.56005998
0.45200002 25127.46456678  2048.89355788
0.45300002 25207.82204971  1888.31803924
0.45400002 25287.80922642  1898.48236765
0.45500002 25367.38462090  1735.12919030
0.45600002 25445.61559731  2093.15643824
0.45700002 25523.22329986  2104.13462856
0.45800002 25599.52640204  1938.78022395
0.45900002 25674.51808109  2303.00438102
0.46000002 25748.97507926  2670.81256668
0.46100002 25821.26322237  1968.35498873
0.46200002 25892.90467368  2337.74100926
0.46300002 25963.12350735  2349.14352628
0.46400002 26031.14380737  2178.80683994
0.46500002 26098.79975879  2736.45928440
0.46600002 26163.73840217  2016.04695813
0.46700002 26226.94199811  2393.47084019
0.46800002 26289.32432417  2589.23567541
0.46900002 26348.93553009  3343.68007725
0.47000002 26406.93817284  2798.47540551
0.47100002 26463.18555438  2435.67171387
0.47200002 26517.51440247  2445.84305684
0.47300002 26569.62558145  1889.10046838
0.47400002 26619.19297869  2655.26462548
0.47500002 26666.93101837  1904.01896496
0.47600002 26713.11634061  2866.98534714
0.47700002 26756.02404858  2685.76982130
