# SAXS profile: number of points = 501, q_min = 0, q_max = 0.5, delta_q = 0.001
#    q    intensity    error
0.00000000 1700912.83420644 357.19169518
0.00100000 1700830.40420834 561.27404672
0.00200000 1700583.06113706 841.78864192
0.00300000 1700171.02571779 1326.13344730
0.00400000 1699594.13668175 1657.10434623
0.00500000 1698852.96214220 1834.76127174
0.00600000 1697947.37654757 1961.12929975
0.00700000 1696877.95378484 2443.50435500
0.00800000 1695644.47910451 3891.50424384
0.00900000 1694248.22013141 2795.50968272
0.01000000 1692688.54778295 3910.11071422
0.01100000 1690966.73472729 4565.61038255
0.01200000 1689082.73941152 3293.71148626
0.01300000 1687037.67605080 4605.61305875
0.01400000 1684831.54817904 4169.95826660
0.01500000 1682465.89756389 5653.08566754
0.01600000 1679939.93287031 5140.61642439
0.01700000 1677256.12662457 4981.45091954
0.01800000 1674414.28095821 4772.08091546
0.01900000 1671415.11091785 7521.36833851
0.02000000 1668259.80779860 7882.52794842
0.02100000 1664950.39889677 5494.33656546
0.02200000 1661485.34623575 6878.54964592
0.02300000 1657867.94814890 8355.65483901
0.02400000 1654097.65528874 6823.15313919
0.02500000 1650177.32330465 8366.39941125
0.02600000 1646106.56008897 7333.40506061
0.02700000 1641887.63835961 7585.52123665
0.02800000 1637520.34959911 10684.82077114
0.02900000 1633007.64578999 10287.94864084
0.03000000 1628350.25066266 8329.01191498
0.03100000 1623548.71745310 8572.33762259
0.03200000 1618604.81370936 9614.51303626
0.03300000 1613522.06021493 13166.34061833
0.03400000 1608298.50990081 9287.92432323
0.03500000 1602937.56194318 11252.62220447
0.03600000 1597440.59227395 8865.79569684
0.03700000 1591809.15094734 9980.64383802
0.03800000 1586044.91934389 10206.19952832
0.03900000 1580149.75725378 10428.98888084
0.04000000 1574123.70296642 15489.37795495
0.04100000 1567970.94336004 10866.03914131
0.04200000 1561691.93552497 12087.49614174
0.04300000 1555287.92710605 13344.37103399
0.04400000 1548762.06912398 14635.80223294
0.04500000 1542115.96547264 17024.96104988
0.04600000 1535349.54148013 16236.32215593
0.04700000 1528467.29299356 17607.94403419
0.04800000 1521469.52827071 14537.64201904
0.04900000 1514359.78964597 15900.77853142
0.05000000 1507137.69426499 12682.56428782
0.05100000 1499808.10397011 12868.35413152
0.05200000 1492369.08454043 18982.93563998
0.05300000 1484827.13555547 14432.52043041
0.05400000 1477181.42991921 13405.42210166
0.05500000 1469435.02298056 12343.25476884
0.05600000 1461589.14315035 14995.90530849
0.05700000 1453648.61695373 13911.41791361
0.05800000 1445612.22766981 14073.03569347
0.05900000 1437482.92706562 14231.08164262
0.06000000 1429264.50457091 14385.54791058
0.06100000 1420958.37145508 14536.40481929
0.06200000 1412566.25744512 14683.62693251
0.06300000 1404091.74758289 16175.13768843
0.06400000 1395533.64445857 20409.68050470
0.06500000 1386897.71392275 16476.34561213
0.06600000 1378185.22239550 19391.06698638
0.06700000 1369397.81832016 15364.64424060
0.06800000 1360538.29351100 14081.57199698
0.06900000 1351609.62720699 21287.85262518
0.07000000 1342612.27159201 15728.70349825
0.07100000 1333549.64181622 21603.50520928
0.07200000 1324423.92191445 15952.68688679
0.07300000 1315237.92074152 16059.05576471
0.07400000 1305994.01144055 20569.40664416
0.07500000 1296693.70899464 28086.38705330
0.07600000 1287337.76716689 17842.50228940
0.07700000 1277932.47360155 16446.99170643
0.07800000 1268477.44484554 15031.45842634
0.07900000 1258974.50946782 16618.46430444
0.08000000 1249428.45260676 19734.72333470
0.08100000 1239839.69805086 15250.02900153
0.08200000 1230210.51797473 16847.73383425
0.08300000 1220543.57158384 21530.38961320
0.08400000 1210841.44253982 21613.52076385
0.08500000 1201105.61731953 17043.68950988
0.08600000 1191339.26681572 23320.46724285
0.08700000 1181545.24340960 15596.39794538
0.08800000 1171723.15788234 25028.00782778
0.08900000 1161878.35211885 28233.64528261
0.09000000 1152011.14450478 23587.42929177
0.09100000 1142123.72104767 18913.56970913
0.09200000 1132218.43542965 20532.78229128
0.09300000 1122299.84202184 17406.87136775
0.09400000 1112365.42566852 19021.44967289
0.09500000 1102420.41715741 17462.34022855
0.09600000 1092466.30902018 17484.92409780
0.09700000 1082507.72757456 15912.86434345
0.09800000 1072543.46854679 20705.45263382
0.09900000 1062577.53519585 19126.39653290
0.10000000 1052609.83162856 19136.44763894
0.10100000 1042643.36890462 15952.44429451
0.10200000 1032680.82467315 28718.85508499
0.10300000 1022723.40599322 19145.38306081
0.10400000 1012774.80278021 23926.80584132
0.10500000 1002836.53846746 20728.63222539
0.10600001 992906.64939082 17529.76771983
0.10700001 982992.90202449 15924.48576217
0.10800001 973093.01490719 17501.07869674
0.10900001 963211.18978029 19071.58245527
0.11000001 953347.95314470 19047.89300041
0.11100001 943505.69540642 17435.98607188
0.11200001 933685.69911684 18991.16801409
0.11300001 923890.16355350 17378.37479463
0.11400001 914120.86026076 20499.16125654
0.11500001 904380.21223976 15736.21643396
0.11600001 894668.34830870 23552.14537833
0.11700001 884988.87271033 18797.16454162
0.11800001 875340.25962947 23437.23655543
0.11900001 865725.97495369 20257.98876810
0.12000001 856147.00471801 23308.60330140
0.12100001 846608.22077195 18591.51740396
0.12200001 837106.95768348 15444.62409688
0.12300001 827647.33238888 20012.51344004
0.12400001 818227.81635703 16875.94950752
0.12500001 808851.61065262 18344.75539402
0.12600001 799521.75572477 16753.97918072
0.12700001 790237.16941944 18207.06524146
0.12800001 780999.43993760 22668.50981254
0.12900001 771811.13431480 15050.31782849
0.13000001 762673.04577648 17983.83126708
0.13100001 753584.62766291 22381.46449660
0.13200001 744549.80748982 16339.14629560
0.13300001 735568.49646344 14784.92747592
0.13400001 726640.92328348 22071.71908532
0.13500001 717769.93042434 16106.75799813
0.13600001 708955.27946559 18939.74118395
0.13700001 700198.93143596 15943.53042059
0.13800001 691499.32089438 20184.86612874
0.13900001 682861.97742511 20076.14308305
0.14000001 674283.46975638 22817.75369265
0.14100001 665768.01373933 14180.85936146
0.14200001 657314.15399845 14099.38926827
0.14300001 648925.09843815 18221.81762362
0.14400001 640596.58458405 15326.27400911
0.14500001 632336.14132652 15232.97836313
0.14600001 624139.83690122 13762.28405290
0.14700001 616011.40632298 25983.36234451
0.14800001 607947.60243394 16305.15546653
0.14900001 599952.17721773 13498.92462429
0.15000001 592024.47526740 13409.35499750
0.15100001 584166.18620123 17314.68657600
0.15200001 576377.67064628 14550.65498207
0.15300001 568658.93952991 19704.03318453
0.15400001 561008.37864351 15652.13450279
0.15500001 553430.24460121 18130.37566876
0.15600001 545921.59858323 16713.39052941
0.15700001 538487.50520125 14038.36992316
0.15800001 531121.54085941 12667.24934737
0.15900001 523830.34002115 12571.92875391
0.16000001 516609.06508330 14971.33141280
0.16100001 509462.76378942 16093.92946781
0.16200001 502388.86473110 17196.77165154
0.16300001 495387.77687512 12186.53988643
0.16400001 488460.41850249 19343.03348588
0.16500001 481605.86438619 16788.78122512
0.16600001 474825.99742363 15462.70933614
0.16700001 468118.05056821 21233.83577632
0.16800001 461484.24051857 11698.62604951
0.16900001 454926.05987210 12760.67658195
0.17000001 448439.79106452 12652.72930234
0.17100001 442028.04263413 18246.91846158
0.17200001 435689.32699818 14697.98014036
0.17300001 429425.07720813 11207.99504442
0.17400001 423234.69643660 11109.91130614
0.17500001 417116.84438938 14315.45077553
0.17600001 411071.33155707 14188.12767878
0.17700001 405101.84410854 11897.84172341
0.17800001 399203.49337607 11790.47573375
0.17900001 393377.61946689 11683.31585001
0.18000001 387626.05526574 12628.85747708
0.18100001 381947.00019706 10427.15359792
0.18200001 376337.79080901 10330.47284570
0.18300001 370801.52755875 14327.77170170
0.18400001 365336.32577385 13179.50857490
0.18500001 359943.07580571 12050.89474728
0.18600001 354620.82126247 12931.24885825
0.18700001 349368.09678269 10837.39887421
0.18800001 344184.18283876 11709.14645339
0.18900001 339073.54489934 13529.03508070
0.19000001 334028.30108662 14354.86691745
0.19100001 329054.57007605 11372.12647916
0.19200001 324147.45665918 13137.69703917
0.19300001 319310.65397602 12079.52261070
0.19400001 314539.18154913 11040.32579407
0.19500001 309835.88464852 10931.01052695
0.19600001 305197.62042646 9920.44912077
0.19700001 300627.44158887 14285.81669942
0.19800001 296121.21828381 12374.90629690
0.19900001 291680.45452104 9625.45545409
0.20000001 287302.87507784 11260.83672088
0.20100001 282990.64251063 11147.00193533
0.20200001 278740.25453416 10185.16938206
0.20300001 274553.33608105 10081.59897740
0.20400001 270428.61039779 11641.95222789
0.20500001 266364.44295458 8230.66167633
0.20600001 262361.19620437 8960.94707993
0.20700001 258418.46522714 8868.92214582
0.20800001 254534.77883881 9575.59883256
0.20900001 250712.51860293 10266.67812211
0.21000001 246945.61982034 11723.74385518
0.21100001 243237.87694233 10828.95079339
0.21200001 239586.11071599 8420.25425918
0.21300001 235990.68327371 9090.36154945
0.21400001 232451.35346608 9745.52345480
0.21500001 228968.03873768 9644.13424758
0.21600001 225537.67432227 11746.00263404
0.21700001 222161.54327560 7991.15108944
0.21800001 218838.56848691 7907.73204616
0.21900001 215566.98470757 9959.19516438
0.22000001 212346.69256398 7743.22251046
0.22100001 209178.77617795 11145.04572174
0.22200001 206061.01569715 8271.28956119
0.22300001 202992.08146277 9548.74796353
0.22400001 199971.41111765 9448.64962210
0.22500001 197001.25794458 8014.01155215
0.22600001 194076.67581606 8590.80446124
0.22700001 191200.00501078 6539.04048059
0.22800001 188368.74823342 7764.56016937
0.22900001 185582.62410112 7042.86091770
0.23000001 182842.00990246 6335.47594274
0.23100001 180146.54494017 7522.92007248
0.23200001 177492.71200609 9925.39292479
0.23300001 174882.97102214 11049.10663174
0.23400001 172313.76731558 7896.27876069
0.23500001 169786.58159010 8414.62338158
0.23600001 167300.40073176 7137.03543278
0.23700001 164854.01827530 5885.28873079
0.23800001 162447.23077338 6406.10684855
0.23900001 160079.24967105 5762.85326074
0.24000001 157748.85866601 7413.40796367
0.24100001 155457.22478613 6207.40727933
0.24200001 153202.25868525 6701.06711187
0.24300001 150983.06457308 6631.17650972
0.24400001 148799.24305079 7108.88417303
0.24500001 146650.19152636 6493.67078797
0.24600001 144535.71406588 6426.05815135
0.24700001 142455.98737934 6359.23557744
0.24800001 140408.72638907 6293.11941446
0.24900001 138392.73981270 5708.70078734
0.25000001 136410.41898596 5649.43776957
0.25100001 134458.49105380 6607.29056297
0.25200001 132539.52368298 8047.80025877
0.25300001 130648.65724404 6968.79970709
0.25400001 128789.16874657 7389.27890643
0.25500001 126956.73224561 7312.70812333
0.25600001 125154.90723142 5789.66628245
0.25700001 123379.98228319 5252.28609430
0.25800001 121632.56757608 6143.05311608
0.25900001 119913.50402099 7014.94031714
0.26000001 118219.63463541 5553.95869796
0.26100001 116551.96427263 4580.49241265
0.26200001 114910.60325596 4533.22351295
0.26300001 113293.33006945 8524.19055777
0.26400001 111701.36499164 5772.16830907
0.26500001 110133.59171053 4394.33051718
0.26600001 108588.96144678 6088.58335643
0.26700001 107068.06349596 4304.13635621
0.26800001 105570.17144439 6815.61059097
0.26900001 104093.71627317 5480.53442113
0.27000001 102639.92536262 5006.77579612
0.27100001 101207.30985872 6193.88765647
0.27200001 99796.46376071  5312.66499972
0.27300001 98406.30366522  5662.29898086
0.27400001 97034.82846239  4803.22423620
0.27500001 95685.52938273  4357.51921431
0.27600001 94353.82152640  3920.40146996
0.27700001 93043.08670931  3879.89689940
0.27800001 91749.98766412  4991.65831511
0.27900001 90475.80804919  4559.98094149
0.28000001 89219.49395549  4512.72221785
0.28100001 87981.22145015  4093.76642783
0.28200001 86761.08449628  5524.51231677
0.28300001 85557.91280012  4738.19743513
0.28400001 84370.90915944  3606.85653728
0.28500001 83201.21988532  4283.19900243
0.28600001 82047.65487210  4238.58205131
0.28700001 80910.90182046  4543.95646131
0.28800001 79788.03816133  4150.57394161
0.28900001 78682.99567186  3764.98152111
0.29000001 77591.91090474  3725.57577844
0.29100001 76516.59876513  4691.99805837
0.29200001 75455.62326628  4311.15723939
0.29300001 74409.64190034  4594.05150839
0.29400001 73377.20786550  3246.94160175
0.29500001 72360.04544882  3212.78617001
0.29600001 71355.70812680  3814.67633704
0.29700001 70365.35407733  4088.93091900
0.29800001 69388.92311270  4979.34935828
0.29900001 68426.15061541  3695.01230815
0.30000001 67475.22207984  3351.15706324
0.30100001 66538.68959911  4521.30417230
0.30200001 65613.64107534  3280.35414086
0.30300001 64702.28510945  3540.50920880
0.30400001 63802.97064460  4670.37767229
0.30500001 62916.53034403  2887.86887951
0.30600001 62040.84577342  4285.47162468
0.30700001 61178.13064834  3391.71572372
0.30800001 60327.19483504  3635.01529688
0.30900001 59488.15398019  3042.81922015
0.31000001 58660.81865878  3010.18005199
0.31100001 57844.10932478  2977.81488902
0.31200001 57039.90545860  4552.64026973
0.31300001 56246.05126952  3973.78371033
0.31400001 55464.74137344  3406.92190017
0.31500001 54692.92594517  4147.91170007
0.31600002 53933.69345207  2821.00196958
0.31700002 53184.34512398  3805.34007380
0.31800002 52445.46738411  5771.88618625
0.31900002 51718.08741504  4220.19613289
0.32000002 51001.62120654  2701.30099511
0.32100002 50294.78961487  2915.08614411
0.32200002 49599.62563270  2403.10197569
0.32300002 48913.35588317  2852.62705018
0.32400002 48238.60370451  3292.28485873
0.32500002 47573.27132103  3489.49961663
0.32600002 46918.43704102  2991.75427959
0.32700002 46273.94689354  2504.34612447
0.32800002 45640.41876993  3829.00311402
0.32900002 45014.84835297  2673.88211878
0.33000002 44400.46947568  2645.38009663
0.33100002 43795.04368120  2180.99327860
0.33200002 43200.99188282  3236.83447010
0.33300002 42615.86058874  2989.07660324
0.33400002 42040.94532648  2535.06912324
0.33500002 41475.57241074  2299.40584334
0.33600002 40919.33546769  2068.47250585
0.33700002 40372.75499404  2456.27853016
0.33800002 39836.49095799  2835.95992560
0.33900002 39308.94414849  2205.23187116
0.34000002 38790.99309452  2579.40720798
0.34100002 38282.79264548  2160.29809129
0.34200002 37784.36753587  2721.60812250
0.34300002 37294.47127452  2116.83428979
0.34400002 36814.73589179  2286.19520715
0.34500002 36343.88237816  2263.49710171
0.34600002 35882.98951927  2614.79357011
0.34700002 35429.83689170  1849.43757334
0.34800002 34986.98293439  2014.72550770
0.34900002 34552.57737430  2176.81247768
0.35000002 34127.75301570  1976.50890952
0.35100002 33712.50058837  1780.02011537
0.35200002 33304.72786056  2292.53105086
0.35300002 32907.13428428  1922.10580458
0.35400002 32517.64574280  2424.19060494
0.35500002 32137.59270388  2402.60654434
0.35600002 31766.03482426  2041.28549449
0.35700002 31403.02940365  1854.97703473
0.35800002 31049.14074202  2340.79483141
0.35900002 30704.37507209  1989.64359891
0.36000002 30367.93046727  2795.51997158
0.36100002 30039.47389608  1794.25786080
0.36200002 29721.07554033  2265.63769576
0.36300002 29409.67155318  1926.92177144
0.36400002 29107.22489913  2868.51714968
0.36500002 28812.47984065  1898.16626181
0.36600002 28526.92055106  2355.61057608
0.36700002 28249.02403104  2027.15006049
0.36800002 27980.17413408  1703.57298285
0.36900002 27719.09299988  2461.45557499
0.37000002 27465.48884567  1834.14543200
0.37100002 27220.03811697  1670.76601876
0.37200002 26983.10826494  2264.55746841
0.37300002 26753.87992029  2101.24982848
0.37400002 26532.15568283  2089.40735900
0.37500002 26318.37280099  2523.40570370
0.37600002 26112.58864940  1476.66695808
0.37700002 25914.09108708  1910.12774451
0.37800002 25722.98507497  1608.58694787
0.37900002 25540.34425955  2183.69953764
0.38000002 25364.15953864  1739.47414356
0.38100002 25194.64645087  1588.01864103
0.38200002 25033.65631683  1582.00198589
0.38300002 24879.07238715  1433.03463739
0.38400002 24731.83393041  1428.26347714
0.38500002 24590.96769435  1566.19880665
0.38600002 24457.95570302  1703.74127499
0.38700002 24330.88014940  1840.87447931
0.38800002 24210.47418832  1977.75373014
0.38900002 24096.80149180  1550.62924946
0.39000002 23990.18289385  1829.13158140
0.39100002 23889.05237857  1826.07925033
0.39200002 23795.24161019  1683.27547125
0.39300002 23706.74987579  1681.28278084
0.39400002 23625.73805175  1819.77255965
0.39500002 23549.31257354  1678.59507977
0.39600002 23479.20306051  1538.00526935
0.39700002 23414.37676316  1537.62219489
0.39800002 23356.48453826  2236.61706535
0.39900002 23302.94431205  1957.44741495
0.40000002 23255.51536933  1818.46511046
0.40100002 23212.92634762  1819.66138260
0.40200002 23176.19278868  2101.50138068
0.40300002 23144.37894493  1542.80437357
0.40400002 23117.64544711  2247.03524392
0.40500002 23095.44920307  1406.51292311
0.40600002 23078.92689629  1972.55597529
0.40700002 23066.63987586  1694.01411275
0.40800002 23058.64691707  1556.11286093
0.40900002 23055.04943784  1417.88560761
0.41000002 23056.43407066  1421.42922781
0.41100002 23061.73951162  2280.34491096
0.41200002 23070.21812163  1572.12008839
0.41300002 23084.30374937  3010.42419460
0.41400002 23101.23959256  1725.66267933
0.41500002 23121.95699198  1587.09120313
0.41600002 23145.47063150  1737.29910792
0.41700002 23173.83550402  2324.79928792
0.41800002 23206.20244805  1604.36088227
0.41900002 23239.74321881  2196.15583824
0.42000002 23277.15254654  1910.93792886
0.42100002 23318.57685171  1623.67258312
0.42200002 23362.02004061  2223.48036273
0.42300002 23408.23314215  1488.76369839
0.42400002 23456.94878955  1644.91861181
0.42500002 23508.90568088  2403.55063071
0.42600002 23561.91472953  1810.96885193
0.42700002 23618.34930903  1516.29809749
0.42800002 23676.24075011  1980.63601381
0.42900002 23737.24901075  1531.05263375
0.43000002 23799.99935925  2000.27104094
0.43100002 23862.94507812  1700.95080577
0.43200002 23928.94871788  2020.44088074
0.43300002 23995.86960687  1874.55742252
0.43400002 24064.70230643  1570.22189990
0.43500002 24134.42556614  2367.58726023
0.43600002 24206.03400514  1904.04672507
0.43700002 24277.98059124  1914.07608052
0.43800002 24350.64514198  2565.58409374
0.43900002 24425.18217359  1934.47451982
0.44000002 24499.70021686  1782.72077076
0.44100002 24575.34161767  2118.14879441
0.44200002 24651.38488576  2129.50998427
0.44300002 24727.90931424  2140.94248989
0.44400002 24804.70854676  1821.28581136
0.44500002 24881.21829405  1997.46429931
0.44600002 24957.73730919  2175.44127565
0.44700002 25035.43673319  1850.61957102
0.44800002 25111.65540691  2029.52408617
0.44900002 25188.68606501  1870.26002896
0.45000002 25265.50468078  1880.13261992
0.45100002 25341.12622834  1889.94128368
0.45200002 25416.78081420  2590.60550726
0.45300002 25491.29267645  2603.93567031
0.45400002 25565.51463251  2268.30039327
0.45500002 25639.38723035  2455.22783754
0.45600002 25711.83198726  2115.05539951
0.45700002 25783.69500736  2479.87590334
0.45800002 25854.22871382  1958.07010444
0.45900002 25923.42330017  1788.71629249
0.46000002 25992.13520288  2875.76997514
0.46100002 26058.63128930  2167.03588072
0.46200002 26124.49204290  1995.78066421
0.46300002 26189.05658192  2551.86179429
0.46400002 26251.31718955  2197.23535290
0.46500002 26313.24235530  2758.94359171
0.46600002 26372.48783216  2216.87143224
0.46700002 26429.94184747  2226.45840676
0.46800002 26486.64132276  2795.00295806
0.46900002 26540.51175894  2058.21678446
0.47000002 26592.84364889  2066.66294213
0.47100002 26643.44117636  2452.26244210
0.47200002 26692.06749932  2461.94296249
0.47300002 26738.59338623  2471.44830383
0.47400002 26782.47821082  2289.90199556
0.47500002 26824.53098936  2298.32592410
0.47600002 26865.10685921  2114.41833557
0.47700002 26902.39362124  3086.24274251
