# SAXS profile: number of points = 501, q_min = 0, q_max = 0.5, delta_q = 0.001
#    q    intensity    error
0.00000000 1700912.83420644 255.13692513
0.00100000 1700830.38619910 612.29895357
0.00200000 1700582.98666317 994.84107870
0.00300000 1700170.85347286 1020.10254842
0.00400000 1699593.83000945 1784.57358932
0.00500000 1698852.49674858 1681.86403835
0.00600000 1697946.70160461 1961.12852019
0.00700000 1696877.03477204 2443.50303162
0.00800000 1695643.27168515 2518.03036476
0.00900000 1694246.70094930 3049.64419207
0.01000000 1692686.67034788 3072.22643934
0.01100000 1690964.48021520 3043.73619691
0.01200000 1689080.05116795 3952.44749302
0.01300000 1687034.50746687 4251.32714632
0.01400000 1684827.89462679 3790.86293096
0.01500000 1682461.68441930 4441.69904465
0.01600000 1679935.16995400 4283.83487489
0.01700000 1677250.75122619 5887.15040089
0.01800000 1674408.22457552 5726.47638573
0.01900000 1671408.39930030 8524.18322106
0.02000000 1668252.36089242 6305.99420943
0.02100000 1664942.18958769 6043.74042222
0.02200000 1661476.33198537 6878.51232693
0.02300000 1657858.11860059 7161.94739835
0.02400000 1654086.97022681 7443.39170542
0.02500000 1650165.73517397 6435.64666110
0.02600000 1646094.05949184 8000.01749504
0.02700000 1641874.14345772 9654.22040571
0.02800000 1637505.91479957 9972.41147846
0.02900000 1632992.07374760 10287.85053697
0.03000000 1628333.68381508 9843.27757111
0.03100000 1623531.09900308 9351.53956055
0.03200000 1618586.01420777 12819.20182295
0.03300000 1613502.13529746 9874.63352325
0.03400000 1608277.33170772 12665.18457157
0.03500000 1602915.13527574 10386.89055623
0.03600000 1597416.96765291 9752.23103821
0.03700000 1591784.17444518 9980.48723534
0.03800000 1586018.64282867 11133.85138793
0.03900000 1580122.15961601 11376.88007610
0.04000000 1574094.72191434 12584.88788488
0.04100000 1567940.47776500 13829.23565510
0.04200000 1561660.06967740 10072.70791672
0.04300000 1555254.55393996 11291.14858572
0.04400000 1548727.21863336 10453.90921128
0.04500000 1542079.59007153 13832.45456567
0.04600000 1535311.61583027 12988.73687373
0.04700000 1528427.82355075 11004.68084137
0.04800000 1521428.33236870 17891.99802114
0.04900000 1514316.91652407 13628.85288311
0.05000000 1507093.28568891 18446.82267583
0.05100000 1499762.06057796 11698.14461745
0.05200000 1492321.27155234 11863.95466172
0.05300000 1484777.48047011 12026.69815247
0.05400000 1477130.09529250 12186.32385446
0.05500000 1469381.91385841 22217.05557395
0.05600000 1461534.14469604 18744.17628041
0.05700000 1453591.86612065 15175.49979067
0.05800000 1445553.61970099 14072.46514487
0.05900000 1437422.47139051 16817.84370076
0.06000000 1429202.18236476 13077.20057959
0.06100000 1420894.00069628 15857.17778880
0.06200000 1412500.00062626 20022.18844478
0.06300000 1404023.47772993 14826.48861804
0.06400000 1395463.38168839 14966.34546853
0.06500000 1386825.50302628 15102.53043442
0.06600000 1378110.98139807 16620.01921329
0.06700000 1369321.53413865 16760.49636223
0.06800000 1360459.93580311 14080.76099467
0.06900000 1351529.24823936 14191.05777092
0.07000000 1342529.79012690 15727.73722784
0.07100000 1333464.98892790 14401.42255495
0.07200000 1324337.21202518 14501.49315102
0.07300000 1315149.10685506 20437.41807813
0.07400000 1305903.00539212 19098.83234891
0.07500000 1296600.56711267 22171.87073688
0.07600000 1287242.49141378 20814.71206197
0.07700000 1277835.08091915 17940.80537732
0.07800000 1268377.77206792 18036.33276464
0.07900000 1258872.70754173 16617.12051896
0.08000000 1249324.34779841 18215.14984539
0.08100000 1239733.51201376 16773.59520453
0.08200000 1230102.09175002 15314.77176094
0.08300000 1220432.94651197 18452.94701729
0.08400000 1210728.55771163 16980.46881895
0.08500000 1200990.59170130 18591.33523231
0.08600000 1191221.85949300 17099.99059589
0.08700000 1181425.60076766 18713.78239492
0.08800000 1171601.27360703 23461.31660581
0.08900000 1161754.10781583 23525.52178826
0.09000000 1151884.73535715 18867.87285148
0.09100000 1141995.06001891 18911.43908239
0.09200000 1132087.54047972 20530.40851126
0.09300000 1122166.66854741 17404.80584706
0.09400000 1112229.99454974 20604.06161737
0.09500000 1102282.76836839 22222.02165480
0.09600000 1092326.38315799 23840.02443309
0.09700000 1082365.45161461 28639.39119614
0.09800000 1072399.14170158 15925.12800303
0.09900000 1062430.82417324 17530.10942317
0.10000000 1052460.94726344 15944.78410088
0.10100000 1042492.19435634 15950.13132382
0.10200000 1032527.41173576 23928.82389250
0.10300000 1022567.81285403 17547.26449401
0.10400000 1012616.86925103 17543.58808511
0.10500000 1002676.53651601 22319.58075297
0.10600001 992744.37245297 17526.90272036
0.10700001 982828.50236503 17514.00473631
0.10800001 972926.50141287 17498.08395140
0.10900001 963042.60889252 23835.30569191
0.11000001 953177.08308942 23805.59877068
0.11100001 943332.77312954 28526.38440227
0.11200001 933510.60514739 18987.60660258
0.11300001 923712.96923079 17375.04176926
0.11400001 913941.57550893 15765.49291984
0.11500001 904198.83416555 17306.36650085
0.11600001 894484.97122899 23547.31797648
0.11700001 884803.38663941 20359.32688539
0.11800001 875152.83513174 20307.92249570
0.11900001 865536.64024588 17137.62628408
0.12000001 855955.59276461 18642.71368858
0.12100001 846414.91774396 18587.27246927
0.12200001 836911.60172854 18529.22373521
0.12300001 827450.08860052 18468.68684770
0.12400001 818028.71517926 16871.84304553
0.12500001 808650.71096083 16811.84907306
0.12600001 799318.95807760 19795.13492961
0.12700001 790032.60671969 18202.35211663
0.12800001 780793.06971373 21151.68525541
0.12900001 771603.07186076 21064.76485463
0.13000001 762463.08825495 16480.64042944
0.13100001 753373.10669026 19391.82468029
0.13200001 744336.63801471 16334.46829124
0.13300001 735353.59609794 19214.79037188
0.13400001 726424.38724072 20594.13234920
0.13500001 717551.81009752 17565.66913938
0.13600001 708735.73611603 17477.42407669
0.13700001 699977.80042299 20285.35761278
0.13800001 691276.79276834 15854.43398977
0.13900001 682637.93593410 24370.17546210
0.14000001 674058.05242966 19958.85987371
0.14100001 665541.31778478 22681.64917984
0.14200001 657086.18289604 23960.64878942
0.14300001 648695.58862663 18215.37298781
0.14400001 640365.81195605 22284.73130724
0.14500001 632104.12821505 16611.69727310
0.14600001 623906.65598018 15132.85665468
0.14700001 615777.08562650 20505.37791873
0.14800001 607712.32946234 16298.84544514
0.14900001 599715.73871517 16192.32570928
0.15000001 591787.03243744 18765.56768401
0.15100001 583927.65551805 14644.90629141
0.15200001 576138.32182051 17189.08764262
0.15300001 568418.63784019 13130.47115372
0.15400001 560767.14803678 13037.83680712
0.15500001 553188.38289360 15533.53052473
0.15600001 545678.89396017 14135.81241518
0.15700001 538243.98215128 14032.02127695
0.15800001 530877.43566799 20258.28390126
0.15900001 523585.46517937 13822.65693317
0.16000001 516363.67670192 14964.22005717
0.16100001 509216.79890681 19798.35007606
0.16200001 502142.35959372 18416.07190745
0.16300001 495140.85407506 14616.55870231
0.16400001 488213.26575473 20541.57412639
0.16500001 481358.29986292 14382.98667894
0.16600001 474577.98268113 11888.17902744
0.16700001 467869.84345162 17685.48091749
0.16800001 461235.89985782 12861.56367481
0.16900001 454677.39836790 12753.70162642
0.17000001 448191.05156972 12645.71111717
0.17100001 441779.35307597 12537.69863234
0.17200001 435440.61981029 13559.62154122
0.17300001 429176.38010952 14561.95526480
0.17400001 422986.13209349 13324.06379019
0.17500001 416868.40653380 13206.39174270
0.17600001 410823.08072954 14179.55930107
0.17700001 404853.96109100 10809.60127167
0.17800001 398955.89906481 13925.55631459
0.17900001 393130.30460627 10614.51872573
0.18000001 387379.12985548 11569.07825960
0.18100001 381700.60022092 17714.72569303
0.18200001 376091.90239525 12388.46785010
0.18300001 370556.11133959 11250.08407172
0.18400001 365091.56093125 12157.54955334
0.18500001 359699.00579302 11039.16300930
0.18600001 354377.53767939 13916.40656213
0.18700001 349125.45214658 12798.93968038
0.18800001 343942.40027834 10725.84425943
0.18900001 338832.81852067 11588.08294091
0.19000001 333788.37748899 14344.55620035
0.19100001 328815.65333738 15151.82602171
0.19200001 323909.55263754 10314.90019114
0.19300001 319073.76056142 12070.56093240
0.19400001 314303.53561547 10112.71673629
0.19500001 309601.38459877 11832.96547853
0.19600001 304964.39356911 9912.86808141
0.19700001 300395.44548343 11598.26869822
0.19800001 295890.71141608 11482.03959913
0.19900001 291451.39990427 10492.25089242
0.20000001 287075.23141129 9520.85049972
0.20100001 282764.49682321 10281.31759041
0.20200001 278515.62333102 9328.88124439
0.20300001 274330.32635701 9233.95922162
0.20400001 270207.20853147 9139.75926057
0.20500001 266144.89896923 12335.81665030
0.20600001 262143.39255177 8139.55272347
0.20700001 258202.41348281 8055.91568146
0.20800001 254320.64539063 11959.42891482
0.20900001 250500.32998419 11836.14115126
0.21000001 246735.28670534 10151.92385140
0.21100001 243029.62391132 9274.01088687
0.21200001 239379.98613055 7648.19091844
0.21300001 235786.62541733 7568.75103371
0.21400001 232249.55945762 10486.06810526
0.21500001 228768.32080952 7412.09394465
0.21600001 225340.20187340 11735.71826841
0.21700001 221966.42170610 10161.62326614
0.21800001 218645.79529764 8619.01765814
0.21900001 215376.52183491 8528.91066792
0.22000001 212158.79235516 7736.37072903
0.22100001 208993.38689612 8351.37613525
0.22200001 205878.05293978 8952.60755541
0.22300001 202811.67288014 8177.36703720
0.22400001 199793.64913073 10114.55396552
0.22500001 196826.21949674 8006.89098775
0.22600001 193904.24630757 8583.17186869
0.22700001 191030.34807487 8493.20967705
0.22800001 188201.82660763 8404.15296460
0.22900001 185418.61412089 7036.63673866
0.23000001 182680.75681154 8228.85507973
0.23100001 179988.19407703 6263.58945010
0.23200001 177337.27607407 6817.73190110
0.23300001 174730.46083862 7972.95130514
0.23400001 172164.34018875 9103.18991802
0.23500001 169640.11856849 6605.78652949
0.23600001 167157.04744355 7130.91998121
0.23700001 164713.74942524 7644.36547239
0.23800001 162310.09267370 8146.34393660
0.23900001 159945.22586120 6909.63408403
0.24000001 157618.06053039 6837.47178922
0.24100001 155329.60510336 7330.00441155
0.24200001 153077.86661683 5579.68850211
0.24300001 150862.01890906 6073.70516858
0.24400001 148681.49276557 8742.47218817
0.24500001 146535.79014779 6488.60509468
0.24600001 144424.62214246 5350.93250350
0.24700001 142348.24340526 6354.42588621
0.24800001 140304.42440687 7860.55574925
0.24900001 138291.93796607 8297.51667050
0.25000001 136312.92677955 5645.40012965
0.25100001 134364.56320400 6602.67494821
0.25200001 132449.04927879 6031.72998952
0.25300001 130561.67445515 5471.84003529
0.25400001 128705.64913367 5415.29044350
0.25500001 126876.84325389 5359.27811260
0.25600001 125078.44491671 4821.77427967
0.25700001 123307.15662020 6680.78206177
0.25800001 121563.28720771 6139.55411091
0.25900001 119847.84873535 5141.47295401
0.26000001 118157.57311265 5551.04304748
0.26100001 116493.52016136 5493.83467076
0.26200001 114855.84696249 5437.27605248
0.26300001 113242.13008267 4932.82741981
0.26400001 111653.82257440 5769.71155454
0.26500001 110089.61206846 5271.09087526
0.26600001 108548.76103027 5216.85370197
0.26700001 107031.36197336 5593.45924141
0.26800001 105537.10802079 5110.10701218
0.26900001 104064.34331337 4214.60610363
0.27000001 102614.18859656 5005.52035661
0.27100001 101185.27455463 5366.86721635
0.27200001 99778.09614841  5311.68719983
0.27300001 98391.54535523  4852.67124657
0.27400001 97023.75095964  5202.89889144
0.27500001 95678.08129352  4357.18002831
0.27600001 94349.91820225  3920.23928683
0.27700001 93042.80808896  5431.83939330
0.27800001 91753.32026007  4991.83962500
0.27900001 90482.76018841  5320.38655088
0.28000001 89230.02046138  4137.15009450
0.28100001 87995.32375967  4094.42260832
0.28200001 86778.77308340  4052.13500092
0.28300001 85579.09707599  3645.66970799
0.28400001 84395.64325911  4329.49670411
0.28500001 83229.51105578  4284.65543195
0.28600001 82079.49686549  5653.63601169
0.28700001 80946.15888053  3846.56165207
0.28800001 79826.76866652  3460.49058549
0.28900001 78725.14966184  3766.99858962
0.29000001 77637.53859755  4744.43020827
0.29100001 76565.54675489  4024.28532793
0.29200001 75508.01556717  3318.57744126
0.29300001 74465.36947794  3283.92294942
0.29400001 73436.23194340  3574.50875905
0.29500001 72422.42602777  4501.77821499
0.29600001 71421.34870282  4772.73185300
0.29700001 70434.20430321  3778.09089767
0.29800001 69461.03169506  4049.92564470
0.29900001 68501.35009481  4623.84135029
0.30000001 67553.60515417  3050.04541710
0.30100001 66620.25100440  4828.63602139
0.30200001 65698.23143152  3881.78018790
0.30300001 64789.89474697  2954.41934033
0.30400001 63893.59980318  5846.26465876
0.30500001 63010.18216301  3181.38424802
0.30600001 62137.40264282  4005.99853804
0.30700001 61277.57278413  3397.22879599
0.30800001 60429.53735888  3641.18194595
0.30900001 59593.30157907  3048.19752008
0.31000001 58768.72972440  2741.56137144
0.31100001 57954.82312759  3525.97160602
0.31200001 57153.28438707  3488.35087772
0.31300001 56362.08679632  2920.11985517
0.31400001 55583.32899432  3676.83738706
0.31500001 54814.12146009  3377.64632429
0.31600002 54057.37953539  3598.59992606
0.31700002 53310.52819500  3814.36847296
0.31800002 52574.09177874  4025.07265716
0.31900002 51849.06854685  2986.50648971
0.32000002 51134.94037024  2954.57699449
0.32100002 50430.40522796  2435.78868785
0.32200002 49737.45187763  2650.75762333
0.32300002 49053.36222505  2622.39286872
0.32400002 48380.71210235  3066.12777467
0.32500002 47717.48764932  3033.40083350
0.32600002 47064.63924420  2539.37273067
0.32700002 46422.15346062  3425.95508762
0.32800002 45790.46954571  2711.71173490
0.32900002 45166.80425988  2906.48399176
0.33000002 44554.24556227  2433.33023661
0.33100002 43950.59396663  2407.61365150
0.33200002 43358.23619880  2815.46720090
0.33300002 42774.75039872  2571.61811575
0.33400002 42201.38371096  2968.86748466
0.33500002 41637.63243018  2937.95148340
0.33600002 41082.85265312  2284.41212996
0.33700002 40537.64524200  2260.78458221
0.33800002 40002.79095109  2440.97041943
0.33900002 39476.54665697  3019.95596228
0.34000002 38959.85170231  2590.63546163
0.34100002 38452.78909108  2367.15380855
0.34200002 37955.50093515  3124.49698495
0.34300002 37466.72800878  2126.61158249
0.34400002 36988.00541767  2296.95524522
0.34500002 36518.07780860  2274.34599363
0.34600002 36058.10261262  2627.55406182
0.34700002 35605.80689335  3159.65945336
0.34800002 35163.71603507  2024.90268378
0.34900002 34729.99099801  2005.65707513
0.35000002 34305.84866749  1806.20301789
0.35100002 33891.17445568  1968.39950561
0.35200002 33483.95170675  2482.16545758
0.35300002 33086.85270748  2283.98555057
0.35400002 32697.78652477  1741.15721491
0.35500002 32318.09137124  2416.10062535
0.35600002 31946.85343632  2052.90489905
0.35700002 31584.06502587  2035.27724667
0.35800002 31230.38459044  2186.28317681
0.35900002 30885.71588250  2334.96023131
0.36000002 30549.32464308  1819.67060856
0.36100002 30220.88011060  1805.09325451
0.36200002 29902.46570533  1791.00826825
0.36300002 29590.94529413  1615.66568959
0.36400002 29288.29610568  1924.24114529
0.36500002 28993.36111507  1750.90916068
0.36600002 28707.49341500  1896.41710482
0.36700002 28429.27578108  1883.15531694
0.36800002 28160.03183024  1714.52361920
0.36900002 27898.53865561  1858.04276248
0.37000002 27644.44304732  2307.61999269
0.37100002 27398.37151798  1681.71212344
0.37200002 27160.85485873  1975.54487173
0.37300002 26930.92442139  1510.82493161
0.37400002 26708.51985298  1802.82517548
0.37500002 26493.97608399  2091.96445069
0.37600002 26287.27850929  1635.20023713
0.37700002 26087.96614532  2218.78162577
0.37800002 25895.90280768  1766.61857323
0.37900002 25712.25524751  2051.83806595
0.38000002 25535.05967662  1605.26160262
0.38100002 25364.50223870  2034.74046598
0.38200002 25202.34101578  1882.23692793
0.38300002 25046.57937294  1442.68304023
0.38400002 24898.06640216  2013.00876398
0.38500002 24755.96497668  1576.70748406
0.38600002 24621.64348482  1715.14376641
0.38700002 24493.18102191  1853.15416391
0.38800002 24371.32682761  1848.68708409
0.38900002 24256.20871801  2554.17889901
0.39000002 24148.11929923  1416.28726400
0.39100002 24045.48012380  2120.81144740
0.39200002 23950.03271508  2117.78174316
0.39300002 23859.90331630  2256.19256448
0.39400002 23777.24679055  1408.80193909
0.39500002 23699.08276292  1970.81581594
0.39600002 23627.24810102  1688.40322929
0.39700002 23560.61826081  1828.53966985
0.39800002 23500.88823282  2109.79234106
0.39900002 23445.52534072  1969.42422193
0.40000002 23396.15312388  1688.73441249
0.40100002 23351.65498498  1830.53632100
0.40200002 23312.98072023  1972.97765183
0.40300002 23279.16348744  1975.00432385
0.40400002 23250.41878442  1836.20191050
0.40500002 23226.13876726  1838.81349333
0.40600002 23207.50545346  1558.50010257
0.40700002 23193.12673452  1561.36136575
0.40800002 23182.98122563  1706.73115870
0.40900002 23177.17595816  1995.55494455
0.41000002 23176.39693959  1428.82493903
0.41100002 23179.46588382  1575.74016544
0.41200002 23185.67624091  1867.25852454
0.41300002 23197.50267303  1872.73447953
0.41400002 23212.15816792  2167.43537163
0.41500002 23230.58125993  1449.58833931
0.41600002 23251.75251649  1890.71634547
0.41700002 23277.76888157  2481.17750265
0.41800002 23307.76055306  1757.87138421
0.41900002 23338.92413361  1617.38751910
0.42000002 23373.98069386  1623.67364584
0.42100002 23412.95157959  1778.44788626
0.42200002 23453.97843445  2232.23250327
0.42300002 23497.72288501  1793.34629556
0.42400002 23544.04548009  2101.30615867
0.42500002 23593.51371405  1507.62559777
0.42600002 23644.02425972  2120.15975584
0.42700002 23698.04938195  2586.40523211
0.42800002 23753.44017452  1834.24073720
0.42900002 23811.91633071  1843.04241133
0.43000002 23872.16044662  1543.33524601
0.43100002 23932.63832121  1550.83503670
0.43200002 23996.13614522  1558.54911649
0.43300002 24060.55538593  2036.24489881
0.43400002 24126.88967388  2203.99147615
0.43500002 24194.13929859  2531.67485618
0.43600002 24263.19027474  1749.49741767
0.43700002 24332.69303849  1918.38961007
0.43800002 24402.80108684  2089.00188604
0.43900002 24474.82450442  1938.40619261
0.44000002 24546.91080849  1786.15604962
0.44100002 24620.05662224  1795.54081455
0.44200002 24693.61807347  1804.98009862
0.44300002 24767.63952061  1979.42984429
0.44400002 24841.99092289  1824.02326995
0.44500002 24916.06247195  1833.57312421
0.44600002 24990.10694285  2513.38012489
0.44700002 25065.43820809  1684.39752741
0.44800002 25139.26405945  2370.38132050
0.44900002 25213.88204244  2723.09938964
0.45000002 25288.34038690  1710.75630825
0.45100002 25361.60012832  2579.27485529
0.45200002 25434.83826329  1728.29734190
0.45300002 25507.01723105  2258.13634248
0.45400002 25578.92232523  2094.91383772
0.45500002 25650.54129702  1929.94681865
0.45600002 25720.65190885  1939.46584910
0.45700002 25790.27903256  1771.79225351
0.45800002 25858.58589892  1780.36372352
0.45900002 25925.57557141  1788.86479921
0.46000002 25992.05727566  1977.08593038
0.46100002 26056.42968508  3069.70812669
0.46200002 26120.16553793  2358.25925736
0.46300002 26182.57577723  2186.76883256
0.46400002 26242.77238064  2196.52015236
0.46500002 26302.61654887  2022.40828230
0.46600002 26359.84531056  2031.15797667
0.46700002 26415.30487725  2410.66083735
0.46800002 26469.98411145  2420.81251165
0.46900002 26521.88299723  2243.75140791
0.47000002 26572.36477703  2440.53895862
0.47100002 26621.06031772  2450.20250777
0.47200002 26667.82811631  2838.12374180
0.47300002 26712.55765265  1899.26293912
0.47400002 26754.60880089  2478.14575764
0.47500002 26794.95344904  2104.47574364
0.47600002 26833.76623668  2111.95167176
0.47700002 26869.34590954  2504.49185094
