# SAXS profile: number of points = 501, q_min = 0, q_max = 0.5, delta_q = 0.001
#    q    intensity    error
0.00000000 1682732.95097188 403.85590823
0.00100000 1682650.95349731 706.71341725
0.00200000 1682404.90395907 984.20689998
0.00300000 1681995.01391078 1614.71527088
0.00400000 1681421.15414114 1261.06591352
0.00500000 1680683.85481888 1815.13863505
0.00600000 1679783.01493192 2469.28113248
0.00700000 1678719.19241300 2215.90942608
0.00800000 1677492.17230295 3170.46033951
0.00900000 1676103.22633063 2765.57044167
0.01000000 1674551.75326487 3039.31156341
0.01100000 1672838.98768552 3011.11030894
0.01200000 1670964.87658638 3258.38165220
0.01300000 1668930.54195181 3855.22972194
0.01400000 1666736.01053166 4500.18742793
0.01500000 1664382.81445943 5192.87461235
0.01600000 1661870.19531346 5509.09994374
0.01700000 1659200.51732657 4479.84159774
0.01800000 1656373.63862661 5664.79809901
0.01900000 1653390.32674237 5456.18832445
0.02000000 1650251.70210218 5198.29309677
0.02100000 1646959.78622964 6521.96104917
0.02200000 1643513.03977491 6237.13226931
0.02300000 1639914.91799244 8265.17156290
0.02400000 1636164.65508416 8589.86483087
0.02500000 1632265.12466464 7639.00113231
0.02600000 1628216.07523312 12529.12327198
0.02700000 1624019.68310325 8867.14787587
0.02800000 1619675.79545947 11272.94405337
0.02900000 1615187.08881766 8722.01068008
0.03000000 1610554.76742388 8237.98801403
0.03100000 1605779.06875787 8478.51387316
0.03200000 1600861.60157413 8716.69182205
0.03300000 1595806.33436563 11394.05775264
0.03400000 1590610.97523617 10020.84960635
0.03500000 1585279.08368325 10272.60893664
0.03600000 1579811.89604675 11398.34335674
0.03700000 1574210.95736233 9870.30315914
0.03800000 1568478.14276026 10093.15731577
0.03900000 1562615.17251235 11250.82976311
0.04000000 1556622.07616411 9573.22621202
0.04100000 1550502.93050358 11721.80269811
0.04200000 1544258.42865570 12948.60752500
0.04300000 1537889.58714060 11165.07892090
0.04400000 1531399.81258498 11370.64413652
0.04500000 1524790.47612381 11573.16025153
0.04600000 1518061.60920518 13913.03529514
0.04700000 1511217.65131236 10880.76759549
0.04800000 1504258.84323031 15478.82421704
0.04900000 1497188.82135757 11228.91668286
0.05000000 1490007.23298363 12538.41144942
0.05100000 1482718.94741696 12721.72916147
0.05200000 1475321.80616659 16420.33246784
0.05300000 1467822.38826741 13078.29808914
0.05400000 1460220.17836920 15660.86214334
0.05500000 1452517.80982704 14641.38020607
0.05600000 1444716.51299640 14822.79211504
0.05700000 1436821.58642706 15000.41806250
0.05800000 1428831.45072573 21496.77017990
0.05900000 1420748.95098617 17901.43761853
0.06000000 1412578.13602295 21972.65393237
0.06100000 1404320.00225174 19590.26494689
0.06200000 1395976.78893901 13191.98127211
0.06300000 1387551.79817362 14652.54767380
0.06400000 1379043.83220082 17479.38139060
0.06500000 1370458.74470880 17637.80486946
0.06600000 1361797.70413014 17791.88783692
0.06700000 1353062.34211800 15181.36018904
0.06800000 1344255.45789529 18086.95803262
0.06900000 1335380.21713374 14021.49293638
0.07000000 1326436.87139193 18364.51934440
0.07100000 1317428.71882261 15651.05391267
0.07200000 1308358.29888624 15759.17644835
0.07300000 1299228.05396869 15863.57528225
0.07400000 1290040.38792740 20318.13706205
0.07500000 1280797.01712828 14601.08667965
0.07600000 1271498.72730962 22028.71648336
0.07700000 1262151.44951958 19197.32444733
0.07800000 1252754.94801479 16329.66151317
0.07900000 1243311.32306551 19395.65754955
0.08000000 1233824.91113978 17989.16804831
0.08100000 1224296.55256517 21082.38762432
0.08200000 1214728.09505473 18148.03859172
0.08300000 1205122.59330463 18221.45446594
0.08400000 1195482.20143553 16766.63866214
0.08500000 1185808.99726872 26004.79253090
0.08600000 1176105.40988328 23022.26447940
0.08700000 1166374.54135843 18475.37360268
0.08800000 1156616.35534199 20073.07778967
0.08900000 1146835.81315349 24771.65472763
0.09000000 1137033.53438260 23280.76271011
0.09100000 1127211.39583846 18666.62159206
0.09200000 1117371.71004307 15587.33608750
0.09300000 1107519.41019504 18739.22930110
0.09400000 1097651.65282850 21898.15150309
0.09500000 1087773.72321605 17230.33658561
0.09600000 1077886.96547276 17251.58169335
0.09700000 1067995.96674242 21979.35802887
0.09800000 1058100.20818303 15712.78883030
0.09900000 1048203.05740890 23584.56990070
0.10000000 1038304.32831807 17303.34244515
0.10100000 1028407.47212376 22028.48908893
0.10200000 1018514.75247092 22030.47513218
0.10300000 1008627.70638080 23601.88943956
0.10400000 998749.43192814 17303.33472219
0.10500000 988882.29737582 18867.87512165
0.10600001 979023.69431632 20427.33034309
0.10700001 969181.45544393 18840.88838044
0.10800001 959353.67859096 23528.15007472
0.10900001 949544.30964794 15667.48184659
0.11000001 939753.45275158 18776.27486977
0.11100001 929984.07249459 18748.47978404
0.11200001 920237.41198588 18717.62984096
0.11300001 910515.24586437 23354.71715598
0.11400001 900819.75657051 20200.88399224
0.11500001 891153.02655095 24809.70142742
0.11600001 881515.62446860 20111.77991934
0.11700001 871910.54882319 16976.09918508
0.11800001 862336.89190745 18471.25709462
0.11900001 852797.95575086 23025.54588981
0.12000001 843293.97005468 15305.78627747
0.12100001 833830.68332956 19836.83289089
0.12200001 824405.20697010 15210.27678517
0.12300001 815021.35163637 16675.33764013
0.12400001 805678.20628333 30212.93415918
0.12500001 796378.23151630 22577.32392734
0.12600001 787124.94132138 16494.20392265
0.12700001 777917.07068736 25391.21438383
0.12800001 768756.23492599 16362.97723157
0.12900001 759645.01249084 20738.30981844
0.13000001 750583.96247561 19173.66822519
0.13100001 741573.17032450 20556.40925038
0.13200001 732615.62470344 16077.25064200
0.13300001 723711.89702290 26183.89766868
0.13400001 714861.95096130 21713.93278417
0.13500001 706068.74536130 17284.56370138
0.13600001 697332.25974080 18629.23219736
0.13700001 688653.90351461 19957.19106490
0.13800001 680032.51139892 18432.28209066
0.13900001 671473.14017611 16921.12393041
0.14000001 662973.01479693 14021.87992424
0.14100001 654535.93883661 16729.93938570
0.14200001 646160.65393622 20790.22002097
0.14300001 637849.75073553 20666.33289861
0.14400001 629599.68373277 20540.69065068
0.14500001 621417.67285492 19052.66674849
0.14600001 613300.08491983 20284.90126565
0.14700001 605250.16076943 18811.17588416
0.14800001 597264.89247801 14683.75807433
0.14900001 589348.07136547 19890.49834703
0.15000001 581499.05534422 13170.95422499
0.15100001 573719.05666649 17005.03364198
0.15200001 566009.21738059 18185.87701258
0.15300001 558368.85053796 15477.98526730
0.15400001 550796.91824514 15367.23474423
0.15500001 543297.36098009 12713.15884691
0.15600001 535867.06827388 20191.47208549
0.15700001 528511.09652157 15030.85629448
0.15800001 521223.57093959 16160.53757974
0.15900001 514010.60488743 22205.25917924
0.16000001 506867.29790247 14689.01498657
0.16100001 499799.15473323 15788.65604331
0.16200001 492803.19301150 19278.46182067
0.16300001 485879.99238402 16733.70772767
0.16400001 479030.53436768 17784.00942798
0.16500001 472253.63413261 15286.85085858
0.16600001 465550.91346153 13994.46111937
0.16700001 458920.68899570 15034.24248134
0.16800001 452364.24973926 13760.92112681
0.16900001 445882.86907527 12507.01506812
0.17000001 439473.40680949 23672.23617559
0.17100001 433138.64146450 13409.97297298
0.17200001 426876.75919548 16616.17863635
0.17300001 420688.84140242 15371.97099078
0.17400001 414574.90996798 10882.59190060
0.17500001 408533.18297490 14020.85950187
0.17600001 402563.67548043 11756.87269767
0.17700001 396670.07184005 10591.09141835
0.17800001 390847.21441932 11543.67302311
0.17900001 385096.85630974 12477.13873378
0.18000001 379420.18751737 13391.63615098
0.18100001 373816.19403929 13266.73735313
0.18200001 368281.87304903 10109.33789274
0.18300001 362819.87636248 11015.21196672
0.18400001 357429.21482834 11902.39341606
0.18500001 352109.92013069 10806.25395932
0.18600001 346861.48454599 16540.09067199
0.18700001 341682.43415403 11562.53411804
0.18800001 336571.82471376 9541.81168145
0.18900001 331534.43154932 9448.73174558
0.19000001 326561.80187859 9355.99606588
0.19100001 321660.67767170 9263.82795466
0.19200001 316825.88006709 15592.58642427
0.19300001 312060.96095545 10897.16927148
0.19400001 307361.19011791 11687.40980651
0.19500001 302729.26013191 9790.26473531
0.19600001 298162.21118295 10572.83250818
0.19700001 293662.73820164 8721.78373676
0.19800001 289227.14991203 11223.46008274
0.19900001 284856.54738807 11109.40587316
0.20000001 280548.88206277 8458.54919395
0.20100001 276306.15976606 10046.49244391
0.20200001 272125.13506514 8286.21075437
0.20300001 268007.03663293 11481.42199202
0.20400001 263950.94939483 8116.49207752
0.20500001 259955.21022028 9639.13965058
0.20600001 256019.70840604 9539.29478611
0.20700001 252144.67291054 9440.29700000
0.20800001 248328.26268801 10120.61882425
0.20900001 244572.90334401 8474.45150147
0.21000001 240872.50946829 8385.97681356
0.21100001 237231.05119519 7543.94778464
0.21200001 233645.05814352 11943.93593694
0.21300001 230115.09491705 9602.70336486
0.21400001 226640.87532612 7309.16857482
0.21500001 223222.30971646 10125.36444744
0.21600001 219856.14944033 10018.84520367
0.21700001 216544.05489684 7789.09002290
0.21800001 213284.64726592 7707.04109335
0.21900001 210076.42718643 9012.27915241
0.22000001 206918.91326911 8231.23475904
0.22100001 203813.59662210 8144.39170611
0.22200001 200757.61843156 7386.87691947
0.22300001 197750.25822815 7308.84988971
0.22400001 194791.01822060 7889.03661098
0.22500001 191881.70190098 8456.22700265
0.22600001 189017.51978127 8366.86090877
0.22700001 186200.91871518 7641.68606544
0.22800001 183429.39057809 9451.19979648
0.22900001 180702.37956865 8104.50210692
0.23000001 178020.52806342 6168.41158911
0.23100001 175383.36434966 6713.67550481
0.23200001 172787.52340842 7850.60149734
0.23300001 170235.25009810 7170.30907325
0.23400001 167723.43602804 7094.70167953
0.23500001 165252.78124755 7019.93847941
0.23600001 162822.83831785 6367.18739357
0.23700001 160432.45001998 6300.18261027
0.23800001 158080.99702429 8500.80601706
0.23900001 155768.02157859 8972.23846731
0.24000001 153492.13803219 8323.11157848
0.24100001 151254.56156493 5490.54084452
0.24200001 149053.34130611 7606.19236664
0.24300001 146887.29140574 6451.29014370
0.24400001 144756.42163199 5851.77862128
0.24500001 142659.80085085 5790.56159045
0.24600001 140597.33549782 6250.95783194
0.24700001 138568.84735860 6701.18977527
0.24800001 136572.69769070 6121.18860007
0.24900001 134607.39905223 6562.11101423
0.25000001 132675.19461361 5994.26557622
0.25100001 130773.05862580 6426.18840489
0.25200001 128903.20665811 5381.06461652
0.25300001 127061.30710708 4841.03602981
0.25400001 125250.13212745 5748.98133664
0.25500001 123465.81061863 6163.41355768
0.25600001 121711.32365928 5161.16892396
0.25700001 119983.39600916 4643.35764525
0.25800001 118282.68825093 5973.86745276
0.25900001 116609.69415148 5457.33394450
0.26000001 114961.62032294 4500.74764860
0.26100001 113339.02040895 5345.06845539
0.26200001 111742.76024446 5289.90252027
0.26300001 110169.67353026 4362.71927823
0.26400001 108621.69727357 4749.48393802
0.26500001 107097.37615297 5555.14116392
0.26600001 105595.78394736 5497.84475137
0.26700001 104117.43738535 5859.72965333
0.26800001 102661.62288123 4142.39667928
0.26900001 101226.92591125 5739.56697077
0.27000001 99814.43544749  5274.69409083
0.27100001 98422.62416600  5220.33623281
0.27200001 97052.17296455  5166.57267227
0.27300001 95701.83671773  4720.01481029
0.27400001 94369.99452675  5839.14368768
0.27500001 93059.65619732  5779.00492335
0.27600001 91766.40223478  6863.20954795
0.27700001 90493.81333969  3773.59219486
0.27800001 89238.45796720  5228.48149975
0.27900001 88001.67966850  5544.10608151
0.28000001 86782.20234975  4023.65700238
0.28100001 85580.36016692  3982.05434703
0.28200001 84396.21101175  3940.88125971
0.28300001 83228.54248377  3545.53607762
0.28400001 82076.70931153  4561.41333588
0.28500001 80941.69643897  4861.35851822
0.28600001 79822.42764825  3779.99124020
0.28700001 78719.54360444  5101.02666701
0.28800001 77630.15320143  3701.79403063
0.28900001 76557.99729154  3996.32764778
0.29000001 75499.55638182  3295.55579206
0.29100001 74456.43184697  4565.66861697
0.29200001 73427.17705886  4195.26195984
0.29300001 72412.56065109  3512.73348346
0.29400001 71411.04235248  3475.93265105
0.29500001 70424.49358095  4690.27149451
0.29600001 69450.23773093  4022.21070859
0.29700001 68489.63596255  3367.63555970
0.29800001 67542.47997563  3635.13644437
0.29900001 66608.55977464  3896.60093128
0.30000001 65686.23146306  3262.30684005
0.30100001 64777.80436973  3227.87814455
0.30200001 63880.51250860  2903.36943096
0.30300001 62996.42284382  3447.16442121
0.30400001 62124.03886426  3126.39240385
0.30500001 61264.14947149  3655.63197203
0.30600001 60414.69847858  3338.51639598
0.30700001 59577.81494939  3302.99421717
0.30800001 58752.30195818  3812.43705456
0.30900001 57938.23507865  3502.36647632
0.31000001 57135.42902585  3198.44146830
0.31100001 56343.15889091  2636.85996094
0.31200001 55562.90751774  3913.01794720
0.31300001 54792.57611725  3871.09568597
0.31400001 54034.49369517  3063.75593757
0.31500001 53285.59856045  4041.17998616
0.31600002 52548.78818097  2748.56449594
0.31700002 51821.49526089  2966.26252918
0.31800002 51104.54888632  2689.88805799
0.31900002 50398.61884936  2902.96058318
0.32000002 49703.10982305  2393.20485130
0.32100002 49017.09502806  3551.28870294
0.32200002 48342.38186814  2576.40736366
0.32300002 47676.04369847  2780.46700015
0.32400002 47020.92185161  3209.17806833
0.32500002 46375.17341261  2267.74608726
0.32600002 45739.48439383  2243.52181575
0.32700002 45113.71391894  2441.55431291
0.32800002 44498.59269276  2854.80734939
0.32900002 43891.08835751  3258.91346487
0.33000002 43294.61952797  2364.53575749
0.33100002 42706.73319069  2126.79541361
0.33200002 42129.90033534  2314.82748354
0.33300002 41561.60598075  2498.68386989
0.33400002 41003.42048565  2266.46417467
0.33500002 40454.29725328  2446.67601374
0.33600002 39914.07226058  2219.42209315
0.33700002 39383.23671498  3194.76831361
0.33800002 38862.42937877  3161.84740399
0.33900002 38350.00253428  2151.43524406
0.34000002 37846.97128770  2903.80900957
0.34100002 37353.22651091  2107.84267183
0.34200002 36869.22893211  2655.69068575
0.34300002 36393.48279017  1877.90380091
0.34400002 35927.60683204  2231.10448993
0.34500002 35470.23949151  2209.08662015
0.34600002 35022.52848103  2369.79950190
0.34700002 34582.52202693  2707.81160295
0.34800002 34152.37812195  2145.45249523
0.34900002 33730.47954524  2302.10533799
0.35000002 33317.98052029  2455.86846047
0.35100002 32914.73936016  1911.68815258
0.35200002 32518.84551050  1894.06024647
0.35300002 32132.80724971  2218.12778951
0.35400002 31754.79499184  1860.03720475
0.35500002 31385.85651492  2011.20578074
0.35600002 31025.08684141  2325.95087067
0.35700002 30672.83306647  1647.13121369
0.35800002 30329.37195080  2286.53145967
0.35900002 29994.88428782  2429.58574239
0.36000002 29668.49337717  1927.85879096
0.36100002 29349.84294915  1912.43585715
0.36200002 29041.07597546  1581.28666176
0.36300002 28739.15937036  2510.65308152
0.36400002 28445.97311522  1868.90052219
0.36500002 28160.22214139  1545.99626879
0.36600002 27883.58513341  1995.48886459
0.36700002 27614.37012341  1829.17596362
0.36800002 27353.97955172  1968.25569188
0.36900002 27101.31900572  2406.59724171
0.37000002 26855.91626092  1793.43817286
0.37100002 26618.45512785  2079.43381309
0.37200002 26389.34697357  2067.07764636
0.37300002 26167.74517334  1614.81163114
0.37400002 25953.51630431  1605.87389740
0.37500002 25747.13247484  1742.56600844
0.37600002 25548.52006192  1878.19954133
0.37700002 25357.04082868  1581.51871140
0.37800002 25172.93173213  2146.62185515
0.37900002 24997.04177077  1709.79773812
0.38000002 24827.44452100  1844.55507807
0.38100002 24664.50405612  1837.25899418
0.38200002 24509.84252903  1830.51767600
0.38300002 24361.39210266  1824.18112707
0.38400002 24220.25610157  2098.07978419
0.38500002 24085.36067104  2091.81367338
0.38600002 23958.28425659  1529.85631368
0.38700002 23836.86836720  1526.03638516
0.38800002 23722.17676217  1522.60798761
0.38900002 23613.99455644  1795.84437110
0.39000002 23512.81306625  1930.63717234
0.39100002 23417.00482209  2340.76391291
0.39200002 23328.25154675  2337.84083952
0.39300002 23244.92895415  1373.77536628
0.39400002 23168.96116597  1784.58931836
0.39500002 23097.49037596  2057.98649000
0.39600002 23032.16688535  2057.34840451
0.39700002 22972.08930514  1782.86393544
0.39800002 22918.79495027  1508.85893704
0.39900002 22869.90197038  1646.63301988
0.40000002 22826.93949230  2334.16880838
0.40100002 22788.80859703  1923.83131291
0.40200002 22756.48823467  1513.19275686
0.40300002 22728.89029731  1652.84498073
0.40400002 22706.41849238  1793.23948540
0.40500002 22688.29951091  2072.57625852
0.40600002 22675.93339354  1522.80237919
0.40700002 22667.59001027  1803.43354667
0.40800002 22663.68662272  1529.45896420
0.40900002 22663.91038749  1533.21361036
0.41000002 22669.13364743  1677.06258670
0.41100002 22678.22533867  1401.51439234
0.41200002 22690.53112077  2530.22124517
0.41300002 22708.28733772  2115.27706574
0.41400002 22728.94520128  1839.33997757
0.41500002 22753.38965958  1987.73621485
0.41600002 22780.44898401  1709.90058176
0.41700002 22812.41484995  1430.33847887
0.41800002 22848.22043789  1579.61179482
0.41900002 22885.33817557  2595.19747208
0.42000002 22926.26397358  1592.57300239
0.42100002 22970.95922772  1744.87414562
0.42200002 23017.96698170  1752.58808903
0.42300002 23067.51085563  2200.64063991
0.42400002 23119.64714320  2652.97963540
0.42500002 23174.90964019  1777.05215542
0.42600002 23231.21625242  1487.95947148
0.42700002 23291.09710969  1495.28850530
0.42800002 23352.28286578  1803.26336835
0.42900002 23416.51980339  1812.43871867
0.43000002 23482.50933036  1669.95873016
0.43100002 23548.77487273  1831.15282088
0.43200002 23618.07490158  1840.79284506
0.43300002 23688.20631846  1696.31253485
0.43400002 23760.34031348  2015.47096260
0.43500002 23833.24906818  2338.04184438
0.43600002 23908.14989563  1880.61515991
0.43700002 23983.36378537  1575.70707537
0.43800002 24059.21326592  2218.01897610
0.43900002 24136.97402383  1911.64843328
0.44000002 24214.83942571  1761.99287431
0.44100002 24293.71525013  1771.74073715
0.44200002 24372.96960494  2105.45907910
0.44300002 24452.81540054  1954.26909942
0.44400002 24532.88699431  2128.84136982
0.44500002 24612.66145067  1646.58712908
0.44600002 24692.47629796  1655.63061424
0.44700002 24773.49083112  1664.77866275
0.44800002 24853.12457909  2845.55863354
0.44900002 24933.36259914  2356.20287728
0.45000002 25013.52152607  3553.54610401
0.45100002 25092.52166568  1871.40035452
0.45200002 25171.48744544  1710.40265298
0.45300002 25249.47453387  1891.43822697
0.45400002 25327.06258550  1901.42931372
0.45500002 25404.32960552  2258.95309558
0.45600002 25480.16646480  3493.33098789
0.45700002 25555.51875851  1931.23064411
0.45800002 25629.51522590  2999.80675179
0.45900002 25702.24729333  1950.80066202
0.46000002 25774.43159313  2316.99263788
0.46100002 25844.48652322  2328.32990123
0.46200002 25913.96125514  1799.72469447
0.46300002 25981.99546205  1808.34696987
0.46400002 26047.88059203  2725.25963611
0.46500002 26113.37460398  2555.45495986
0.46600002 26176.26623916  2567.10655174
0.46700002 26237.41732574  2394.42681863
0.46800002 26297.72473403  2590.06303181
0.46900002 26355.35033682  2601.27320154
0.47000002 26411.35787222  2425.75127875
0.47100002 26465.68147773  2248.52440492
0.47200002 26518.08660047  1881.45833348
0.47300002 26568.36192012  2644.61487088
0.47400002 26615.98270398  3034.22217207
0.47500002 26661.96311768  2474.76353388
0.47600002 26706.39057441  2293.01080340
0.47700002 26747.47833770  2493.13257403
