# SAXS profile: number of points = 501, q_min = 0, q_max = 0.5, delta_q = 0.001
#    q    intensity    error
0.00000000 1664650.74656090 324.60689558
0.00100000 1664569.27154732 499.37079332
0.00200000 1664324.78255217 973.63002862
0.00300000 1663917.50103240 1098.18558980
0.00400000 1663347.28932229 1746.51472015
0.00500000 1662614.67148989 1945.25924264
0.00600000 1661719.55617565 2093.76672602
0.00700000 1660662.49536807 2590.63360044
0.00800000 1659443.29180274 3136.34795392
0.00900000 1658063.18059432 3481.93282809
0.01000000 1656521.58501093 3826.56502660
0.01100000 1654819.71144064 3574.41073234
0.01200000 1652957.54949162 3223.26736283
0.01300000 1650936.19048863 4507.05599882
0.01400000 1648755.63784731 4080.67038457
0.01500000 1646417.46757290 4741.68251775
0.01600000 1643920.90164972 4191.99848660
0.01700000 1641268.27469119 6203.99435664
0.01800000 1638459.47647211 5136.57068987
0.01900000 1635495.21207529 5397.13444338
0.02000000 1632376.74255156 7198.78176029
0.02100000 1629105.93946755 5913.65482838
0.02200000 1625681.26701032 5608.60062600
0.02300000 1622106.32156808 6423.54132580
0.02400000 1618380.12172567 8496.49602648
0.02500000 1614505.69014544 6926.22972705
0.02600000 1610482.72053585 7174.70084815
0.02700000 1606313.39405044 9445.12318961
0.02800000 1601997.56687465 8362.42768258
0.02900000 1597537.86825432 7907.81281094
0.03000000 1592935.53219816 8888.58067823
0.03100000 1588190.74728958 10672.64231287
0.03200000 1583305.19748666 10188.56941509
0.03300000 1578282.75411462 8854.16665876
0.03400000 1573121.35548901 10736.55374660
0.03500000 1567824.18854724 9312.87611002
0.03600000 1562392.66272923 8671.27967888
0.03700000 1556828.30663677 11536.09828569
0.03800000 1551133.03396243 14518.60586980
0.03900000 1545308.52775344 11126.22191508
0.04000000 1539354.81418031 11360.43905508
0.04100000 1533275.95234105 13523.49452669
0.04200000 1527072.55262302 9849.61842137
0.04300000 1520745.80754766 14051.69191399
0.04400000 1514298.98721464 14310.12609377
0.04500000 1507733.45079210 14564.70581140
0.04600000 1501049.26498556 15873.59671514
0.04700000 1494250.85177127 16137.90994967
0.04800000 1487338.57475390 13118.32683970
0.04900000 1480315.73886298 12212.60541409
0.05000000 1473182.13578608 13523.81263627
0.05100000 1465942.80261442 18294.96702888
0.05200000 1458595.45233726 16234.16814105
0.05300000 1451146.63652286 12929.71713417
0.05400000 1443595.79172658 13100.63242085
0.05500000 1435945.54742992 18092.91474164
0.05600000 1428197.20241694 13432.19531553
0.05700000 1420355.99413230 12357.09772576
0.05800000 1412420.42257002 18749.88198509
0.05900000 1404393.07876692 15167.44595909
0.06000000 1396278.27820785 12775.94684248
0.06100000 1388077.02915846 14200.02867188
0.06200000 1379791.15257109 16950.73510167
0.06300000 1371424.60544243 14482.24451059
0.06400000 1362975.57599449 17275.71623366
0.06500000 1354450.00186910 18772.67790405
0.06600000 1345849.39144696 14878.36571858
0.06700000 1337174.91314109 13639.18475234
0.06800000 1328429.80770763 16499.09898404
0.06900000 1319617.03447644 18012.77336394
0.07000000 1310736.67635853 16751.21550830
0.07100000 1301792.28509720 18277.16453883
0.07200000 1292786.14472097 15571.60984264
0.07300000 1283720.72709229 17099.16088606
0.07400000 1274598.64589010 15773.15898209
0.07500000 1265421.49712241 20196.12804072
0.07600000 1256190.15507806 17410.79636561
0.07700000 1246910.07594288 16047.73342984
0.07800000 1237581.65778166 19064.94633220
0.07900000 1228206.41786182 19160.02101732
0.08000000 1218789.15762081 17769.94675172
0.08100000 1209330.21131751 16362.23852681
0.08200000 1199831.79480456 16431.69720091
0.08300000 1190297.05684680 16497.51798216
0.08400000 1180727.82055078 21075.99258611
0.08500000 1171126.27847040 19639.78861194
0.08600000 1161494.75308961 16673.25796344
0.08700000 1151836.49928210 15204.24250448
0.08800000 1142151.42520417 21346.81113959
0.08900000 1132444.52411744 15288.00179366
0.09000000 1122716.22644512 21455.10809523
0.09100000 1112968.51407467 16894.86283739
0.09200000 1103203.43479907 26162.47068555
0.09300000 1093426.56591724 21584.24142550
0.09400000 1083634.44590796 16985.97073791
0.09500000 1073832.53829398 20102.14606172
0.09600000 1064022.12612237 20125.97946168
0.09700000 1054207.81242481 18596.22668543
0.09800000 1044389.09984551 20161.93252048
0.09900000 1034569.51247724 17070.39775857
0.10000000 1024748.43275344 23287.40922946
0.10100000 1014929.91788842 15528.42847402
0.10200000 1005115.55369873 21740.65044910
0.10300000 995307.08301249 18632.14947046
0.10400000 985507.80068578 20178.27316833
0.10500000 975720.01382622 17065.34384473
0.10600001 965940.92942696 27906.03476422
0.10700001 956178.37493207 15490.09040283
0.10800001 946430.65115787 18568.97024960
0.10900001 936701.39841348 20092.24594162
0.11000001 926990.92849020 21608.15956019
0.11100001 917302.26320487 18492.81449673
0.11200001 907636.42098041 16922.88186586
0.11300001 897995.14977105 16891.28956245
0.11400001 888380.88318208 21454.39933902
0.11500001 878795.45069555 24465.66649940
0.11600001 869239.54809935 18306.18574504
0.11700001 859716.18076873 18260.37253950
0.11800001 850224.22420054 16694.15342844
0.11900001 840767.09275999 18160.57005901
0.12000001 831345.16253245 22633.37311609
0.12100001 821963.74889056 16546.13104462
0.12200001 812620.61776854 20989.99154583
0.12300001 803318.71841837 19424.24752652
0.12400001 794057.91537448 22332.87992218
0.12500001 784840.01398395 14833.47696326
0.12600001 775669.13918180 20687.09691683
0.12700001 766543.55794642 16189.40070678
0.12800001 757465.08404798 17588.34008052
0.12900001 748436.24155462 16053.95813800
0.13000001 739457.68197366 17436.41296280
0.13100001 730529.29364002 15910.92876548
0.13200001 721653.81955020 15836.69381658
0.13300001 712832.42383512 17193.51887346
0.13400001 704064.73304977 18534.50497136
0.13500001 695353.71568977 19859.30305643
0.13600001 686699.14135609 18345.16842632
0.13700001 678102.83981700 22458.76711374
0.13800001 669563.38730222 18148.51646863
0.13900001 661085.81166179 23600.76458930
0.14000001 652667.32733732 22086.26339870
0.14100001 644311.82749198 19213.37960197
0.14200001 636017.94555172 19099.61980576
0.14300001 627788.41043496 17628.29939650
0.14400001 619619.57322715 20215.08953008
0.14500001 611518.54421620 18749.15945011
0.14600001 603481.80790992 17298.80683980
0.14700001 595512.38137676 14542.41303928
0.14800001 587607.43249353 14446.32940941
0.14900001 579770.91719999 13044.84625247
0.15000001 572002.05778378 14251.43194211
0.15100001 564301.79688210 16725.90604880
0.15200001 556671.58384458 17885.85883291
0.15300001 549110.55230816 15221.34522826
0.15400001 541617.86657536 13851.87759135
0.15500001 534197.10444532 12500.21283394
0.15600001 526845.42897722 13647.93148177
0.15700001 519567.79112061 17239.26012302
0.15800001 512358.51948599 15885.67664645
0.15900001 505223.30282951 12125.35984023
0.16000001 498157.55498643 14436.60662495
0.16100001 491166.71194823 13128.88683012
0.16200001 484247.78817694 11839.85897984
0.16300001 477401.13567504 14092.88219042
0.16400001 470627.87731198 12812.84456471
0.16500001 463926.96292682 13862.13830670
0.16600001 457299.80497047 13746.43278642
0.16700001 450745.00338336 14766.40700803
0.16800001 444263.54219882 11262.08132650
0.16900001 437856.63988588 15631.48278201
0.17000001 431521.36032920 11068.52341510
0.17100001 425260.39509916 15360.40619632
0.17200001 419072.17016664 11962.41566231
0.17300001 412957.10613448 14011.63527283
0.17400001 406916.05665234 13886.01108904
0.17500001 400946.64024290 19052.98524417
0.17600001 395049.08766566 14683.97528204
0.17700001 389227.00643362 14549.30618766
0.17800001 383475.19695546 10296.30952457
0.17900001 377795.61573100 11220.53031720
0.18000001 372189.09427560 13136.41470296
0.18100001 366655.01849120 12011.61897316
0.18200001 361190.13982243 13880.53772906
0.18300001 355797.17601107 11784.00302615
0.18400001 350475.13919283 9725.68557205
0.18500001 345223.89573392 16373.97014820
0.18600001 340043.06527252 12399.67096097
0.18700001 334931.35813542 10389.57122021
0.18800001 329887.55170629 10287.54378601
0.18900001 324916.39123204 11112.14110516
0.19000001 320009.54969872 11001.92883847
0.19100001 315173.80598178 11800.10785351
0.19200001 310404.07542225 12580.67777132
0.19300001 305703.50660627 11564.76420138
0.19400001 301067.60089505 8806.22774231
0.19500001 296499.16865481 8717.07597038
0.19600001 291995.15880081 12942.68602547
0.19700001 287558.11244138 9394.52397742
0.19800001 283184.47139594 9298.36255771
0.19900001 278875.31488376 10876.13779447
0.20000001 274628.68699182 8280.05530413
0.20100001 270446.41667597 11472.33753760
0.20200001 266325.46545762 12164.41620971
0.20300001 262266.85674697 11235.51267408
0.20400001 258269.84016506 11118.51714463
0.20500001 254332.67971278 10216.54422697
0.20600001 250455.05736873 8554.29288877
0.20700001 246637.68014182 8464.60558258
0.20800001 242878.03892207 11421.34032020
0.20900001 239179.20834802 7534.14541911
0.21000001 235534.80819870 8945.61243827
0.21100001 231948.65494914 8851.16109128
0.21200001 228417.64841385 8027.73863301
0.21300001 224942.15804964 7942.70797623
0.21400001 221521.77562243 9287.30088204
0.21500001 218156.55126804 7775.09985478
0.21600001 214843.37355237 7692.46735373
0.21700001 211583.43236946 10378.16784840
0.21800001 208375.88670749 8214.17784238
0.21900001 205219.11262456 8126.67724417
0.22000001 202112.33385650 8710.03143938
0.22100001 199057.37644740 9942.91642368
0.22200001 196050.98794827 10492.64937113
0.22300001 193092.94483628 7785.50790394
0.22400001 190182.47772894 8344.25660493
0.22500001 187321.28502969 7620.23023535
0.22600001 184504.91160717 9423.58880596
0.22700001 181735.41537395 8079.95694962
0.22800001 179010.71802933 6763.92030060
0.22900001 176329.71814951 7908.38823300
0.23000001 173693.50830215 6620.32838202
0.23100001 171101.57647434 6549.76865719
0.23200001 168550.34710096 8836.25236467
0.23300001 166042.14825991 6410.88764751
0.23400001 163574.12381764 6342.58695100
0.23500001 161146.56864094 8556.88319954
0.23600001 158759.16692178 7901.44411141
0.23700001 156411.12229319 8375.81599496
0.23800001 154101.28813900 6629.43772930
0.23900001 151829.38560672 9291.95883864
0.24000001 149594.21807030 5407.83123903
0.24100001 147396.92983997 6420.61056753
0.24200001 145235.35823828 7940.74358729
0.24300001 143108.50614818 7856.65735918
0.24400001 141016.44617822 5700.59010641
0.24500001 138958.11972949 6665.82131875
0.24600001 136933.48719203 5580.72453451
0.24700001 134942.37654274 6023.82797383
0.24800001 132982.99646632 5463.60666828
0.24900001 131054.23141776 5897.44069279
0.25000001 129158.01302218 6321.63924644
0.25100001 127291.36679831 5773.93667113
0.25200001 125456.58813464 5713.29329395
0.25300001 123649.30294834 7066.55799782
0.25400001 121872.31647724 5127.77795838
0.25500001 120121.70427716 6457.74312747
0.25600001 118400.45729569 5477.20541364
0.25700001 116705.39810612 4968.14903244
0.25800001 115037.18665440 7597.63135206
0.25900001 113396.10120238 4422.44815614
0.26000001 111779.71115943 5251.41107874
0.26100001 110188.21098270 5629.51596547
0.26200001 108622.75402958 4713.68463415
0.26300001 107079.94128955 5088.43905085
0.26400001 105561.97750161 4196.08880424
0.26500001 104067.22396907 4152.28243285
0.26600001 102594.80221757 4519.81422557
0.26700001 101145.21536438 4066.03785005
0.26800001 99717.73620484  5633.05518477
0.26900001 98311.07315874  4379.75851648
0.27000001 96926.29108585  4728.06470291
0.27100001 95561.61495537  4288.80548216
0.27200001 94217.97991502  4629.87175213
0.27300001 92894.24668121  5345.13520699
0.27400001 91588.54268864  4155.83032117
0.27500001 90304.04058084  4112.44620267
0.27600001 89036.18202316  4439.34424577
0.27700001 87788.71802670  4392.94765796
0.27800001 86558.17542754  3984.70579439
0.27900001 85345.79014127  4659.88036226
0.28000001 84150.46091231  4965.71893345
0.28100001 82972.49591046  4562.65776606
0.28200001 81811.79213567  4167.49288864
0.28300001 80667.25625171  5498.28044635
0.28400001 79538.24105475  4420.33795584
0.28500001 78425.77052605  3364.46571481
0.28600001 77328.72198559  4660.60229467
0.28700001 76247.75708211  3952.68391423
0.28800001 75180.12802153  4562.68218559
0.28900001 74129.29007917  5481.86126083
0.29000001 73091.98001836  3190.46507882
0.29100001 72069.68057616  4103.64780625
0.29200001 71060.98563258  3435.44351302
0.29300001 70066.63108769  3398.93243496
0.29400001 69085.17066577  4279.82652534
0.29500001 68118.39058136  3326.90235348
0.29600001 67163.63712183  3590.56821050
0.29700001 66222.40490692  4144.19829525
0.29800001 65294.25371139  3514.13690110
0.29900001 64379.15926974  4345.59345642
0.30000001 63475.48619460  3439.10200483
0.30100001 62585.31470629  3118.62637945
0.30200001 61706.25412409  4767.73395061
0.30300001 60840.16699227  3329.17409542
0.30400001 59985.41255029  2744.33275410
0.30500001 59143.05738427  4071.99969368
0.30600001 58310.99247438  3222.26559669
0.30700001 57491.18500257  3984.13930930
0.30800001 56682.54433613  4203.57768698
0.30900001 55885.31230334  3638.13400319
0.31000001 55099.04798362  2827.40778114
0.31100001 54323.08315451  3305.01653560
0.31200001 53559.15991667  2766.06294486
0.31300001 52804.89516437  3730.66602000
0.31400001 52062.71171698  3197.95221863
0.31500001 51329.77002915  3162.94057895
0.31600002 50608.43789409  2406.43133580
0.31700002 49896.59426337  2618.07442496
0.31800002 49194.90644194  3530.96457706
0.31900002 48504.15580413  3259.47942437
0.32000002 47823.58187275  2993.51724907
0.32100002 47152.57138663  3416.20395872
0.32200002 46492.59708123  2477.82307877
0.32300002 45840.88884362  2227.86730329
0.32400002 45200.21871690  2644.21292015
0.32500002 44568.86843281  3051.18487739
0.32600002 43947.62292041  2155.63100632
0.32700002 43336.03434349  2345.34628973
0.32800002 42735.02118736  2319.87073501
0.32900002 42141.46366574  2294.60280526
0.33000002 41558.93827104  2682.42179773
0.33100002 40984.90512524  2653.36288346
0.33200002 40421.74658096  2220.97297106
0.33300002 39867.15274200  2796.28222574
0.33400002 39322.63891792  2568.75150896
0.33500002 38786.94690840  2150.34843843
0.33600002 38260.08758020  2514.26177440
0.33700002 37742.63781417  2487.61737614
0.33800002 37235.13787268  2082.74753554
0.33900002 36735.93815640  2435.59281511
0.34000002 36246.11733514  2410.18568634
0.34100002 35765.39731379  2018.24146600
0.34200002 35294.47155436  2179.08077697
0.34300002 34831.79768020  2516.24918359
0.34400002 34378.90521933  1957.01927229
0.34500002 33934.44496539  2113.43733254
0.34600002 33499.55695926  1918.01722454
0.34700002 33072.38559306  2762.20577555
0.34800002 32655.11233844  1709.49521188
0.34900002 32246.02418038  2370.08288951
0.35000002 31846.15061841  1844.36990042
0.35100002 31455.72566622  1660.86239384
0.35200002 31072.44951263  1809.81490758
0.35300002 30699.06458492  2119.15652867
0.35400002 30333.80409403  1615.27514451
0.35500002 29977.52874840  1760.88012208
0.35600002 29629.31820619  2062.64508462
0.35700002 29289.72732954  1887.43011851
0.35800002 28958.71140817  2027.25468815
0.35900002 28636.86344899  2319.58604924
0.36000002 28323.05416164  1533.69345550
0.36100002 28016.91199348  2129.84575063
0.36200002 27720.65152879  2113.14536613
0.36300002 27431.37351594  1947.07898439
0.36400002 27150.73140051  2081.10366043
0.36500002 26877.43292266  1770.68536482
0.36600002 26613.37771006  1904.58646604
0.36700002 26356.64397339  1745.86417950
0.36800002 26108.86092436  1589.63807268
0.36900002 25868.77543115  1722.86052532
0.37000002 25635.93645113  1997.29590352
0.37100002 25410.98506912  1843.31294423
0.37200002 25194.46077034  1691.55617625
0.37300002 24985.42912357  2102.52396035
0.37400002 24783.83564670  2091.13623175
0.37500002 24590.08653484  1802.94523014
0.37600002 24404.00283280  2484.08356603
0.37700002 24225.03906606  1648.27173614
0.37800002 24053.66740597  2187.92169089
0.37900002 23890.32050383  2178.79733316
0.38000002 23733.45712072  1492.00385257
0.38100002 23583.17392079  1351.31592968
0.38200002 23441.22806953  2154.71778623
0.38300002 23305.29228427  1342.38489917
0.38400002 23176.90925643  1740.00654486
0.38500002 23054.76308456  2269.28043792
0.38600002 22940.33296903  1598.02367033
0.38700002 22831.70118009  2126.08811461
0.38800002 22729.78215133  1591.53942164
0.38900002 22634.39551568  1853.75708056
0.39000002 22545.94945048  1454.55199771
0.39100002 22462.96539611  1717.06915623
0.39200002 22386.95342181  2111.53754678
0.39300002 22316.44842107  1450.79238059
0.39400002 22253.25440068  1582.20646285
0.39500002 22194.64008766  1713.87018877
0.39600002 22142.20577797  1582.28209986
0.39700002 22094.91799655  1450.97333358
0.39800002 22054.44580394  1451.95450829
0.39900002 22018.50564092  1717.44352136
0.40000002 21988.33875349  1719.37823029
0.40100002 21963.16803533  2251.44446197
0.40200002 21943.73413177  1459.14867023
0.40300002 21928.96445866  1461.78484007
0.40400002 21919.32950114  1464.75926331
0.40500002 21914.14661361  1601.48591040
0.40600002 21914.66812328  1605.46866278
0.40700002 21919.25388831  1609.75008183
0.40800002 21928.23124411  1614.35646068
0.40900002 21941.27633615  1754.20512619
0.41000002 21959.42904568  1759.93852426
0.41100002 21981.32943214  1765.98009025
0.41200002 22006.59193215  1499.63927827
0.41300002 22037.15191595  1779.05935847
0.41400002 22070.71570554  2060.85317665
0.41500002 22107.88653781  1379.53218533
0.41600002 22147.96445053  1800.96181463
0.41700002 22192.74878439  2226.37666354
0.41800002 22241.33589562  1957.01523819
0.41900002 22291.20537306  2106.51900757
0.42000002 22344.89854685  2398.83669717
0.42100002 22402.30824772  1701.67941513
0.42200002 22462.08341799  1852.78503853
0.42300002 22524.40975983  2005.57354005
0.42400002 22589.23680003  1440.06391424
0.42500002 22657.05512040  2316.45742528
0.42600002 22726.03041606  1746.72278055
0.42700002 22798.49465124  1756.39611116
0.42800002 22872.30747725  1619.01636150
0.42900002 22949.08194856  1480.21585583
0.43000002 23027.56434014  1935.35173668
0.43100002 23106.23763046  2096.19797717
0.43200002 23188.03721817  1957.88201530
0.43300002 23270.54977107  1969.38672045
0.43400002 23354.98476043  1981.08667618
0.43500002 23440.24636544  1992.88984043
0.43600002 23527.42008982  1850.66695197
0.43700002 23614.79076068  1706.64100915
0.43800002 23702.82567105  1716.91425885
0.43900002 23792.71018226  1570.31894645
0.44000002 23882.57110429  1579.83215342
0.44100002 23973.49040268  1748.38673792
0.44200002 24064.75106469  1918.92334084
0.44300002 24156.50049484  2734.99911564
0.44400002 24248.37650518  2104.15297095
0.44500002 24339.86258475  2279.67163772
0.44600002 24431.40622456  1801.93845149
0.44700002 24524.01854013  1648.01412400
0.44800002 24615.29747760  2320.97650916
0.44900002 24707.04016206  2001.27034797
0.45000002 24798.60901948  1677.62597967
0.45100002 24888.86201148  2362.45089409
0.45200002 24979.12294609  1867.06463309
0.45300002 25068.34013828  2048.58485319
0.45400002 25157.05451144  1888.66595696
0.45500002 25245.29559327  1899.45613046
0.45600002 25332.17498373  2257.47688066
0.45700002 25418.30264158  2095.48496909
0.45800002 25503.08138215  2282.65340729
0.45900002 25586.56456198  2648.20955767
0.46000002 25669.40075057  2485.05480444
0.46100002 25749.98850165  2676.71143161
0.46200002 25829.90911129  1973.27600008
0.46300002 25908.18171285  2344.17239248
0.46400002 25984.30273746  2537.36728257
0.46500002 26059.95849726  2368.06854088
0.46600002 26132.80945745  2196.72406711
0.46700002 26203.98312861  2391.37561366
0.46800002 26274.05595301  2033.21791629
0.46900002 26341.46313104  2042.78056263
0.47000002 26407.09320950  2238.79346841
0.47100002 26470.92422718  3186.04059099
0.47200002 26532.71191631  2635.49439956
0.47300002 26592.21515142  2079.77724557
0.47400002 26649.13133814  2088.62576762
0.47500002 26704.18194499  2288.01441749
0.47600002 26757.48621403  2105.94805229
0.47700002 26807.45437323  2498.72294056
