# SAXS profile: number of points = 501, q_min = 0, q_max = 0.5, delta_q = 0.001
#    q    intensity    error
0.00000000 1664650.74656090 274.66737318
0.00100000 1664569.27345255 549.30787328
0.00200000 1664324.79388242 898.73541715
0.00300000 1663917.52523684 1397.69077099
0.00400000 1663347.33643500 1621.76371465
0.00500000 1662614.75295460 1795.62400426
0.00600000 1661719.66801975 2268.24743919
0.00700000 1660662.63109884 1992.79524014
0.00800000 1659443.48502307 2240.24879936
0.00900000 1658063.42823585 3481.93334814
0.01000000 1656521.87778342 3826.56570291
0.01100000 1654820.06249950 4170.14673906
0.01200000 1652957.96506262 4190.24862515
0.01300000 1650936.68738053 4160.36063569
0.01400000 1648756.22027775 5193.58232411
0.01500000 1646418.12187173 4741.68440213
0.01600000 1643921.65688534 5449.60053619
0.01700000 1641269.10650309 4874.56946498
0.01800000 1638460.45227658 6537.45749875
0.01900000 1635496.25917564 6378.43569860
0.02000000 1632377.87491472 6684.58770016
0.02100000 1629107.22030168 6451.26488489
0.02200000 1625682.68726790 6169.46607847
0.02300000 1622107.85874534 7007.50626875
0.02400000 1618381.78672969 8496.50476775
0.02500000 1614507.51550741 8815.21143727
0.02600000 1610484.65237611 7174.70945449
0.02700000 1606315.47286683 6746.52529504
0.02800000 1601999.79649176 7665.56937775
0.02900000 1597540.27375686 8626.71787438
0.03000000 1592938.04128913 8888.59467896
0.03100000 1588193.50017309 10672.66081225
0.03200000 1583308.10388915 11756.06321284
0.03300000 1578285.83715537 8854.18395462
0.03400000 1573124.56226096 11562.46606611
0.03500000 1567827.62116436 11006.15040882
0.03600000 1562396.22279427 12139.81921214
0.03700000 1556832.16203107 10648.73248077
0.03800000 1551137.05234839 9981.56739380
0.03900000 1545312.71821700 12980.62743416
0.04000000 1539359.19969019 14200.58927518
0.04100000 1533280.53805745 9659.66783765
0.04200000 1527077.36698077 15759.43915837
0.04300000 1520750.81096447 15055.43372739
0.04400000 1514304.25502131 14310.17587454
0.04500000 1507738.96292672 10403.39932759
0.04600000 1501054.96120930 11640.68176532
0.04700000 1494256.75178381 13986.24384717
0.04800000 1487344.67295732 13118.38062586
0.04900000 1480321.99305434 17763.86474352
0.05000000 1473188.71499862 14650.86245290
0.05100000 1465949.52630734 14864.72888922
0.05200000 1458602.46332961 12755.47913624
0.05300000 1451153.86229213 12929.78151578
0.05400000 1443603.29742380 19055.56441463
0.05500000 1435953.32652747 15680.61105717
0.05600000 1428205.22716702 14653.38631452
0.05700000 1420364.17951602 17300.03651405
0.05800000 1412428.91144743 14999.99573996
0.05900000 1404401.80005032 13903.57846988
0.06000000 1396287.14170264 15331.23353215
0.06100000 1388086.10138341 14200.12148074
0.06200000 1379800.63079634 18254.76319873
0.06300000 1371434.26400821 17115.50041506
0.06400000 1362985.45958614 19933.66327868
0.06500000 1354460.15332012 20113.73421768
0.06600000 1345859.80006756 20288.83743530
0.06700000 1337185.59901763 17731.08187277
0.06800000 1328440.72125049 15124.29831939
0.06900000 1319628.20646314 22169.75490654
0.07000000 1310748.02301280 16751.36051854
0.07100000 1301803.88910515 16871.37919302
0.07200000 1292797.97244337 16987.36615371
0.07300000 1283732.78730761 19949.20844949
0.07400000 1274610.99039756 21509.06147096
0.07500000 1265434.07605318 17311.13897182
0.07600000 1256202.89212776 18861.88730955
0.07700000 1246923.11445046 14589.00112313
0.07800000 1237594.99212806 14665.50134447
0.07900000 1228219.94168864 17686.36798987
0.08000000 1218802.86662819 16289.30107663
0.08100000 1209344.10903065 22312.39985847
0.08200000 1199845.90913503 17925.69872364
0.08300000 1190311.43546715 17997.50974892
0.08400000 1180742.41989239 19570.80652834
0.08500000 1171141.06528487 19640.03658683
0.08600000 1161509.83536289 15157.70406316
0.08700000 1151851.74945695 16724.88818748
0.08800000 1142166.77714964 16772.71991015
0.08900000 1132460.23672432 15288.21391386
0.09000000 1122732.01744257 16857.82203380
0.09100000 1112984.45422338 16895.10480886
0.09200000 1103219.65051282 16928.90633255
0.09300000 1093443.07875721 18501.05776198
0.09400000 1083650.96705591 20074.63510817
0.09500000 1073849.25529994 15463.43000314
0.09600000 1064039.07648540 20126.30007781
0.09700000 1054224.98189623 21695.95114741
0.09800000 1044406.46979064 20162.26784729
0.09900000 1034586.84432821 17070.68373412
0.10000000 1024766.03941908 15525.20622731
0.10100000 1014947.52438537 24845.91656550
0.10200000 1005133.48858461 20188.10706780
0.10300000 995325.12912404 18632.48729369
0.10400000 985525.95138322 26387.45858969
0.10500000 975738.30592262 18617.08775293
0.10600001 965959.38987094 24805.83829909
0.10700001 956196.95620065 17039.43056133
0.10800001 946449.28014275 17021.89110445
0.10900001 936720.20908869 20092.64943063
0.11000001 927009.90688947 16978.18724384
0.11100001 917321.30975337 16952.09860223
0.11200001 907655.52086669 23077.14270444
0.11300001 898014.31108631 16891.64998681
0.11400001 888400.20851906 16857.39475037
0.11500001 878814.80620604 21407.92968724
0.11600001 869258.94085121 16781.04464338
0.11700001 859735.68203524 18260.78674642
0.11800001 850243.69471856 16694.53573208
0.11900001 840786.66878845 16647.57682614
0.12000001 831364.93064192 16598.20162212
0.12100001 821983.43859865 19554.98692546
0.12200001 812640.44922184 23989.14719119
0.12300001 803338.39366038 17930.51379129
0.12400001 794077.64569092 17866.74786988
0.12500001 784859.84184410 16317.23688081
0.12600001 775688.88081541 25120.68558898
0.12700001 766563.32969769 16189.81828618
0.12800001 757484.87231664 17588.79956414
0.12900001 748455.93537048 14594.89142761
0.13000001 739477.31655713 30514.53290603
0.13100001 730549.03365756 20250.82016756
0.13200001 721673.52914414 14397.38758512
0.13300001 712851.97614607 15761.15793562
0.13400001 704084.40693326 15683.48090385
0.13500001 695373.25935262 18441.29970751
0.13600001 686718.57315398 14112.06734371
0.13700001 678122.29214101 15440.84532014
0.13800001 669582.86384951 18149.04438047
0.13900001 661105.14943273 15271.52967207
0.14000001 652686.51426210 19326.04859873
0.14100001 644331.02202087 16469.10169959
0.14200001 636036.97553879 23193.08940693
0.14300001 627807.30152098 18984.89369347
0.14400001 619638.41525742 16172.56340108
0.14500001 611537.16730981 16071.19751501
0.14600001 603500.29435403 14637.90033009
0.14700001 595530.78015208 13220.78394309
0.14800001 587625.72216908 15760.12261212
0.14900001 579789.08068962 13045.25493100
0.15000001 572020.19672159 14251.88387376
0.15100001 564319.63076663 19299.73228288
0.15200001 556689.33711954 15331.22506771
0.15300001 549128.07480540 13953.34503925
0.15400001 541635.20642202 15111.62297231
0.15500001 534214.35031327 15000.73966473
0.15600001 526862.48054304 19852.17920378
0.15700001 519584.56041206 13545.57012925
0.15800001 512375.10585415 12220.14685140
0.15900001 505239.66168293 15763.47818855
0.16000001 498173.85334619 18046.34868930
0.16100001 491182.65815506 14322.88698790
0.16200001 484263.72413672 15392.32319830
0.16300001 477416.76842003 15267.78897483
0.16400001 470643.27382884 12813.26373490
0.16500001 463942.19179207 12707.37723312
0.16600001 457314.72103508 11455.73430279
0.16700001 450759.70740561 19310.54677700
0.16800001 444277.98202284 18019.91580168
0.16900001 437870.80236099 12282.27658617
0.17000001 431535.26980731 11068.88019323
0.17100001 425274.08512088 12069.27910566
0.17200001 419085.64056969 16312.90932952
0.17300001 412970.33379733 11856.37884323
0.17400001 406928.94678705 16022.82803643
0.17500001 400959.33382419 11643.85960417
0.17600001 395061.40408496 16782.20923814
0.17700001 389239.13619908 11431.95397011
0.17800001 383487.13280539 10296.63000216
0.17900001 377807.23217991 12240.95490081
0.18000001 372200.35957427 15157.86035964
0.18100001 366666.03981315 15014.97503960
0.18200001 361200.92203649 13880.95208957
0.18300001 355807.54087836 9820.28859215
0.18400001 350485.22411509 10698.56197152
0.18500001 345233.74579587 12521.62855156
0.18600001 340052.59741715 9538.47580818
0.18700001 334940.50852861 10389.85506542
0.18800001 329896.52698052 12158.33707630
0.18900001 324924.98327477 12038.47119912
0.19000001 320017.89628887 11919.06711044
0.19100001 315181.82818850 9077.23708073
0.19200001 310411.72407756 9885.06182033
0.19300001 305710.83837589 10675.42298053
0.19400001 301074.67871340 9687.07824536
0.19500001 296505.84914438 10460.72685214
0.19600001 292001.52190502 10354.37445606
0.19700001 287564.20094861 12810.98575768
0.19800001 283190.33595716 10989.20150615
0.19900001 278880.89148708 10876.35528201
0.20000001 274633.80706961 9936.25160938
0.20100001 270451.30540887 9833.60992943
0.20200001 266330.01328364 8920.72421656
0.20300001 262271.05704091 10433.14314221
0.20400001 258273.82748616 11118.68879881
0.20500001 254336.31031562 10216.69006829
0.20600001 250458.34904819 10887.42494775
0.20700001 246640.64723504 12312.30169196
0.20800001 242880.77743927 7614.31273265
0.20900001 239181.63204437 9794.48829521
0.21000001 235536.87724018 8945.69102047
0.21100001 231950.46313728 8113.62758410
0.21200001 228419.07846321 7297.98990191
0.21300001 224943.30852577 10831.02081756
0.21400001 221522.61838607 12144.97812719
0.21500001 218157.15576500 8481.95061715
0.21600001 214843.62905675 7692.47650207
0.21700001 211583.45739094 8302.53526056
0.21800001 208375.57237916 8214.16545156
0.21900001 205218.51530510 7449.43245780
0.22000001 202111.47934154 7369.99544266
0.22100001 199056.17378885 6628.57090059
0.22200001 196049.57650809 7213.64450871
0.22300001 193091.18019857 9083.00954603
0.22400001 190180.51615176 8986.02981309
0.22500001 187319.07689957 8890.16381005
0.22600001 184502.43830359 8167.00081771
0.22700001 181732.67355842 8079.83504850
0.22800001 179007.70514693 7378.69795510
0.22900001 176326.48113301 7299.91666413
0.23000001 173690.04696494 6620.19645315
0.23100001 171097.84410475 6549.62578208
0.23200001 168546.39254941 6479.76636801
0.23300001 166037.96538427 6410.72614668
0.23400001 163569.71829733 5765.83284268
0.23500001 161141.93419656 6274.86721439
0.23600001 158754.30672732 5643.71587109
0.23700001 156406.07365640 8375.54564045
0.23800001 154096.04644046 6629.21223142
0.23900001 151823.95972785 6558.79537047
0.24000001 149588.57854621 7029.91558130
0.24100001 147391.05296269 6420.35457075
0.24200001 145229.31635347 5293.60883148
0.24300001 143102.31241750 6808.80834690
0.24400001 141010.08156484 7773.18111396
0.24500001 138951.57240791 7178.23857015
0.24600001 136926.80425288 5073.13833755
0.24700001 134935.51101236 6525.48162125
0.24800001 132975.98235424 4966.65317589
0.24900001 131047.15624391 5897.12230995
0.25000001 129150.76281057 5348.77909484
0.25100001 127283.96837539 5292.46765543
0.25200001 125449.01638170 7141.18559538
0.25300001 123641.67843678 5181.82298844
0.25400001 121864.56184561 5127.45168224
0.25500001 120113.88778138 5073.61085993
0.25600001 118392.54181352 5476.83924342
0.25700001 116697.33225479 6322.66176071
0.25800001 115029.04990103 7150.20608015
0.25900001 113387.93897198 5306.55579497
0.26000001 111771.45467649 4813.43792339
0.26100001 110179.89432286 5196.08406212
0.26200001 108614.40093763 4284.83831973
0.26300001 107071.55133525 4664.03699685
0.26400001 105553.62538026 6293.63521110
0.26500001 104058.74020156 4567.13832356
0.26600001 102586.29237826 4930.29744500
0.26700001 101136.61008162 5691.96868474
0.26800001 99709.22943161  4023.26759795
0.26900001 98302.52417075  4379.37765905
0.27000001 96917.68694308  4727.64499281
0.27100001 95553.05456024  5457.99073477
0.27200001 94209.47340020  4629.45374197
0.27300001 92885.69075991  4581.12248508
0.27400001 91580.05179209  4533.21277824
0.27500001 90295.58984213  4112.06135602
0.27600001 89027.78987708  4069.01532890
0.27700001 87780.33795468  4392.52831914
0.27800001 86549.83854976  3622.11091473
0.27900001 85337.54319186  5017.84777717
0.28000001 84142.28717694  3901.25732960
0.28100001 82964.42281617  4562.21382659
0.28200001 81803.75678579  3819.82660390
0.28300001 80659.36188485  4466.91567260
0.28400001 79530.45159078  4079.91235971
0.28500001 78418.06128832  4036.96198620
0.28600001 77321.15621438  3328.67593258
0.28700001 76240.26806141  4281.65365699
0.28800001 75172.77067906  5213.98362109
0.28900001 74121.99731156  3869.16844281
0.29000001 73084.88273955  3190.15528259
0.29100001 72062.71878995  5365.79029509
0.29200001 71054.20252638  3435.11558374
0.29300001 70059.95074180  4016.53716615
0.29400001 69078.62887241  3056.72947230
0.29500001 68112.06077911  3024.17564175
0.29600001 67157.45434264  3291.05120585
0.29700001 66216.40492883  2959.87344043
0.29800001 65288.45910600  4099.46254133
0.29900001 64373.49943643  4345.21141766
0.30000001 63470.03979087  4011.94140510
0.30100001 62580.07446117  3968.82851021
0.30200001 61701.18856099  3365.18298343
0.30300001 60835.30835937  3328.90823102
0.30400001 59980.77175880  3292.94452545
0.30500001 59138.66290231  4071.69713359
0.30600001 58306.78743467  2953.53045733
0.30700001 57487.25797284  3983.86716613
0.30800001 56678.79920273  3415.18120765
0.30900001 55881.81046881  3637.90603375
0.31000001 55095.78524923  3084.26220428
0.31100001 54320.10747143  3050.61738003
0.31200001 53556.35838524  2514.47114524
0.31300001 52802.38581696  3730.48873459
0.31400001 52060.46216550  3197.81403992
0.31500001 51327.74442473  2919.52224111
0.31600002 50606.71798913  3609.52433148
0.31700002 49895.13002839  3569.99672256
0.31800002 49193.72161163  3060.09559774
0.31900002 48503.20582427  3492.23098470
0.32000002 47822.90131475  2993.47464954
0.32100002 47152.16611883  2732.93967765
0.32200002 46492.50334214  3378.84284038
0.32300002 45841.07366426  2896.23917125
0.32400002 45200.69217929  2423.88723289
0.32500002 44569.64879691  2833.29270818
0.32600002 43948.68890262  2586.81995130
0.32700002 43337.34243609  2345.41708370
0.32800002 42736.64083987  2319.95865785
0.32900002 42143.37943599  2711.92659513
0.33000002 41561.13167193  2269.86131375
0.33100002 40987.37759884  2041.17150108
0.33200002 40424.57554798  3028.81146636
0.33300002 39870.26209880  2197.25024832
0.33400002 39326.02193234  2568.97250439
0.33500002 38790.65593475  2932.57372754
0.33600002 38264.09052502  2127.67485440
0.33700002 37746.96385496  2296.52538969
0.33800002 37239.75630398  3219.19088615
0.33900002 36740.84241089  2435.91796720
0.34000002 36251.31843905  2595.95703636
0.34100002 35770.90916108  2018.55249956
0.34200002 35300.29983156  2179.44061482
0.34300002 34837.94204252  1977.40168398
0.34400002 34385.29556356  2135.32695563
0.34500002 33941.13334326  1937.69939434
0.34600002 33506.58548574  1918.41964284
0.34700002 33079.71049921  2072.11316381
0.34800002 32662.68830687  2564.83772077
0.34900002 32253.89976056  1862.66279939
0.35000002 31854.34569089  2180.27079408
0.35100002 31464.17883719  2325.83220980
0.35200002 31081.17841147  2468.62271225
0.35300002 30708.11453681  2119.78124688
0.35400002 30343.08057541  1615.76911717
0.35500002 29987.15786312  1761.44573631
0.35600002 29639.19206921  1587.17881048
0.35700002 29299.87757518  1888.08420037
0.35800002 28969.13560993  1559.98802648
0.35900002 28647.54309505  1856.36088049
0.36000002 28333.99346251  1687.71440053
0.36100002 28028.15786178  1674.12194838
0.36200002 27732.11463176  1661.01508455
0.36300002 27443.05575890  1798.06909849
0.36400002 27162.67724436  1933.30364444
0.36500002 26889.68555251  1771.49256811
0.36600002 26625.82730174  2198.62779359
0.36700002 26369.36809194  1892.26594391
0.36800002 26121.78361398  2024.17710813
0.36900002 25881.89666423  2298.31253265
0.37000002 25649.31840999  1998.33849198
0.37100002 25424.61907812  1560.56319294
0.37200002 25208.29952178  1551.44486756
0.37300002 24999.47153517  1402.47041956
0.37400002 24798.05007359  1813.35749753
0.37500002 24604.51755913  1942.77279850
0.37600002 24418.64408203  1657.04926590
0.37700002 24239.90756933  1649.28338915
0.37800002 24068.67189975  1368.30406232
0.37900002 23905.54465388  1498.87772080
0.38000002 23748.82090229  1764.41873252
0.38100002 23598.67981190  1622.64530074
0.38200002 23456.90552712  2021.39892956
0.38300002 23321.12778790  1477.62672664
0.38400002 23192.89850261  1473.32894718
0.38500002 23070.87738246  1736.54502285
0.38600002 22956.58277680  1465.89266266
0.38700002 22848.16208332  1595.71571550
0.38800002 22746.30393743  1592.69627715
0.38900002 22651.05323161  1590.10401219
0.39000002 22562.73888383  1455.63516805
0.39100002 22479.87704908  1718.36188304
0.39200002 22403.93292289  1320.71190838
0.39300002 22333.50671402  1319.91030933
0.39400002 22270.36167172  1451.47089072
0.39500002 22211.90030887  1451.32563494
0.39600002 22159.52681277  1451.55987264
0.39700002 22112.32003675  1848.14779623
0.39800002 22071.92833166  1717.30646521
0.39900002 22035.96052722  1454.37346370
0.40000002 22005.90108102  1323.65501274
0.40100002 21980.75267194  1457.98339381
0.40200002 21961.31206133  1460.31751471
0.40300002 21946.61619868  1728.95450605
0.40400002 21936.97714337  1599.20570952
0.40500002 21931.81046362  1869.90624873
0.40600002 21932.36845207  1472.86827318
0.40700002 21936.93101231  1611.04828988
0.40800002 21945.86765516  1481.01694888
0.40900002 21958.91202494  1755.61509958
0.41000002 21977.04471216  1625.86184484
0.41100002 21998.91963655  1767.39328734
0.41200002 22024.08956415  1773.71013709
0.41300002 22054.63585101  1506.55224637
0.41400002 22088.15583534  1649.98531908
0.41500002 22125.31186127  1932.86733579
0.41600002 22165.28976749  1941.01451691
0.41700002 22209.99462582  1392.56672902
0.41800002 22258.50739369  2098.42088397
0.41900002 22308.30149294  2248.67689704
0.42000002 22361.92061754  1553.37088930
0.42100002 22419.22540184  2838.27407036
0.42200002 22478.93244166  1568.91716411
0.42300002 22541.05523784  1433.61118106
0.42400002 22605.78023204  2017.56598131
0.42500002 22673.52512451  1593.72215652
0.42600002 22742.35487097  1456.64789851
0.42700002 22814.68029688  1904.11330781
0.42800002 22888.37040564  1767.44004648
0.42900002 22964.98279694  1629.36560665
0.43000002 23043.24609622  1787.69511686
0.43100002 23121.79318784  2097.60917740
0.43200002 23203.41591575  1808.47432217
0.43300002 23285.73667863  2122.26214146
0.43400002 23370.04550884  2287.34331257
0.43500002 23455.03951369  1840.75158826
0.43600002 23542.01607593  1543.17922691
0.43700002 23629.20606691  1707.68280338
0.43800002 23717.05774724  1874.12199200
0.43900002 23806.73455188  2042.61792135
0.44000002 23896.41461448  1896.89748199
0.44100002 23987.07214489  1590.34295857
0.44200002 24078.09061575  2079.98595641
0.44300002 24169.60628375  1609.69585478
0.44400002 24261.23323720  1781.38113486
0.44500002 24352.53789625  1629.18486247
0.44600002 24443.81046608  2294.54059719
0.44700002 24536.18115502  1648.83145176
0.44800002 24627.16224189  2322.09523784
0.44900002 24718.64023678  1835.35912456
0.45000002 24810.01838306  2014.07738779
0.45100002 24899.99272872  2025.86350442
0.45200002 24989.96432337  1867.87497187
0.45300002 25078.88061396  2049.44622090
0.45400002 25167.30955690  2404.73654213
0.45500002 25255.27447340  2763.93736936
0.45600002 25341.82674819  2432.05522829
0.45700002 25427.73049947  1921.57368492
0.45800002 25512.17766594  1932.16486710
0.45900002 25595.35763009  2825.72761629
0.46000002 25677.85904045  2663.43605520
0.46100002 25758.17312032  1963.54563002
0.46200002 25837.76723811  3229.97943552
0.46300002 25915.74551002  2344.85676488
0.46400002 25991.55034543  2900.65715603
0.46500002 26066.89156577  3097.52887157
0.46600002 26139.45751162  2014.17599402
0.46700002 26210.27688357  1839.96152443
0.46800002 26280.03306726  2588.32057947
0.46900002 26347.11384560  1857.47161415
0.47000002 26412.44191417  2799.05866452
0.47100002 26475.92081408  2249.39433898
0.47200002 26537.41660224  2635.96171604
0.47300002 26596.57046466  3025.62599947
0.47400002 26653.11317451  2088.93784406
0.47500002 26707.82265024  2097.63249037
0.47600002 26760.86683713  1914.74011295
0.47700002 26810.45135712  2114.54039876
