# SAXS profile: number of points = 501, q_min = 0, q_max = 0.5, delta_q = 0.001
#    q    intensity    error
0.00000000 1682732.95097188 277.65093691
0.00100000 1682651.00946495 605.75437779
0.00200000 1682405.13250386 1059.91526704
0.00300000 1681995.52769864 1311.95655834
0.00400000 1681422.07105093 1387.17326133
0.00500000 1680685.28400504 1815.14017857
0.00600000 1679785.07602047 1940.15184179
0.00700000 1678721.97001376 2215.91309251
0.00800000 1677495.80969739 2264.61943870
0.00900000 1676107.85235171 3016.99426320
0.01000000 1674557.43505255 3868.22784200
0.01100000 1672845.85466232 3312.23493644
0.01200000 1670973.03032451 4561.75657279
0.01300000 1668940.13263489 4205.72931973
0.01400000 1666747.14907290 5250.25375233
0.01500000 1664395.53785248 5192.91430933
0.01600000 1661884.66497193 4237.80608512
0.01700000 1659216.82791093 5375.86276359
0.01800000 1656391.93313035 4720.71722184
0.01900000 1653410.66184889 6448.30187217
0.02000000 1650274.21798535 5198.36402181
0.02100000 1646984.53392741 9239.58365424
0.02200000 1643540.20129318 7371.27813769
0.02300000 1639944.57512487 7084.56088702
0.02400000 1636196.89969995 7976.46024974
0.02500000 1632299.96404518 6365.97015051
0.02600000 1628253.73652356 11869.97028217
0.02700000 1624060.19323607 8867.36906120
0.02800000 1619719.31075263 7750.35725738
0.02900000 1615233.66621061 7995.40701485
0.03000000 1610604.43158262 10485.03533155
0.03100000 1605832.11018663 8478.79393192
0.03200000 1600917.98024761 11094.36211410
0.03300000 1595866.07130398 8138.91733886
0.03400000 1590674.25457771 10856.35228841
0.03500000 1585345.96112068 9416.95544391
0.03600000 1579882.45314740 12275.68722826
0.03700000 1574285.37042350 12562.79783698
0.03800000 1568556.35229257 10093.66059413
0.03900000 1562697.41301908 11251.42189479
0.04000000 1556708.27730083 12445.88325375
0.04100000 1550593.27994912 12699.35955161
0.04200000 1544352.92198650 10957.18448983
0.04300000 1537988.41369682 11165.79640173
0.04400000 1531502.87765337 11371.40939469
0.04500000 1524897.94369210 12626.15556044
0.04600000 1518173.57871024 16054.68634119
0.04700000 1511334.09547467 11969.76659285
0.04800000 1504379.81065028 16585.78818412
0.04900000 1497314.39977656 19090.75948578
0.05000000 1490137.67399844 12539.50911061
0.05100000 1482854.16107291 16192.76819324
0.05200000 1475461.85875986 12902.91455615
0.05300000 1467967.25536234 16646.74945184
0.05400000 1460370.03194080 13252.85865789
0.05500000 1452672.62878567 14642.94078124
0.05600000 1444876.34422956 18530.53997946
0.05700000 1436986.51664312 13751.96160620
0.05800000 1429001.53065865 15175.99696420
0.05900000 1420924.17439623 14067.14998354
0.06000000 1412758.59018149 14219.41587449
0.06100000 1404505.65176838 16980.47412340
0.06200000 1396167.73933022 14513.16432873
0.06300000 1387747.90743932 19983.57080146
0.06400000 1379245.34187882 13447.64271222
0.06500000 1370665.59731670 21711.34407711
0.06600000 1362010.11494952 19163.48321397
0.06700000 1353279.98199356 17944.49340102
0.06800000 1344478.77883407 13915.35601230
0.06900000 1335608.79841382 21035.83955989
0.07000000 1326670.91610930 14129.04591821
0.07100000 1317668.29066758 18500.06366747
0.07200000 1308603.24103675 14329.20616063
0.07300000 1299478.49275199 15866.63313994
0.07400000 1290296.42170199 17419.00250930
0.07500000 1281058.41941475 14604.06666586
0.07600000 1271765.77613154 14688.89540294
0.07700000 1262423.96423701 16247.39718155
0.07800000 1253033.01709100 17818.13033864
0.07900000 1243594.83243234 20892.39416479
0.08000000 1234113.83959220 16493.93223990
0.08100000 1224590.96930674 19581.21051793
0.08200000 1215027.85560304 21177.93651694
0.08300000 1205427.91780964 18226.07097267
0.08400000 1195793.04701893 22869.54309770
0.08500000 1186125.15943057 21421.42138495
0.08600000 1176426.80855152 16887.60762966
0.08700000 1166701.44375506 20020.59771496
0.08800000 1156948.57972277 18534.31711760
0.08900000 1147173.46895279 17035.52681410
0.09000000 1137376.13166895 17077.70341924
0.09100000 1127559.17632842 17116.34910081
0.09200000 1117724.77961956 21829.16597165
0.09300000 1107877.86406597 24993.72578784
0.09400000 1098015.03028926 18776.05790037
0.09500000 1088142.15910262 17236.17261033
0.09600000 1078260.55051377 20395.29927171
0.09700000 1068374.58987312 17275.61793042
0.09800000 1058483.73666270 18862.18107419
0.09900000 1048591.20825641 17301.75574980
0.10000000 1038697.40850877 20457.14642262
0.10100000 1028805.25191110 18888.86531346
0.10200000 1018917.32582473 15742.27342445
0.10300000 1009034.83354920 23611.41621575
0.10400000 999161.08946522 17310.46668936
0.10500000 989298.42732321 18875.81488142
0.10600001 979444.25494840 20436.10534109
0.10700001 969606.34324803 20419.91054972
0.10800001 959782.75226378 17261.69361183
0.10900001 949977.64646419 20377.02147571
0.11000001 940190.90293110 21915.85097889
0.11100001 930425.67557311 18757.38250253
0.11200001 920682.88648856 24968.92105703
0.11300001 910964.43153505 20250.74026645
0.11400001 901272.84638299 20211.04453176
0.11500001 891609.87653090 15514.01258216
0.11600001 881975.93137589 18574.41398947
0.11700001 872374.57197410 16985.13371625
0.11800001 862804.35483514 20021.37599692
0.11900001 853268.51790636 15358.83404574
0.12000001 843768.00278853 22971.58495799
0.12100001 834307.82771885 16794.61736314
0.12200001 824885.19112590 16741.04574259
0.12300001 815504.18053949 19718.89201449
0.12400001 806163.94628352 16627.13217553
0.12500001 796866.70281621 15060.78139290
0.12600001 787616.01640194 19505.31156535
0.12700001 778410.49601182 20923.67511885
0.12800001 769252.22456309 17862.03749618
0.12900001 760143.26594584 17787.35326149
0.13000001 751084.34511480 14758.80807716
0.13100001 742075.60916060 16162.40752938
0.13200001 733120.03741294 14625.74543585
0.13300001 724218.10493026 16012.46305488
0.13400001 715369.77685561 17383.48639715
0.13500001 706578.15878318 25945.55121380
0.13600001 697843.10504059 14340.67648476
0.13700001 689166.16128274 17118.88825347
0.13800001 680546.08136497 14189.38646557
0.13900001 671987.73812444 16934.09179932
0.14000001 663488.62163157 16839.34201116
0.14100001 655052.35332476 18138.40051902
0.14200001 646677.61194614 13871.23543049
0.14300001 638367.33637896 20683.10267425
0.14400001 630117.89277254 16446.07777712
0.14500001 621936.08046045 14982.44088505
0.14600001 613818.76118420 17595.11561938
0.14700001 605768.79725891 16137.68152030
0.14800001 597783.41105915 22712.78177475
0.14900001 589866.62017935 14599.19953824
0.15000001 582017.20779121 13182.69037847
0.15100001 574236.69288162 14401.85693702
0.15200001 566526.14998132 13001.77575559
0.15300001 558885.28595651 14201.27578630
0.15400001 551312.42596279 14099.81595938
0.15500001 543811.92473456 17815.27949506
0.15600001 536380.40925058 17684.46292761
0.15700001 529023.12140974 16299.20313990
0.15800001 521734.27213942 13687.69927562
0.15900001 514519.68403318 17287.86219951
0.16000001 507374.87090437 15929.03482393
0.16100001 500304.90524953 13373.15074859
0.16200001 493307.11347487 16885.90329136
0.16300001 486381.78105936 13161.49161679
0.16400001 479530.12171071 11868.37107264
0.16500001 472750.72443086 12948.64295348
0.16600001 466045.57875317 17511.66344843
0.16700001 459412.56361779 11577.19714978
0.16800001 452853.52558453 11479.83741560
0.16900001 446369.30801659 12520.65968107
0.17000001 439957.03751665 13541.87825421
0.17100001 433618.88798136 17899.78854112
0.17200001 427353.85412412 11089.83303822
0.17300001 421162.44483276 16488.51049386
0.17400001 415044.92450744 10894.92978284
0.17500001 408999.60211664 18355.90300990
0.17600001 403026.30632222 12840.41872587
0.17700001 397128.75213065 11663.67200096
0.17800001 391302.01482337 12607.75151310
0.17900001 385547.30542360 12491.73328575
0.18000001 379866.43893298 14438.72402586
0.18100001 374257.80640328 14304.13403641
0.18200001 368718.97118490 15182.00435570
0.18300001 363252.36941340 12030.91904330
0.18400001 357856.77141994 12909.68363884
0.18500001 352532.64462841 11802.79349975
0.18600001 347279.10587159 12663.53319388
0.18700001 342094.87539875 12541.19872462
0.18800001 336979.12539298 9553.35865625
0.18900001 331936.23085185 14190.27453937
0.19000001 326958.06392407 12177.55366623
0.19100001 322051.37194933 11130.09594047
0.19200001 317210.79009199 13774.87921063
0.19300001 312440.10449788 9092.00747051
0.19400001 307734.43670387 13501.84904840
0.19500001 303096.29008850 11584.34075460
0.19600001 298522.95995785 10585.62466034
0.19700001 294017.26181052 8732.31308844
0.19800001 289575.41830036 15558.88796057
0.19900001 285198.48645580 9411.55049783
0.20000001 280883.98633144 9315.51784694
0.20100001 276634.55868045 8382.02752417
0.20200001 272446.75165340 10784.80517393
0.20300001 268321.85394080 9031.71403053
0.20400001 264258.64865016 9751.14459609
0.20500001 260255.92129122 11258.67168722
0.20600001 256313.50880028 7958.53482443
0.20700001 252431.06694722 8663.43462714
0.20800001 248607.26206934 7793.83803429
0.20900001 244844.48997044 10797.64251811
0.21000001 241136.56398250 12974.35343841
0.21100001 237487.53705705 8307.31443897
0.21200001 233893.98730117 7472.91324755
0.21300001 230356.25545007 8873.32337943
0.21400001 226874.20323772 12438.37878055
0.21500001 223447.74093364 8687.64857823
0.21600001 220073.74742547 10028.76114432
0.21700001 216753.51596024 8505.40836841
0.21800001 213486.13521633 9818.22782281
0.21900001 210269.57974440 11102.23433544
0.22000001 207103.92737455 8925.14417221
0.22100001 203990.28583129 7472.16452331
0.22200001 200926.03382956 9409.36660916
0.22300001 197910.46563787 7979.75035184
0.22400001 194942.79850155 7237.25173659
0.22500001 192024.88885960 7811.57284820
0.22600001 189152.28060114 7084.69900494
0.22700001 186327.13680305 7646.86605601
0.22800001 183546.96820245 9457.25798387
0.22900001 180811.35383838 6861.79120267
0.23000001 178120.82540179 6171.88689205
0.23100001 175474.80276274 7327.82810992
0.23200001 172870.35190682 6646.00099337
0.23300001 170309.26603414 7771.21217667
0.23400001 167788.72771748 8871.82939766
0.23500001 165309.16925841 6437.13935537
0.23600001 162870.41631544 6948.05228864
0.23700001 160471.27028357 6301.70708209
0.23800001 158110.80301703 9069.23609002
0.23900001 155788.98764856 6730.08458475
0.24000001 153504.07459888 6104.08981515
0.24100001 151257.71163990 7137.85174992
0.24200001 149047.49557763 6519.33776494
0.24300001 146872.57227081 6450.64367927
0.24400001 144732.82379872 7446.50413669
0.24500001 142627.18274515 6315.53195071
0.24600001 140555.74459633 9373.66305055
0.24700001 138518.43150629 6183.46307496
0.24800001 136513.35156809 6118.52870673
0.24900001 134539.30440274 6054.26898454
0.25000001 132597.98614362 4992.31441448
0.25100001 130687.09538317 5927.96692703
0.25200001 128808.38437735 6354.76194390
0.25300001 126957.69941661 5320.79743428
0.25400001 125137.60192574 5743.81620014
0.25500001 123344.48823271 6157.35714389
0.25600001 121581.28322099 5155.65455891
0.25700001 119844.62346991 6029.38329204
0.25800001 118135.24577755 5507.46541873
0.25900001 116453.54654265 6812.53279508
0.26000001 114796.95935651 5842.59152289
0.26100001 113165.80152259 4892.15783130
0.26200001 111560.95956971 4841.18806960
0.26300001 109979.46167503 4355.18688841
0.26400001 108423.02916311 4740.79717448
0.26500001 106890.25371018 7676.85838473
0.26600001 105380.40909896 5908.67981777
0.26700001 103893.65133355 5847.13497374
0.26800001 102429.74044185 4546.34424465
0.26900001 100986.81881443 4498.96299108
0.27000001 99566.19467940  4856.83920630
0.27100001 98166.39437841  4005.18908018
0.27200001 96787.99411171  6737.89652895
0.27300001 95429.72458743  4706.59423939
0.27400001 94090.14511189  5821.82800431
0.27500001 92772.09629351  4992.99445881
0.27600001 91470.97029243  4180.68089507
0.27700001 90190.87093499  4137.05544558
0.27800001 88928.00893414  4465.96482003
0.27900001 87683.87390051  3682.72287812
0.28000001 86457.00422845  4372.99548084
0.28100001 85247.98537905  3966.58894742
0.28200001 84056.50874983  4638.65865491
0.28300001 82881.80122087  4236.91787895
0.28400001 81722.99536960  5240.48732611
0.28500001 80581.19962053  5185.40044101
0.28600001 79455.05347178  4446.70227802
0.28700001 78345.36195431  4738.32771527
0.28800001 77249.51478385  5023.14993658
0.28900001 76170.81695297  5301.48911087
0.29000001 75106.05836535  5245.40736452
0.29100001 74056.60244497  4865.51901094
0.29200001 73021.15649424  3851.13597580
0.29300001 72000.41042250  4127.78372491
0.29400001 70992.96962114  4083.87077077
0.29500001 70000.58449435  4040.43392828
0.29600001 69020.50771323  4612.29564627
0.29700001 68054.33851379  3650.43489068
0.29800001 67101.65315636  3009.50928653
0.29900001 66162.33387236  2977.30516520
0.30000001 65234.84931491  3239.88894460
0.30100001 64321.20136156  2913.75055962
0.30200001 63418.87164152  3458.86542307
0.30300001 62529.90079340  3136.49997228
0.30400001 61652.76302320  4230.92106277
0.30500001 60788.21385053  3906.25080697
0.30600001 59934.28385324  2759.97390211
0.30700001 59093.00206243  3549.12587190
0.30800001 58263.16713434  3510.64730189
0.30900001 57444.88415480  2938.30596363
0.31000001 56638.14360167  3434.82038134
0.31100001 55842.04208913  3658.77077090
0.31200001 55057.98435906  2843.46973685
0.31300001 54284.17285223  3579.49852735
0.31400001 53522.65800967  2528.94571069
0.31500001 52770.28956996  2501.31184405
0.31600002 52030.34825605  4453.27771809
0.31700002 51300.07109155  3425.81890970
0.31800002 50580.16585808  2904.31326109
0.31900002 49871.46817671  2872.59670299
0.32000002 49173.36443911  2841.23713182
0.32100002 48484.88062799  3044.36579878
0.32200002 47807.75737573  3242.80033634
0.32300002 47139.25076454  2520.06446520
0.32400002 46482.00520699  3398.99679171
0.32500002 45834.36721734  2913.69086197
0.32600002 45196.88279859  3325.36080937
0.32700002 44569.54619195  3069.95048707
0.32800002 43952.81064941  2385.97843909
0.32900002 43344.05830252  3003.74338260
0.33000002 42746.39098150  2334.59425401
0.33100002 42157.46841008  2309.38622886
0.33200002 41579.64322759  2699.97426084
0.33300002 41010.64108011  2671.02318003
0.33400002 40451.72773315  2845.77918079
0.33500002 39902.19429755  2815.49896297
0.33600002 39361.66284991  1989.73215129
0.33700002 38830.56656792  1968.70981823
0.33800002 38309.82196211  2532.47090074
0.33900002 37797.47391784  2120.43838721
0.34000002 37294.59153364  1907.61844729
0.34100002 36801.18831410  2265.48125991
0.34200002 36317.77823686  2802.82466817
0.34300002 35842.63368303  2589.27197989
0.34400002 35377.62292120  2013.87128017
0.34500002 34921.16381096  1812.40848762
0.34600002 34474.59232134  2512.16366143
0.34700002 34035.77894105  2487.33484281
0.34800002 33607.03549826  3342.72394415
0.34900002 33186.60455222  2439.21555011
0.35000002 32775.74839114  2243.33620488
0.35100002 32374.34005990  2393.11133057
0.35200002 31980.30933842  1862.69320564
0.35300002 31596.39779928  2516.65320391
0.35400002 31220.43365654  1828.73698805
0.35500002 30854.00852307  1647.60413317
0.35600002 30495.62722669  2122.95318994
0.35700002 30145.90990664  1942.60252639
0.35800002 29805.19528280  2407.51476300
0.35900002 29473.51042503  2069.04052984
0.36000002 29150.09501717  1894.17326393
0.36100002 28834.57219289  1878.86081308
0.36200002 28529.10720442  1864.09195303
0.36300002 28230.38906085  2003.79311045
0.36400002 27940.82724301  1682.73640042
0.36500002 27658.61497721  2581.37865810
0.36600002 27385.69698512  1658.34095949
0.36700002 27120.26276040  1497.03857529
0.36800002 26863.94732595  2081.68737690
0.36900002 26615.32853842  1624.86588424
0.37000002 26374.15585486  2201.58276427
0.37100002 26140.89644463  1458.66209071
0.37200002 25916.18242422  2175.01571298
0.37300002 25699.12201317  2162.58121985
0.37400002 25489.65700489  2294.06923911
0.37500002 25287.96899565  1568.86567081
0.37600002 25094.10751359  1560.97903183
0.37700002 24907.66163072  1553.49092950
0.37800002 24728.56486469  1968.14657082
0.37900002 24557.80662011  1539.77454802
0.38000002 24393.57581297  1394.09292375
0.38100002 24235.95777365  1527.59249084
0.38200002 24086.70019728  1383.78099189
0.38300002 23943.86022570  1517.08305577
0.38400002 23808.28067822  1787.40675659
0.38500002 23679.12762712  1508.12371002
0.38600002 23557.84598852  1504.28632686
0.38700002 23442.33436280  1637.21270946
0.38800002 23333.61096706  1497.66789087
0.38900002 23231.47863126  1494.94572075
0.39000002 23136.41440325  1899.73107665
0.39100002 23046.84845766  1897.21665492
0.39200002 22964.44783135  1353.75426379
0.39300002 22887.40610198  1623.17491765
0.39400002 22817.90104895  2027.94105180
0.39500002 22752.98635994  1621.83294457
0.39600002 22694.21320222  1756.87259829
0.39700002 22640.71782713  1757.14619381
0.39800002 22594.12462167  1757.93594948
0.39900002 22551.97990777  1623.74263029
0.40000002 22515.78853381  1625.18969337
0.40100002 22484.64756914  1355.82431266
0.40200002 22459.20011804  1493.42458261
0.40300002 22438.60506662  1359.77953146
0.40400002 22423.14695008  1498.42686593
0.40500002 22412.01378936  1364.89170444
0.40600002 22406.83669026  1778.31867818
0.40700002 22405.58248909  2331.07691261
0.40800002 22408.81757575  2199.64963746
0.40900002 22416.39954212  1378.60863716
0.41000002 22428.84962684  1521.01250951
0.41100002 22445.23868429  1664.53897970
0.41200002 22464.84382414  1809.20628310
0.41300002 22489.92230644  2374.26121039
0.41400002 22517.98155109  1822.26774337
0.41500002 22549.80893850  1969.95140221
0.41600002 22584.32788074  1553.91475346
0.41700002 22623.74569548  1418.50892232
0.41800002 22667.02759980  1567.08502737
0.41900002 22711.58035712  1430.82963030
0.42000002 22760.01247444  1581.02434145
0.42100002 22812.10031698  1444.00601849
0.42200002 22866.74434132  1741.07399665
0.42300002 22923.74660996  1749.54042417
0.42400002 22983.31045434  1758.22333307
0.42500002 23046.13613904  1619.91298597
0.42600002 23109.92149796  2072.26675892
0.42700002 23177.31733079  1487.98384315
0.42800002 23246.02688419  1944.64647115
0.42900002 23317.66523467  1804.78737469
0.43000002 23391.13330604  1965.90789186
0.43100002 23464.87439944  1824.62871976
0.43200002 23541.59203258  1987.73441747
0.43300002 23619.12516705  1998.88665761
0.43400002 23698.74454153  1700.97747007
0.43500002 23778.91594756  2021.68352967
0.43600002 23861.19250981  2033.33161608
0.43700002 23943.74674027  2202.34592954
0.43800002 24026.90258403  2373.25741520
0.43900002 24111.87713935  1909.66075993
0.44000002 24196.97340607  1600.62986666
0.44100002 24283.03847125  2092.95518502
0.44200002 24369.46514130  2429.02655307
0.44300002 24456.43242563  1628.79847674
0.44400002 24543.52328571  1802.10828266
0.44500002 24630.29461057  1812.54346629
0.44600002 24717.16397473  1823.01451535
0.44700002 24804.98414569  2667.03202174
0.44800002 24891.60027977  2179.38416578
0.44900002 24978.65205303  1854.66500283
0.45000002 25065.59708412  2373.96281234
0.45100002 25151.23326433  2046.30443536
0.45200002 25236.91193155  2400.78754583
0.45300002 25321.41853441  1896.82755231
0.45400002 25405.56873918  1907.32316349
0.45500002 25489.31347462  2440.85677401
0.45600002 25571.53307332  2454.10014536
0.45700002 25653.27635452  3700.99835507
0.45800002 25733.46150143  2657.62336252
0.45900002 25812.44618484  1959.16475828
0.46000002 25890.77192849  2506.48574919
0.46100002 25966.85131746  2519.30403422
0.46200002 26042.31249932  2893.82190208
0.46300002 26116.21413752  2544.76402617
0.46400002 26187.94211382  2191.93085881
0.46500002 26259.19013924  2753.27621659
0.46600002 26327.69225963  2397.53140926
0.46700002 26394.46943771  2408.75939505
0.46800002 26460.18578276  2233.76898965
0.46900002 26523.22386816  2056.87610846
0.47000002 26584.54265935  1878.19802790
0.47100002 26644.10806379  2075.04323436
0.47200002 26701.67317218  2652.27732190
0.47300002 26757.02550584  3234.12182618
0.47400002 26809.53829884  3056.28751093
0.47500002 26860.44062263  1917.83555136
0.47600002 26909.63922704  2310.46173354
0.47700002 26955.29876704  1932.69501320
