# SAXS profile: number of points = 501, q_min = 0, q_max = 0.5, delta_q = 0.001
#    q    intensity    error
0.00000000 1700912.83420644 331.67800267
0.00100000 1700830.37924812 561.27403848
0.00200000 1700582.96599629 994.84106661
0.00300000 1700170.80342288 1122.11277023
0.00400000 1699593.75642566 1657.10397548
0.00500000 1698852.35714255 2140.55405473
0.00600000 1697946.52335685 2317.69709874
0.00700000 1696876.75861099 2647.12785345
0.00800000 1695642.92725175 2975.85346297
0.00900000 1694246.27124350 3557.91732170
0.01000000 1692686.14585790 4747.98484415
0.01100000 1690963.82993450 3348.10852904
0.01200000 1689079.26667675 4281.81612876
0.01300000 1687033.63968564 4605.60203947
0.01400000 1684826.86580064 5307.20486255
0.01500000 1682460.47883774 5653.06746062
0.01600000 1679933.81146043 5140.59769287
0.01700000 1677249.19718971 5887.14494623
0.01800000 1674406.54394513 5249.26475147
0.01900000 1671406.51091348 5014.21975899
0.02000000 1668250.28642296 5254.98863995
0.02100000 1664939.87120558 7142.59237131
0.02200000 1661473.79665650 6878.50183066
0.02300000 1657855.39435153 7758.76359873
0.02400000 1654084.02129877 7443.37843524
0.02500000 1650162.45695123 7722.76065124
0.02600000 1646090.53254389 6666.66696172
0.02700000 1641870.41819466 8964.61289393
0.02800000 1637501.91012967 10684.70045359
0.02900000 1632987.83167950 10287.82381194
0.03000000 1628329.07751088 9843.24972600
0.03100000 1623526.21952852 7792.92621231
0.03200000 1618580.82400669 10415.56808220
0.03300000 1613496.64155537 9874.59990154
0.03400000 1608271.53425361 9287.76853886
0.03500000 1602909.10459913 12983.56434681
0.03600000 1597410.53020837 10638.75462284
0.03700000 1591777.46872057 9073.13199132
0.03800000 1586011.56150488 15772.88570913
0.03900000 1580114.80258181 10428.75818000
0.04000000 1574086.94623169 13552.88923508
0.04100000 1567932.44996638 9877.97489280
0.04200000 1561651.61334985 12087.18404809
0.04300000 1555245.84191651 12317.54763973
0.04400000 1548718.09871630 12544.61718220
0.04500000 1542070.06335438 13832.36911101
0.04600000 1535301.75523430 15153.42902860
0.04700000 1528417.55781513 14305.98900649
0.04800000 1521417.73788632 12300.66298314
0.04900000 1514305.92852222 13628.75399108
0.05000000 1507081.96631275 13835.01309499
0.05100000 1499750.36097047 12867.85869656
0.05200000 1492309.17451261 15423.01603732
0.05300000 1484765.01648770 13229.25691363
0.05400000 1477117.26443273 13404.83979985
0.05500000 1469368.69193605 14811.23710565
0.05600000 1461520.54731630 13745.60138894
0.05700000 1453577.87802160 20233.80500654
0.05800000 1445539.30982383 15351.62818713
0.05900000 1437407.76685312 20698.67280943
0.06000000 1429187.13607734 17000.18177787
0.06100000 1420878.59607580 14535.58871712
0.06200000 1412484.22642810 13347.97656368
0.06300000 1404007.27367436 20217.70568620
0.06400000 1395446.83024972 17687.28940059
0.06500000 1386808.63360094 16475.28733786
0.06600000 1378093.70495893 18004.79509771
0.06700000 1369303.93393620 15363.59085776
0.06800000 1360442.10188993 19712.80697912
0.06900000 1351510.94821069 14190.86562061
0.07000000 1342511.12963351 14297.74420014
0.07100000 1333446.15690352 15841.34108599
0.07200000 1324317.85266372 14501.28116601
0.07300000 1315129.51558439 26276.28895257
0.07400000 1305883.18399967 20567.66111188
0.07500000 1296580.25277599 20693.42180426
0.07600000 1287222.04098620 22301.12290558
0.07700000 1277814.27806019 14950.42775431
0.07800000 1268356.70160819 15030.02761891
0.07900000 1258851.26072749 16616.83742099
0.08000000 1249302.71550883 16696.93157605
0.08100000 1239711.59283888 16773.29863808
0.08200000 1230079.80404504 16845.94370690
0.08300000 1220410.47738470 18452.60728407
0.08400000 1210705.96021251 27785.70309110
0.08500000 1200967.70938405 20140.22943186
0.08600000 1191198.72185010 26426.74488502
0.08700000 1181402.26791409 17153.96173562
0.08800000 1171577.75196227 20332.73284021
0.08900000 1161730.47827971 17251.69841276
0.09000000 1151860.69629308 17295.18916729
0.09100000 1141970.95562305 22062.87989918
0.09200000 1132063.20628958 22109.19545767
0.09300000 1122142.25299396 22151.08911503
0.09400000 1112205.46725434 17433.82151856
0.09500000 1102258.17170252 19047.02210228
0.09600000 1092301.59959394 15892.98902119
0.09700000 1082340.62914074 15910.40799636
0.09800000 1072374.11573060 19109.70764081
0.09900000 1062405.75255485 20716.91314898
0.10000000 1052435.80287628 15944.40316340
0.10100000 1042467.03756807 15949.74642494
0.10200000 1032502.27795022 27118.67360592
0.10300000 1022542.60614026 17546.83194678
0.10400000 1012591.74729673 15948.32077021
0.10500000 1002651.36222336 23913.23611413
0.10600001 992719.15926913 22306.40055837
0.10700001 982803.28651124 15921.41399071
0.10800001 972901.22270366 19088.32288777
0.10900001 963017.45603625 31779.57754492
0.11000001 953151.97975074 25391.96993575
0.11100001 943307.77942822 19017.08572847
0.11200001 933485.71932701 20569.35879372
0.11300001 923688.04494885 26851.61273086
0.11400001 913916.82009525 17341.57247783
0.11500001 904174.30825487 17305.89707490
0.11600001 894460.38083503 18837.33650746
0.11700001 884779.15768531 15660.59182856
0.11800001 875128.68416851 20307.36207257
0.11900001 865512.61846489 15579.22786618
0.12000001 855931.84235111 18642.19640455
0.12100001 846391.31596036 20135.65035525
0.12200001 836888.12071859 21616.82117656
0.12300001 827426.85672311 24624.22441624
0.12400001 818005.72020405 21472.65116709
0.12500001 808627.86924100 21396.29442832
0.12600001 799296.52802688 18271.91949173
0.12700001 790010.30239004 16685.01837278
0.12800001 780771.20422539 22661.88527068
0.12900001 771581.46493732 22568.75891313
0.13000001 762441.75274453 19476.57549188
0.13100001 753352.08574609 20882.92080125
0.13200001 744315.97777078 19303.83579347
0.13300001 735333.28045315 16258.21959728
0.13400001 726404.25881673 14709.68693454
0.13500001 717532.11970154 17565.18711846
0.13600001 708716.35065681 20389.77036979
0.13700001 699958.89929608 14489.14989864
0.13800001 691258.20370633 15854.00764961
0.13900001 682619.70344254 15768.51589314
0.14000001 674040.33137357 17107.14441704
0.14100001 665523.88736754 17010.79136339
0.14200001 657069.12244337 15503.54667528
0.14300001 648679.07124992 18214.90917985
0.14400001 640349.78790964 15320.36939840
0.14500001 632088.47749124 13842.73831005
0.14600001 623891.51551337 16508.17027925
0.14700001 615762.33752572 15036.91699177
0.14800001 607697.84379259 17656.66168441
0.14900001 599701.96036951 16191.95369393
0.15000001 591773.65646485 16084.40874162
0.15100001 583914.76237335 25295.18869957
0.15200001 576125.71404489 17188.71148961
0.15300001 568406.73128988 15756.23533488
0.15400001 560755.76321274 13037.57210995
0.15500001 553177.27344256 20710.95809510
0.15600001 545668.42375514 15420.59038309
0.15700001 538233.97869814 16582.98966635
0.15800001 530867.85527284 12661.19894585
0.15900001 523576.60818922 15079.00702759
0.16000001 516355.14565607 19951.96376993
0.16100001 509208.86410086 16085.90877627
0.16200001 502134.94391839 12277.19995836
0.16300001 495133.84765330 15834.38119546
0.16400001 488206.73483887 14499.74070924
0.16500001 481352.28318863 14382.80690071
0.16600001 474572.50255537 14265.65010034
0.16700001 467864.80648119 12969.21304800
0.16800001 461231.33451921 11692.21488213
0.16900001 454673.44933802 17391.26025836
0.17000001 448187.62981232 17244.01987129
0.17100001 441776.19962135 12537.60913730
0.17200001 435438.01181821 13559.54032834
0.17300001 429174.24002284 14561.88265165
0.17400001 422984.40172598 17765.34571148
0.17500001 416867.16241695 13206.35232907
0.17600001 410822.31371231 16360.99941631
0.17700001 404853.54258278 11890.54910725
0.17800001 398955.92117341 16067.95048418
0.17900001 393130.72804143 12737.43619018
0.18000001 387380.07500007 10517.36953304
0.18100001 381701.84470116 14588.64519359
0.18200001 376093.51425310 14453.27443549
0.18300001 370558.17249720 16363.84967049
0.18400001 365093.97596668 13170.76580519
0.18500001 359701.77297018 12042.81592797
0.18600001 354380.60614854 12922.48941371
0.18700001 349128.95373130 11814.52435244
0.18800001 343946.16097416 10725.96153674
0.18900001 338836.74725454 10622.53252832
0.19000001 333792.72031325 10519.47807770
0.19100001 328820.28312808 11364.02952186
0.19200001 323914.45769383 14065.98598999
0.19300001 319078.99311786 11142.23896618
0.19400001 314308.94073009 10112.89064586
0.19500001 309606.88767177 10922.93151322
0.19600001 304970.07856740 11715.42612179
0.19700001 300401.31528285 11598.49533119
0.19800001 295896.76194700 10599.02251384
0.19900001 291457.61943213 13989.96639391
0.20000001 287081.46749309 9521.05731938
0.20100001 282770.88769332 11995.14162287
0.20200001 278522.06808143 11873.39632349
0.20300001 274336.83836045 12592.06147590
0.20400001 270213.70386310 9139.97896518
0.20500001 266151.38319785 12336.11719431
0.20600001 262149.99609141 8953.73353973
0.20700001 258208.94925941 10472.95547701
0.20800001 254326.96895303 12757.04136571
0.20900001 250506.65781018 10258.24812225
0.21000001 246741.50891864 9371.24295173
0.21100001 243035.74101449 10047.09800850
0.21200001 239385.88493927 9178.05526246
0.21300001 235792.39295363 8325.82978880
0.21400001 232255.02627316 7490.22495142
0.21500001 228773.58756041 8153.49104613
0.21600001 225345.24158769 8068.48675651
0.21700001 221971.07131257 10161.83612514
0.21800001 218650.17032260 8619.19012164
0.21900001 215380.52153808 7818.31330149
0.22000001 212162.32944582 8439.81786441
0.22100001 208996.54312849 10439.37782288
0.22200001 205880.82596425 8264.05674497
0.22300001 202814.04552429 9540.37315258
0.22400001 199795.53291147 8091.71946554
0.22500001 196827.50532684 8674.18856993
0.22600001 193905.03098638 8583.20660250
0.22700001 191030.57552422 7839.89519026
0.22800001 188201.41368060 7757.66263877
0.22900001 185417.56544125 8315.97820331
0.23000001 182679.05890897 6962.81265960
0.23100001 179985.70942217 10647.95507299
0.23200001 177334.19846625 8057.17968837
0.23300001 174726.57885686 9199.35481189
0.23400001 172159.68432438 9102.94373918
0.23500001 169634.65548464 6605.57379699
0.23600001 167150.73910755 6536.42996195
0.23700001 164706.64536174 9408.04402804
0.23800001 162301.88417834 6400.37510530
0.23900001 159936.17467841 6333.47281684
0.24000001 157607.98573102 6837.03474441
0.24100001 155318.54088554 6765.67596100
0.24200001 153065.79544120 7253.02306006
0.24300001 150848.82585840 6625.28074510
0.24400001 148667.28304835 6556.22749257
0.24500001 146520.42053709 6487.92452829
0.24600001 144408.12127847 5885.35326111
0.24700001 142330.57943536 6353.63736656
0.24800001 140285.52881510 5763.63122403
0.24900001 138271.83292732 6222.23277609
0.25000001 136291.52407935 5644.51373678
0.25100001 134341.80855641 5585.93266404
0.25200001 132424.97280176 5528.08075114
0.25300001 130536.37512720 6962.81057870
0.25400001 128678.86961561 6890.75379393
0.25500001 126848.62662513 5358.08624215
0.25600001 125048.81802100 4820.63216279
0.25700001 123276.03690045 5247.86113915
0.25800001 121530.72148159 6137.90937884
0.25900001 119813.66302187 5140.00638684
0.26000001 118121.96902139 7861.60802019
0.26100001 116456.24517757 5492.07678244
0.26200001 114816.95404901 4982.48195671
0.26300001 113201.66775007 5827.62213152
0.26400001 111611.67585046 4880.22075748
0.26500001 110045.85388505 4829.91275556
0.26600001 108503.22173126 4780.10965956
0.26700001 106984.07517427 4300.76002552
0.26800001 105488.18020291 6810.31723617
0.26900001 104013.60411564 5476.31651584
0.27000001 102561.62824712 5002.95646265
0.27100001 101130.88207468 4951.36822069
0.27200001 99721.88879172  5717.05615498
0.27300001 98333.51002331  4445.65819854
0.27400001 96963.81172568  5199.68464986
0.27500001 95616.34400449  5541.92356077
0.27600001 94286.27073567  4309.35420792
0.27700001 92977.17853946  5428.00794002
0.27800001 91685.76186654  4988.16411042
0.27900001 90413.28638976  4936.56567052
0.28000001 89158.59501126  4133.83845334
0.28100001 87921.88135003  3719.09575713
0.28200001 86703.27869362  3680.55435474
0.28300001 85501.57589872  4370.84076682
0.28400001 84316.11800058  4325.41705816
0.28500001 83148.01743327  3567.05011672
0.28600001 81995.87220153  5294.88369803
0.28700001 80860.46558840  3493.17227876
0.28800001 79739.11911163  4148.02917253
0.28900001 78635.37965388  3762.70309454
0.29000001 77545.69014277  4061.84344194
0.29100001 76471.62159073  6029.02293160
0.29200001 75411.94514141  3977.22617502
0.29300001 74367.16878290  4263.46998814
0.29400001 73335.95560061  3245.11618894
0.29500001 72320.05673115  3853.21280504
0.29600001 71316.78186020  3494.87906050
0.29700001 70327.62799820  3772.37414440
0.29800001 69352.28424189  4043.58512414
0.29900001 68390.53862786  3385.33182234
0.30000001 67440.75144862  3653.94008646
0.30100001 66505.17162518  4217.75818414
0.30200001 65581.08696331  3576.79265231
0.30300001 64670.65886669  2948.98218393
0.30400001 63772.27612244  4084.61447901
0.30500001 62886.73477085  3752.45164143
0.30600001 62011.91930210  3141.21392096
0.30700001 61150.05733650  3107.64606097
0.30800001 60299.90491074  3353.88086992
0.30900001 59461.56211213  3041.45904603
0.31000001 58635.00782904  3555.92021815
0.31100001 57819.08806088  2705.93344936
0.31200001 57015.47128805  3212.25180445
0.31300001 56222.28825421  3177.68388258
0.31400001 55441.66388263  3143.54249098
0.31500001 54670.34362595  2850.51185162
0.31600002 53911.68996750  4101.60156693
0.31700002 53162.94445230  3550.22159862
0.31800002 52424.58789298  2759.36831440
0.31900002 51697.69274608  2977.78724317
0.32000002 50981.70639428  2454.76927912
0.32100002 50275.34935080  3399.61928407
0.32200002 49580.55612394  2642.39586374
0.32300002 48894.62731417  2613.90689999
0.32400002 48220.21928017  3761.17728195
0.32500002 47555.26981997  3023.08864560
0.32600002 46900.71550799  2990.62426598
0.32700002 46256.54036724  3186.15065137
0.32800002 45623.15477573  2701.80335376
0.32900002 44997.85799444  2450.13348382
0.33000002 44383.77087243  2644.38519380
0.33100002 43778.50521346  3270.25449431
0.33200002 43184.62585580  2588.48659637
0.33300002 42599.64731291  2561.09091773
0.33400002 42024.82386290  2956.44649876
0.33500002 41459.59368523  2716.43270690
0.33600002 40903.50773139  2481.20689649
0.33700002 40356.91952917  2455.31510043
0.33800002 39820.73240139  2429.86120620
0.33900002 39293.24719430  2204.35127199
0.34000002 38775.27347712  2578.36193197
0.34100002 38267.03075174  2552.02840169
0.34200002 37768.62868114  2331.83524521
0.34300002 37278.74432520  2885.37494742
0.34400002 36798.95401948  1904.34596070
0.34500002 36328.05225004  2451.05380139
0.34600002 35867.09025890  2053.57035003
0.34700002 35413.79981760  2588.04061324
0.34800002 34970.92041096  2013.80054724
0.34900002 34536.34138469  2719.73701286
0.35000002 34111.43034014  2334.75696021
0.35100002 33696.03256272  1779.15060358
0.35200002 33288.08009433  2115.12470937
0.35300002 32890.41898552  2445.07386319
0.35400002 32500.72660806  2769.06203816
0.35500002 32120.56509800  1715.23825747
0.35600002 31748.80338039  1870.16335170
0.35700002 31385.53477864  1853.94362719
0.35800002 31031.56660290  2172.36492293
0.35900002 30686.57271689  2485.61250780
0.36000002 30349.95233349  2136.48499571
0.36100002 30021.29285769  1793.17190733
0.36200002 29702.75564330  2102.50965780
0.36300002 29391.05767652  1765.22700767
0.36400002 29088.44727373  1592.59256367
0.36500002 28793.55273064  2054.99595573
0.36600002 28507.74563802  1726.28661888
0.36700002 28229.63879232  1869.93136218
0.36800002 27960.60083271  1857.14319528
0.36900002 27699.34284794  1537.31360088
0.37000002 27445.58569092  1985.55099086
0.37100002 27199.88048721  2428.40544493
0.37200002 26962.81144090  1659.42630874
0.37300002 26733.32589384  1649.71361906
0.37400002 26511.50263193  2236.90814053
0.37500002 26297.56079493  2076.45549873
0.37600002 26091.55224802  1770.57281943
0.37700002 25892.96827196  2349.01019291
0.37800002 25701.68851295  1607.25516730
0.37900002 25518.90027991  1890.95060032
0.38000002 25342.64745580  2172.49855607
0.38100002 25173.03961158  1442.41523808
0.38200002 25011.90155472  1868.01395611
0.38300002 24857.24924419  1718.13314915
0.38400002 24709.89984459  1712.39614035
0.38500002 24568.97461491  1422.54369760
0.38600002 24435.95258183  1985.90996041
0.38700002 24308.83735962  1697.72928163
0.38800002 24188.40914525  1552.53311454
0.38900002 24074.69051013  1690.04335388
0.39000002 23968.11796168  1686.87622206
0.39100002 23867.01987568  2245.40933628
0.39200002 23773.25218835  1681.71993948
0.39300002 23684.77602238  2659.56362555
0.39400002 23603.88248756  1678.23612438
0.39500002 23527.53666527  1537.28931854
0.39600002 23457.56953488  2235.03733117
0.39700002 23392.84775939  1536.20838514
0.39800002 23335.07514589  1536.26474502
0.39900002 23281.77325162  2095.35969192
0.40000002 23234.49495558  2096.33240669
0.40100002 23192.14874370  1818.03262616
0.40200002 23155.66622457  1819.68811647
0.40300002 23124.09303560  1961.84814609
0.40400002 23097.68928481  1824.14009770
0.40500002 23075.76693643  1405.31427301
0.40600002 23059.58813266  1830.12429886
0.40700002 23047.60174421  1551.56462293
0.40800002 23039.94100723  1554.85049254
0.40900002 23036.80157763  1841.79237340
0.41000002 23038.58890126  1562.36198037
0.41100002 23044.36105213  1851.38405465
0.41200002 23053.27209388  1999.41038344
0.41300002 23067.82299118  1862.26543832
0.41400002 23085.26777557  1724.46958455
0.41500002 23106.58180047  1730.22092720
0.41600002 23130.61297245  2459.59384697
0.41700002 23159.63628350  2178.16389567
0.41800002 23192.57052467  1894.94906451
0.41900002 23226.73595903  1755.94132171
0.42000002 23264.83713205  1763.00944141
0.42100002 23306.90299217  2065.45784104
0.42200002 23351.16887320  1481.63173521
0.42300002 23398.08993335  1785.74230833
0.42400002 23447.55909029  1644.26015912
0.42500002 23500.29402426  1651.83574524
0.42600002 23554.12342696  1659.50584468
0.42700002 23611.39850395  1667.43704136
0.42800002 23670.19793433  1827.81277110
0.42900002 23732.08389386  1989.93532880
0.43000002 23795.69587805  1692.23099256
0.43100002 23859.64779199  2164.54735026
0.43200002 23926.56837540  1864.83682755
0.43300002 23994.49459578  2343.06250831
0.43400002 24064.41892854  1570.20340950
0.43500002 24135.13277140  1894.12530966
0.43600002 24207.79577075  1904.18530556
0.43700002 24280.85706817  3030.97953145
0.43800002 24354.62628657  1603.75221697
0.43900002 24430.25975937  2096.11638669
0.44000002 24506.00522802  2107.39401945
0.44100002 24582.79312560  2118.79103990
0.44200002 24660.05691497  2130.25911755
0.44300002 24737.78709736  2306.55137827
0.44400002 24815.78986331  1822.09945706
0.44500002 24893.62495870  2164.99866526
0.44600002 24971.41948924  2344.06725854
0.44700002 25050.41181888  2356.74285561
0.44800002 25128.01804488  1692.37209553
0.44900002 25206.34544786  1871.57123820
0.45000002 25284.57688733  2394.70239049
0.45100002 25361.57704945  1719.51500544
0.45200002 25438.62380295  2074.26548320
0.45300002 25514.54516657  2432.55685147
0.45400002 25590.20737839  1921.18490998
0.45500002 25665.53825433  1931.07518978
0.45600002 25739.41302261  2293.76790022
0.45700002 25812.84700031  1773.34267297
0.45800002 25884.82522548  2673.25545186
0.45900002 25955.61690810  2865.50024246
0.46000002 26025.77470783  2699.52360951
0.46100002 26093.87240982  2169.96653245
0.46200002 26161.27073205  2180.28040614
0.46300002 26227.38981376  2373.05434282
0.46400002 26291.28852610  2750.72619241
0.46500002 26354.77718341  1842.19901243
0.46600002 26415.60585257  2405.53726098
0.46700002 26474.72313924  1858.52565246
0.46800002 26532.98079218  2986.55245952
0.46900002 26588.51066642  2249.38810899
0.47000002 26642.44669567  2635.20452757
0.47100002 26694.69648210  2078.98306056
0.47200002 26744.98091133  2087.31213416
0.47300002 26793.19212371  2095.49565532
0.47400002 26838.66651891  2294.70609613
0.47500002 26882.45826156  2111.34837194
0.47600002 26924.65900299  2311.75133157
0.47700002 26963.59369297  2126.61873536
