# SAXS profile: number of points = 501, q_min = 0, q_max = 0.5, delta_q = 0.001
#    q    intensity    error
0.00000000 1700912.83420644 280.65061764
0.00100000 1700830.37344826 663.32386140
0.00200000 1700582.94111827 1071.36728683
0.00300000 1700170.75030438 1122.11273517
0.00400000 1699593.66048796 1784.57341132
0.00500000 1698852.20898414 2293.45057291
0.00600000 1697946.29801065 2317.69679114
0.00700000 1696876.47232459 2850.75259198
0.00800000 1695642.54900270 3204.76455292
0.00900000 1694245.78443318 3812.05317793
0.01000000 1692685.54162006 4189.39689641
0.01100000 1690963.10567264 3652.48046728
0.01200000 1689078.41622553 3952.44366726
0.01300000 1687032.62465956 3897.04553484
0.01400000 1684825.70334055 3790.85800057
0.01500000 1682459.13747060 5249.27274265
0.01600000 1679932.29836470 5568.97581803
0.01700000 1677247.50635552 6339.99585843
0.01800000 1674404.61023655 5249.25868930
0.01900000 1671404.38423669 6017.05605476
0.02000000 1668247.93064087 6831.47558500
0.02100000 1664937.28517333 6043.72261919
0.02200000 1661470.97127689 6878.49013359
0.02300000 1657852.26237772 8952.40262434
0.02400000 1654080.60241487 9304.20381283
0.02500000 1650158.80763077 9009.86750115
0.02600000 1646086.56981996 7333.31600396
0.02700000 1641866.16111986 11033.34110806
0.02800000 1637497.31424235 8547.73637234
0.02900000 1632982.89502627 7348.42336502
0.03000000 1628323.81546581 9086.04730794
0.03100000 1623520.64043869 10130.76926249
0.03200000 1618574.84589572 11216.72419868
0.03300000 1613490.27828791 8228.80079862
0.03400000 1608264.82952172 10976.40796794
0.03500000 1602901.94351914 9521.23798418
0.03600000 1597403.05484993 10638.70483695
0.03700000 1591769.50629193 11795.01258711
0.03800000 1586003.17086488 11133.74277474
0.03900000 1580105.98868490 11376.76364539
0.04000000 1574077.70841319 11616.69402640
0.04100000 1567922.76903315 11853.49668350
0.04200000 1561641.48006852 11079.84681511
0.04300000 1555235.14039598 19502.64956584
0.04400000 1548706.97221719 18816.79058633
0.04500000 1542058.46617238 12768.24469318
0.04600000 1535289.67117300 14070.93049041
0.04700000 1528404.96613194 17607.22602872
0.04800000 1521404.61040138 12300.55684742
0.04900000 1514292.28166915 12492.91190528
0.05000000 1507067.77859060 13834.88285170
0.05100000 1499735.62336424 12867.73224790
0.05200000 1492293.89873625 16609.23186695
0.05300000 1484749.12051018 13229.11528046
0.05400000 1477100.76729029 12186.08189843
0.05500000 1469351.68555118 14811.06568128
0.05600000 1461502.98849787 14995.02136172
0.05700000 1453559.73155326 18968.95538221
0.05800000 1445520.55723068 14072.14328170
0.05900000 1437388.41666578 18111.09489588
0.06000000 1429167.13022020 15692.25582294
0.06100000 1420857.94487886 15856.77540586
0.06200000 1412462.96209593 14682.55317730
0.06300000 1403985.40771061 14826.08659862
0.06400000 1395424.20955682 14965.92534740
0.06500000 1386785.40282350 17847.92896923
0.06600000 1378069.91789288 15234.56365511
0.06700000 1369279.42568391 18156.64603428
0.06800000 1360416.89136742 19712.44167864
0.06900000 1351485.06716911 19866.83141753
0.07000000 1342484.61455717 17156.95417747
0.07100000 1333418.90582521 18721.20231465
0.07200000 1324289.88843921 17401.16994928
0.07300000 1315100.96647611 20436.66997661
0.07400000 1305853.75858524 19098.11211433
0.07500000 1296550.26297475 19214.87579793
0.07600000 1287191.25595683 22300.58955492
0.07700000 1277782.74135226 17940.07052977
0.07800000 1268324.50544182 16532.61070375
0.07900000 1258818.41254288 16616.40382494
0.08000000 1249269.11056615 25803.65468922
0.08100000 1239677.31520389 16772.83486166
0.08200000 1230044.79990145 16845.46432513
0.08300000 1220374.70165046 16914.39415870
0.08400000 1210669.39129672 15436.03546358
0.08500000 1200930.34961590 15492.00223732
0.08600000 1191160.73126948 17099.11310020
0.08700000 1181363.53709587 18712.79930631
0.08800000 1171538.12287112 17204.03814233
0.08900000 1161690.15406412 23524.22672472
0.09000000 1151819.61448966 15722.33847635
0.09100000 1141929.13894396 17334.48514356
0.09200000 1132020.75348177 17370.85927838
0.09300000 1122098.98222019 15821.59639280
0.09400000 1112161.34641238 23772.44989681
0.09500000 1102213.30428652 15871.87232775
0.09600000 1092256.03520265 20660.02387704
0.09700000 1082294.20349835 19091.67064726
0.09800000 1072327.03061065 15924.05715328
0.09900000 1062357.84464446 25496.58947038
0.10000000 1052387.14880325 15943.66605415
0.10100000 1042417.57902635 19138.78765106
0.10200000 1032452.11167829 19141.66305087
0.10300000 1022491.69968614 17545.95839199
0.10400000 1012540.04222357 15947.50641527
0.10500000 1002598.82713006 20723.71873182
0.10600001 992665.96371766 17525.51841407
0.10700001 982749.47080363 20696.70482906
0.10800001 972846.65535684 19087.25227638
0.10900001 962962.09682112 19066.65041444
0.11000001 953095.93668906 15869.04809282
0.11100001 943250.83155717 19015.93765934
0.11200001 933428.11907767 17403.76809952
0.11300001 923629.78976283 20532.29119310
0.11400001 913857.80761135 18916.85750824
0.11500001 904114.62992026 17304.75483152
0.11600001 894399.93080648 20405.73538229
0.11700001 884717.99570609 20357.36203993
0.11800001 875066.80379762 23429.91477519
0.11900001 865450.02045994 18693.72132244
0.12000001 855868.54345413 18640.81775450
0.12100001 846327.37988605 18585.35013782
0.12200001 836823.48470804 20071.21222630
0.12300001 827361.59971125 18466.71177560
0.12400001 817939.80205066 19937.28361438
0.12500001 808561.30459444 18338.17125231
0.12600001 799229.21554190 21315.44418296
0.12700001 789942.48350635 21233.65495732
0.12800001 780702.72424764 21149.23779662
0.12900001 771512.26980346 15044.48997025
0.13000001 762372.05871316 14980.61165982
0.13100001 753281.66812252 14914.97773188
0.13200001 744244.91089019 22271.53000828
0.13300001 735261.57826935 19212.38594591
0.13400001 726332.04593033 14708.22462352
0.13500001 717459.34570168 20490.63987934
0.13600001 708643.08952248 16018.87779396
0.13700001 699885.00712847 17385.14439684
0.13800001 691183.80374177 18734.53788386
0.13900001 682544.82245071 15766.78614214
0.14000001 673964.83103819 21381.53527305
0.14100001 665447.91365064 15591.44535217
0.14200001 656992.58300459 22547.98651220
0.14300001 648602.20638681 23816.67414190
0.14400001 640272.40772821 15318.51807747
0.14500001 632010.55687499 19377.44458786
0.14600001 623813.24900944 17881.60762641
0.14700001 615683.62678746 20502.26573925
0.14800001 607618.76920812 19012.39218550
0.14900001 599622.35625055 18888.10511305
0.15000001 591693.59726578 24123.34909874
0.15100001 583834.41031313 14642.56770156
0.15200001 576045.04961544 14542.25796375
0.15300001 568325.58549000 14441.15380876
0.15400001 560674.43443878 16946.38558063
0.15500001 553095.61228228 15530.92552584
0.15600001 545586.30500670 15418.26970715
0.15700001 538151.66968031 19131.29276007
0.15800001 530785.27414604 12659.22938588
0.15900001 523493.64451833 13820.23286761
0.16000001 516272.01034206 14961.56356594
0.16100001 509125.45012254 13608.92392417
0.16200001 502051.23557303 17185.21460491
0.16300001 495049.98229075 13396.05315319
0.16400001 488122.69912616 16913.45232320
0.16500001 481268.11119644 13181.93418801
0.16600001 474488.19057318 11885.92973503
0.16700001 467780.40435115 11788.06674622
0.16800001 461146.70047731 12859.07634997
0.16900001 454588.72506994 12751.21434030
0.17000001 448102.81727029 12643.22158629
0.17100001 441691.38666023 13674.76597674
0.17200001 435353.17329136 15816.38153257
0.17300001 429089.37063322 16798.84965361
0.17400001 422899.46158675 14431.44480819
0.17500001 416782.29516065 16504.57966783
0.17600001 410737.49725182 14176.60538719
0.17700001 404768.73357703 14049.52340603
0.17800001 398871.06353705 13922.59513035
0.17900001 393045.94503742 15918.36152590
0.18000001 387295.56410600 15772.61259324
0.18100001 381617.35088810 15627.23125704
0.18200001 376009.17281090 14450.03319371
0.18300001 370473.99236686 13292.60747406
0.18400001 365010.00986740 12154.83390279
0.18500001 359617.94843991 18060.01422384
0.18600001 354296.98707068 11925.63714821
0.18700001 349045.63049696 11811.70469406
0.18800001 343863.08932735 10723.37094731
0.18900001 338753.95531197 15447.18109207
0.19000001 333710.24181154 11472.95865556
0.19100001 328738.08534869 13254.72022755
0.19200001 323832.56079946 14062.42961719
0.19300001 318997.40849533 12067.67253361
0.19400001 314227.77946286 12867.62817705
0.19500001 309526.13376152 15470.11689644
0.19600001 304889.77084796 18018.98630863
0.19700001 300321.45521890 10703.45716982
0.19800001 295817.35009534 10596.17798118
0.19900001 291378.62687908 13986.17475118
0.20000001 287003.03788312 16440.96980215
0.20100001 282692.98174753 8565.59775178
0.20200001 278444.72829746 8478.64237739
0.20300001 274260.01028559 10910.06372482
0.20400001 270137.44223183 12460.09011188
0.20500001 266075.68543365 9043.91297537
0.20600001 262074.88197464 8951.16801695
0.20700001 258134.49790732 11275.31540157
0.20800001 254253.28839615 9565.00916160
0.20900001 250433.56305547 10255.25489190
0.21000001 246669.20592572 10929.91303125
0.21100001 242964.15825721 8498.88665761
0.21200001 239314.88124518 8410.72189897
0.21300001 235722.15935373 10593.35434216
0.21400001 232185.59328461 11231.97860615
0.21500001 228705.05917772 8151.04869446
0.21600001 225277.40670857 7332.77993505
0.21700001 221904.13883491 12335.65166106
0.21800001 218584.13621035 8616.58705681
0.21900001 215315.29602572 12079.18867817
0.22000001 212097.95708554 7734.15237081
0.22100001 208933.12569586 9044.71543904
0.22200001 205818.37618851 10326.93751356
0.22300001 202752.44631305 12262.46853285
0.22400001 199734.92681775 8089.26491863
0.22500001 196767.88941281 8004.51811982
0.22600001 193846.37796890 13860.98591213
0.22700001 190972.97922566 9796.91429756
0.22800001 188144.84895175 14218.10690766
0.22900001 185361.99648578 7034.48809930
0.23000001 182624.64789944 8226.32765367
0.23100001 179932.37270146 6261.64686614
0.23200001 177281.95696300 6815.60515778
0.23300001 174675.48781597 7357.33189477
0.23400001 172109.76996636 6673.55664607
0.23500001 169585.83769701 7204.00672609
0.23600001 167103.08800602 7722.66957746
0.23700001 164660.13379850 6466.20376010
0.23800001 162256.63087393 5816.90049196
0.23900001 159892.22493166 5756.12036980
0.24000001 157565.25906872 7974.37813866
0.24100001 155276.98761887 7327.52139234
0.24200001 153025.57984076 6693.33917884
0.24300001 150809.79398488 5519.63872094
0.24400001 148629.55279591 8739.41811781
0.24500001 146483.94632241 7026.83523749
0.24600001 144373.04213812 9628.23863566
0.24700001 142296.76911396 7410.81608603
0.24800001 140253.07358527 5762.29780085
0.24900001 138240.71116195 6220.83229658
0.25000001 136261.78424964 6669.33334561
0.25100001 134313.45208704 8630.98283944
0.25200001 132397.92404868 6029.40174643
0.25300001 130510.78201845 6464.19933920
0.25400001 128654.66484001 5905.24939554
0.25500001 126825.85243375 6331.14685303
0.25600001 125027.50878450 4819.81069168
0.25700001 123256.03493152 4770.00877754
0.25800001 121512.23743812 5192.82571261
0.25900001 119796.65109386 5606.48353646
0.26000001 118106.41487937 6011.02626970
0.26100001 116442.14011609 6864.26448463
0.26200001 114804.30454051 5887.73903695
0.26300001 113190.47957372 8068.21776578
0.26400001 111602.00090319 4879.79772040
0.26500001 110037.66332601 4390.50297446
0.26600001 108496.50239944 5648.87066473
0.26700001 106978.94028609 5590.71968391
0.26800001 105484.50098857 4681.92979793
0.26900001 104011.48410478 5054.95836670
0.27000001 102560.96045984 5002.92388798
0.27100001 101131.76108729 5364.02886191
0.27200001 99724.35985107  4492.08400207
0.27300001 98337.36641642  5658.33233138
0.27400001 96969.26281612  5199.97696460
0.27500001 95623.26342415  3958.80329311
0.27600001 94294.76512147  6268.71628195
0.27700001 92987.27918902  5040.84064340
0.27800001 91697.36405039  4221.28835384
0.27900001 90426.44686473  4937.28423249
0.28000001 89173.25279996  4510.38334009
0.28100001 87938.09027127  4463.73767343
0.28200001 86720.96424880  4417.56612792
0.28300001 85520.88709832  4371.82795539
0.28400001 84336.90333493  5047.56390350
0.28500001 83170.26149420  4638.40570307
0.28600001 82019.63849310  4590.22928553
0.28700001 80885.73581987  4193.11674337
0.28800001 79765.93299531  5532.56537443
0.28900001 78663.66358999  3764.05648095
0.29000001 77575.42427866  3724.78417305
0.29100001 76502.95311640  3350.82950511
0.29200001 75444.73134702  4642.11453952
0.29300001 74401.41488280  3281.10255165
0.29400001 73371.64128110  4220.70386449
0.29500001 72357.21807631  3533.92669813
0.29600001 71355.40358450  3496.77171819
0.29700001 70367.71984426  4718.15583891
0.29800001 69393.80742997  4357.23737479
0.29900001 68433.50184509  3695.40927457
0.30000001 67485.13236500  4265.73541873
0.30100001 66550.87841003  4220.65690857
0.30200001 65628.23244107  3877.64429735
0.30300001 64719.11699926  3246.31106237
0.30400001 63822.17716100  3795.82416635
0.30500001 62937.93607425  2888.85140257
0.30600001 62064.49315803  4001.29806333
0.30700001 61203.94892643  3675.90934655
0.30800001 60355.13183945  3077.20654252
0.30900001 59518.02605523  4704.90018242
0.31000001 58692.79491919  3285.62281513
0.31100001 57878.09350593  3250.43388519
0.31200001 57075.78252237  3751.59136282
0.31300001 56283.84507457  3181.16307423
0.31400001 55504.44137487  3409.36047287
0.31500001 54734.28112962  3372.72656290
0.31600002 53976.82400677  2823.25791335
0.31700002 53229.23113992  2539.03444559
0.31800002 52492.02550034  2511.74353912
0.31900002 51766.31355237  2484.78316817
0.32000002 51051.31013507  2703.93276933
0.32100002 50346.07135522  3161.22997008
0.32200002 49652.37629406  2886.78929443
0.32300002 48967.48919648  2855.78410516
0.32400002 48294.10704154  3296.07296166
0.32500002 47630.18692559  2562.02787604
0.32600002 46976.57620528  3456.30175797
0.32700002 46333.34902842  2507.56096816
0.32800002 45701.01962571  3157.48359546
0.32900002 45076.54666047  2677.54699842
0.33000002 44463.34809626  2207.60533752
0.33100002 43858.91495428  3276.26110223
0.33200002 43265.95367913  2377.24793747
0.33300002 42681.76875054  2138.35671566
0.33400002 42107.75340141  2327.50617948
0.33500002 41543.19352730  2512.53246351
0.33600002 40987.91716809  3107.90896645
0.33700002 40442.08398533  2665.53788171
0.33800002 39906.48499937  2840.94280164
0.33900002 39379.73377113  2209.20316918
0.34000002 38862.28884941  2385.36740254
0.34100002 38354.74481407  2754.63790300
0.34200002 37856.95613906  2337.28858272
0.34300002 37367.57112862  2313.80011386
0.34400002 36888.28198852  2672.55615664
0.34500002 36417.88262435  2268.10583726
0.34600002 35957.40677455  2058.74142238
0.34700002 35504.54459462  2224.00477874
0.34800002 35062.07293930  2202.59952636
0.34900002 34627.87089291  2363.35230037
0.35000002 34203.31624696  1980.88515426
0.35100002 33788.30167842  1962.42465443
0.35200002 33380.59193496  1944.25266934
0.35300002 32983.20263333  2627.11221417
0.35400002 32593.75318603  1735.61743936
0.35500002 32213.72158237  1892.23409537
0.35600002 31842.11978812  2728.23295267
0.35700002 31479.02060294  2366.59288102
0.35800002 31125.18915826  1843.70066712
0.35900002 30780.27037264  2659.41548616
0.36000002 30443.69455409  2307.93659346
0.36100002 30114.99646165  1798.76882385
0.36200002 29796.50000062  1622.41950188
0.36300002 29484.72257446  1931.83911458
0.36400002 29182.12866924  1757.49378235
0.36500002 28887.05107506  2061.66893288
0.36600002 28601.15291611  2204.29095966
0.36700002 28322.88387321  2188.79256940
0.36800002 28053.58978776  1708.04289514
0.36900002 27792.13644818  2005.20273972
0.37000002 27538.05181237  1838.99118714
0.37100002 27292.07363321  1675.18755896
0.37200002 27054.66275117  1967.82098842
0.37300002 26824.87302817  2257.31317225
0.37400002 26602.55141843  1496.39358817
0.37500002 26388.17457002  1785.95173950
0.37600002 26181.81295889  1628.63975226
0.37700002 25982.73230241  1473.22099134
0.37800002 25790.97617127  1759.46047775
0.37900002 25607.61986809  1605.59784179
0.38000002 25430.76242155  2034.71539774
0.38100002 25260.53108798  1592.17134990
0.38200002 25098.71690305  1874.49776071
0.38300002 24943.46068287  2155.11510510
0.38400002 24795.42585114  1718.32309289
0.38500002 24653.73169479  1998.43158585
0.38600002 24519.96914036  1708.06113124
0.38700002 24392.05825674  1845.50321514
0.38800002 24270.80188426  1841.06176415
0.38900002 24156.17669979  1978.39096544
0.39000002 24048.74244635  1692.55057356
0.39100002 23946.71524151  1689.68030749
0.39200002 23852.00959143  1827.89884164
0.39300002 23762.60254025  1544.80686433
0.39400002 23680.69177223  1824.00537017
0.39500002 23603.36873135  1822.65221979
0.39600002 23532.32656879  1961.89015899
0.39700002 23466.54491912  1400.95279805
0.39800002 23407.64781499  2521.70601858
0.39900002 23353.19270441  1961.66828011
0.40000002 23304.78697069  2102.67450405
0.40100002 23261.22544871  1542.91715712
0.40200002 23223.52287572  2386.56544140
0.40300002 23190.69934681  1826.96338110
0.40400002 23163.07425828  1829.30387622
0.40500002 23139.82396909  1831.97995043
0.40600002 23122.33847152  1552.78071363
0.40700002 23109.03490885  1697.12760412
0.40800002 23100.06180528  1558.90774479
0.40900002 23095.54560283  1420.37612187
0.41000002 23095.84494815  1851.01658107
0.41100002 23100.23003164  1998.63199704
0.41200002 23107.66522953  1574.67192168
0.41300002 23120.77181934  1579.37999781
0.41400002 23136.70474554  2160.38990798
0.41500002 23156.52380978  1878.45730046
0.41600002 23178.99089381  1594.83054402
0.41700002 23206.51931668  2473.58301117
0.41800002 23237.82115558  2044.69598037
0.41900002 23270.41160466  1759.24320067
0.42000002 23306.86353135  1913.37705227
0.42100002 23347.32503136  1773.46289342
0.42200002 23389.92420536  1632.49983727
0.42300002 23435.17126834  1937.62005228
0.42400002 23482.99359246  2395.26545993
0.42500002 23534.03915470  1654.20769057
0.42600002 23586.17104103  1661.76375944
0.42700002 23641.71341086  1669.57788019
0.42800002 23698.72938412  1677.51463895
0.42900002 23758.92086339  2298.67570246
0.43000002 23820.71968608  2310.01440102
0.43100002 23882.93833253  1702.37592501
0.43200002 23948.05627492  1555.42632876
0.43300002 24014.19230670  2032.32119122
0.43400002 24082.28884809  2042.78024834
0.43500002 24151.18557383  1895.38513365
0.43600002 24222.02789233  2381.63100538
0.43700002 24293.22121140  1596.06470922
0.43800002 24365.16479376  1925.33541324
0.43900002 24438.94671426  2096.86172745
0.44000002 24512.82040991  1783.67546166
0.44100002 24587.73824546  2608.26739668
0.44200002 24663.10356271  1802.74964035
0.44300002 24738.96535238  1812.37668760
0.44400002 24815.07706228  1822.04711965
0.44500002 24891.00526309  2830.85416273
0.44600002 24966.91824079  2008.83833686
0.44700002 25044.01590060  2187.84533276
0.44800002 25119.73315975  2199.35834103
0.44900002 25196.09353462  1700.73639419
0.45000002 25272.46545230  1880.65060576
0.45100002 25347.60278953  2062.28106069
0.45200002 25422.73869064  2072.97021108
0.45300002 25496.81557305  1909.96654510
0.45400002 25570.57200002  2268.74910822
0.45500002 25643.97062176  2981.88104522
0.45600002 25715.99139181  2644.24694018
0.45700002 25787.53046846  3011.72582615
0.45800002 25857.58007315  1780.29447241
0.45900002 25926.54818529  2504.50467340
0.46000002 25994.82090982  2336.80453644
0.46100002 26061.03324889  2167.23562769
0.46200002 26126.58654295  2540.28812997
0.46300002 26190.84520988  2369.74778690
0.46400002 26252.88145843  2197.36628222
0.46500002 26314.54192166  1839.38656750
0.46600002 26373.53029152  2032.21247293
0.46700002 26430.85816773  2597.62486384
0.46800002 26487.33766817  2236.06115193
0.46900002 26541.07891676  2245.37538278
0.47000002 26593.18269403  2254.57013566
0.47100002 26643.67150861  2452.28364188
0.47200002 26692.19671665  2651.33602553
0.47300002 26738.68504985  2471.45677630
0.47400002 26782.40687256  2289.89589614
0.47500002 26824.47227992  2106.79415272
0.47600002 26865.02579438  2883.28903004
0.47700002 26902.27356075  2700.45034802
