# SAXS profile: number of points = 501, q_min = 0, q_max = 0.5, delta_q = 0.001
#    q    intensity    error
0.00000000 1700912.83420644 357.19169518
0.00100000 1700830.36168244 612.29894475
0.00200000 1700582.89586270 1071.36725832
0.00300000 1700170.63921817 1122.11266186
0.00400000 1699593.45858091 1274.69514237
0.00500000 1698851.90860903 1834.76013392
0.00600000 1697945.87139221 2495.98053256
0.00700000 1696875.87261406 2239.87624494
0.00800000 1695641.76182421 2746.93977013
0.00900000 1694244.80299546 3812.05096970
0.01000000 1692684.32928662 3351.51511670
0.01100000 1690961.65597993 3956.85044727
0.01200000 1689076.66663169 3952.43957321
0.01300000 1687030.57190868 6022.69940734
0.01400000 1684823.33094927 3790.85266269
0.01500000 1682456.40502998 4037.89555187
0.01600000 1679929.20036106 5997.34751339
0.01700000 1677244.01155938 4528.55903436
0.01800000 1674400.69400950 5726.45063119
0.01900000 1671400.02669185 6017.04036760
0.02000000 1668243.09234076 5780.46257644
0.02100000 1664931.92910689 8241.41342273
0.02200000 1661465.07432233 6305.26024352
0.02300000 1657845.89512802 8355.54369178
0.02400000 1654073.71905328 9304.16509392
0.02500000 1650151.29909302 6435.59036038
0.02600000 1646078.46134333 7333.27988070
0.02700000 1641857.40523397 10343.70212673
0.02800000 1637487.94921168 9972.30206802
0.02900000 1632972.80372639 11757.40472666
0.03000000 1628313.05568338 11357.48408544
0.03100000 1623509.21159231 8572.12903164
0.03200000 1618562.66262722 8813.07410392
0.03300000 1613477.38516196 8228.73504367
0.03400000 1608251.09801839 10131.98238501
0.03500000 1602887.46608435 9521.15198821
0.03600000 1597387.70675062 11525.15283683
0.03700000 1591753.36108915 12702.19240894
0.03800000 1585986.20923173 15772.63358076
0.03900000 1580088.16089642 13272.74116619
0.04000000 1574058.97325319 13552.64838773
0.04100000 1567903.04683027 10865.56861833
0.04200000 1561620.84739072 14101.43690614
0.04300000 1555213.61426489 11290.85136366
0.04400000 1548684.46371255 13589.70680021
0.04500000 1542034.94471141 12768.04993548
0.04600000 1535265.12887681 12988.34359409
0.04700000 1528379.44096801 15406.06548146
0.04800000 1521377.91976877 13418.55387670
0.04900000 1514264.58114334 13628.38186466
0.05000000 1507039.09058544 16140.38941177
0.05100000 1499705.90407498 11697.70659671
0.05200000 1492263.04548602 15422.53929381
0.05300000 1484717.07357813 14431.45062794
0.05400000 1477067.71347033 20715.87564748
0.05500000 1469317.41676029 12342.26687654
0.05600000 1461467.48350553 12495.54756707
0.05700000 1453523.06184966 12645.65122837
0.05800000 1445482.78094852 19188.78481306
0.05900000 1437349.41920905 18110.60352790
0.06000000 1429126.99185523 18307.11762095
0.06100000 1420816.50034505 13213.59407070
0.06200000 1412420.31081143 18686.32158550
0.06300000 1403941.34272018 17521.18877636
0.06400000 1395379.04924593 14965.44100305
0.06500000 1386738.96485714 19220.20295200
0.06600000 1378022.09360708 20773.68403310
0.06700000 1369230.33377969 18155.99507560
0.06800000 1360366.48867652 18303.73196192
0.06900000 1351433.43882406 15609.05694922
0.07000000 1342431.52287972 17156.27566580
0.07100000 1333364.51943158 24480.57372338
0.07200000 1324234.24797089 17400.43883349
0.07300000 1315043.90191232 16056.68679470
0.07400000 1305795.41563805 17628.23893725
0.07500000 1296490.48007151 19213.98981527
0.07600000 1287130.15648046 17839.62480515
0.07700000 1277720.38789264 17939.19508715
0.07800000 1268260.59331558 16531.77760915
0.07900000 1258753.15545962 15105.03857400
0.08000000 1249202.30853377 19731.15138890
0.08100000 1239609.25770226 16771.91404362
0.08200000 1229975.27238064 18375.83143166
0.08300000 1220303.80906789 18450.99445905
0.08400000 1210597.08387398 16978.62489829
0.08500000 1200856.78476934 17040.15857583
0.08600000 1191085.59919324 20206.76813905
0.08700000 1181286.94251554 17152.28721076
0.08800000 1171460.28064606 17202.89502920
0.08900000 1161610.78000761 25090.79402667
0.09000000 1151738.82043190 15721.23563741
0.09100000 1141846.99380633 18908.98710580
0.09200000 1131937.05792703 17369.57497003
0.09300000 1122014.01407559 25312.63734704
0.09400000 1112074.98434986 17431.77619893
0.09500000 1102125.51184894 20631.79055156
0.09600000 1092166.82018415 15891.02798068
0.09700000 1082203.59415149 30225.94780566
0.09800000 1072235.05768675 20699.49876189
0.09900000 1062264.41190887 15933.96692789
0.10000000 1052292.40785253 19130.67687442
0.10100000 1042321.45602981 19137.02283276
0.10200000 1032354.55616404 17544.86650725
0.10300000 1022392.79002981 19139.19392968
0.10400000 1012439.64458286 19135.11018283
0.10500000 1002497.27347177 23909.56109723
0.10600001 992562.98525797 28675.14599337
0.10700001 982644.96551949 19102.61902862
0.10800001 972740.95254103 19085.17838704
0.10900001 962855.19674688 15887.11149406
0.11000001 952987.52134159 17453.96727492
0.11100001 943141.38914998 17429.25369195
0.11200001 933317.20969443 23729.59117360
0.11300001 923517.55320636 17371.36599367
0.11400001 913744.35252062 18914.50898776
0.11500001 903999.76212255 20448.47558209
0.11600001 894283.90258631 17264.15155242
0.11700001 884600.73082769 26617.63724416
0.11800001 874948.42469701 21864.96216298
0.11900001 865330.54707623 18691.14069723
0.12000001 855747.79216641 15531.82315945
0.12100001 846205.48657978 17034.11724730
0.12200001 836700.31468798 21611.97014656
0.12300001 827237.22068294 18463.93563556
0.12400001 817814.34733217 15334.01973498
0.12500001 808434.80079354 15279.41845497
0.12600001 799101.57007105 15222.88562721
0.12700001 789813.65665877 18197.30750699
0.12800001 780573.04344123 19635.31583316
0.12900001 771381.57224665 27075.49446198
0.13000001 762240.04813308 20969.22471252
0.13100001 753148.98934115 20877.29096864
0.13200001 744111.20083002 17814.02298763
0.13300001 735127.00840087 22164.08034817
0.13400001 726196.31453829 16176.02366897
0.13500001 717322.67026203 21950.07474492
0.13600001 708505.64140495 18927.72910259
0.13700001 699746.68385209 15933.23274262
0.13800001 691044.63383470 15849.10942438
0.13900001 682404.75698021 15763.55062962
0.14000001 673824.06795848 14251.37970943
0.14100001 665306.35634974 17005.23127032
0.14200001 656850.35774512 14089.44083817
0.14300001 648458.97924202 15407.38607352
0.14400001 640128.45195913 16707.35338422
0.14500001 631866.06407844 17989.22769290
0.14600001 623667.98738072 20627.81965572
0.14700001 615537.73400173 17764.41984135
0.14800001 607472.24289913 16292.40632321
0.14900001 599475.34205366 14837.01541585
0.15000001 591546.15179518 17418.07726144
0.15100001 583686.20902032 13308.04619360
0.15200001 575896.40983283 17181.87019812
0.15300001 568176.54148083 14437.36660031
0.15400001 560524.78745087 15638.64230788
0.15500001 552945.72111235 18114.50267852
0.15600001 545436.06614124 16698.52595300
0.15700001 538000.83759500 17850.86863391
0.15800001 530634.18838803 12655.62599038
0.15900001 523342.38788927 18840.32685329
0.16000001 516120.40052845 16203.60073944
0.16100001 508973.63915644 14841.67201839
0.16200001 501899.26848861 17180.01277137
0.16300001 494897.81283210 12174.48677040
0.16400001 487970.46693559 15700.45051486
0.16500001 481115.71591514 13177.76008106
0.16600001 474335.54517799 13070.31656447
0.16700001 467627.77277038 17676.33064530
0.16800001 460994.15990927 12854.82275603
0.16900001 454435.99930401 12746.93038236
0.17000001 447950.15783745 12638.91430019
0.17100001 441538.77813390 15948.38141930
0.17200001 435200.69853256 13552.15039228
0.17300001 428937.02943872 16792.88549556
0.17400001 422747.36802625 13316.54272171
0.17500001 416630.30781553 10999.04064579
0.17600001 410585.67754021 13081.26030425
0.17700001 404617.20254276 14044.26376358
0.17800001 398719.97472943 13917.32137528
0.17900001 392895.12589720 14851.43646040
0.18000001 387144.87175584 11562.08214112
0.18100001 381467.25301541 13538.27344902
0.18200001 375859.39080168 11349.07484136
0.18300001 370324.62940082 14309.34435601
0.18400001 364861.14668316 13162.36648839
0.18500001 359469.66168986 11032.12443844
0.18600001 354149.25994335 10927.27593179
0.18700001 348898.40372336 11806.72253980
0.18800001 343716.46823932 10718.79856847
0.18900001 338608.02385569 10615.36204942
0.19000001 333564.87213858 14334.95105746
0.19100001 328593.56117697 13248.89301267
0.19200001 323688.76854716 13119.10640911
0.19300001 318854.37592036 15773.72672213
0.19400001 314085.50884133 9187.00156773
0.19500001 309384.69618483 12734.27469673
0.19600001 304749.07913041 10806.40285664
0.19700001 300181.67048207 9806.93563810
0.19800001 295678.58613424 9708.60683453
0.19900001 291240.83220784 11358.39299290
0.20000001 286866.15479443 8649.01497581
0.20100001 282557.06442137 12842.21918490
0.20200001 278309.87962559 10169.44348216
0.20300001 274126.21556315 8388.26259270
0.20400001 270004.72317492 11623.70388208
0.20500001 265944.20064774 8217.67618844
0.20600001 261944.51002267 11386.72838891
0.20700001 258005.34571599 9659.72060021
0.20800001 254125.30356345 11950.24296496
0.20900001 250306.89339275 9461.60101751
0.21000001 246543.64055891 11704.65988884
0.21100001 242839.96507339 9266.77350527
0.21200001 239192.14184385 9170.62715183
0.21300001 235600.72536560 8319.06200595
0.21400001 232065.56061876 7484.11468378
0.21500001 228586.29703021 10368.67492350
0.21600001 225160.11239799 9527.65060657
0.21700001 221788.37923170 7977.72837815
0.21800001 218469.75659226 7176.73184338
0.21900001 215202.41614282 7101.68006849
0.22000001 211986.68630867 14054.71796681
0.22100001 208823.37828876 8344.58259098
0.22200001 205710.12453617 8945.30518843
0.22300001 202645.87254847 7489.79180355
0.22400001 199629.98717554 8085.01486292
0.22500001 196664.57117109 10000.39391694
0.22600001 193744.75498277 7916.41106295
0.22700001 190873.02089733 7180.64338572
0.22800001 188046.56549821 7105.33981336
0.22900001 185265.52725629 7030.82709187
0.23000001 182529.79074036 8222.05481274
0.23100001 179839.26571414 7510.08809140
0.23200001 177190.68509642 9908.50357920
0.23300001 174585.95181787 7353.56063835
0.23400001 172022.08648656 6670.15671898
0.23500001 169499.98720523 6600.32981394
0.23600001 167019.08301727 9500.04589135
0.23700001 164578.07230796 7638.06869708
0.23800001 162176.34152157 5814.02211854
0.23900001 159813.75684306 6328.62507033
0.24000001 157488.70665559 6262.53871638
0.24100001 155202.39211759 6197.23181039
0.24200001 152952.87294308 7247.67222724
0.24300001 150739.06937813 6620.46024025
0.24400001 148560.79880278 7097.49249854
0.24500001 146417.24971212 7023.63580094
0.24600001 144308.20397600 6950.60497330
0.24700001 142233.92268455 6878.43282642
0.24800001 140192.23881965 6807.03447791
0.24900001 138181.91699295 8290.91541180
0.25000001 136204.93445026 6666.55083205
0.25100001 134258.63686185 6597.46972751
0.25200001 132345.15710460 6026.99873968
0.25300001 130460.05102923 6461.68663318
0.25400001 128605.93708592 6886.84825678
0.25500001 126779.17454317 8276.14490574
0.25600001 124982.83347921 5781.70615030
0.25700001 123213.53322468 7152.54594210
0.25800001 121471.64490809 5663.00835355
0.25900001 119758.13360407 5137.62417470
0.26000001 118069.94037533 5546.92606129
0.26100001 116407.71892038 6862.23535505
0.26200001 114772.02593931 5886.08362881
0.26300001 113160.18524199 4929.25790238
0.26400001 111573.80087138 5322.07055340
0.26500001 110011.46346401 5706.29487989
0.26600001 108472.39940531 5213.18376210
0.26700001 106956.74676008 4729.62756554
0.26800001 105464.42324885 4681.03864741
0.26900001 103993.39262422 5475.25238076
0.27000001 102544.96096222 7920.06043471
0.27100001 101117.77081683 5363.28681793
0.27200001 99712.33517033  4491.54235030
0.27300001 98327.46176375  6466.01419158
0.27400001 96961.31869153  5199.55096090
0.27500001 95617.34795250  6333.69342812
0.27600001 94290.73246131  5484.89216685
0.27700001 92985.18148828  4652.97870188
0.27800001 91697.24211124  4605.03571677
0.27900001 90428.30646875  4937.38576687
0.28000001 89177.05081023  3758.81286955
0.28100001 87943.81126506  5208.03274961
0.28200001 86728.61774105  4049.79299709
0.28300001 85530.38234855  4007.95390655
0.28400001 84348.31934661  6130.01439865
0.28500001 83183.59260311  4282.29154989
0.28600001 82034.82293167  3884.75922380
0.28700001 80902.77429280  4893.00002083
0.28800001 79784.77030525  3458.66995644
0.28900001 78684.30826428  3422.76757151
0.29000001 77597.91685220  3387.14923093
0.29100001 76527.11920398  4022.26557575
0.29200001 75470.70715614  5970.48792574
0.29300001 74429.12388452  3938.78942242
0.29400001 73401.08946405  4547.19770755
0.29500001 72388.38575168  4499.66227132
0.29600001 71388.22320830  3816.41459338
0.29700001 70402.15026013  5349.85965152
0.29800001 69429.92575434  4048.11201274
0.29900001 68471.17862544  4621.80477601
0.30000001 67524.35807259  3353.59740243
0.30100001 66591.80619683  4524.91344528
0.30200001 65670.60778659  3581.67511824
0.30300001 64763.08188981  3248.51634138
0.30400001 63867.58387371  3506.33052066
0.30500001 62984.87012345  3180.10624309
0.30600001 62112.85277153  3146.32670610
0.30700001 61253.72425720  5093.85995039
0.30800001 60406.27853180  3359.79737100
0.30900001 59570.60437873  3601.04320518
0.31000001 58746.67178570  3562.69207912
0.31100001 57933.34386535  3253.53674552
0.31200001 57132.29373153  2950.59744946
0.31300001 56341.60245013  4245.90336167
0.31400001 55563.40775723  3938.05671125
0.31500001 54794.49778344  3116.71118149
0.31600002 54038.16993318  4111.22416317
0.31700002 53291.77126512  3304.62289262
0.31800002 52555.71090608  2766.26997452
0.31900002 51830.99920231  3234.25450336
0.32000002 51117.17521048  2461.29210293
0.32100002 50412.96233017  4139.40853293
0.32200002 49720.22656890  2408.94509133
0.32300002 49036.31384285  2859.79795873
0.32400002 48363.87594728  3065.06078329
0.32500002 47700.83855322  3032.34245041
0.32600002 47048.13794503  3000.02465812
0.32700002 46405.80834598  2511.48246661
0.32800002 45774.16236800  2710.74602380
0.32900002 45150.55106801  3352.42857555
0.33000002 44538.13443455  2874.71402321
0.33100002 43934.44023878  2844.31579575
0.33200002 43342.12389565  2381.43311022
0.33300002 42758.60713344  2570.64758260
0.33400002 42185.22502240  2543.76918931
0.33500002 41621.34740024  2097.71600831
0.33600002 41066.56201300  2698.68925048
0.33700002 40521.23622313  2876.19748333
0.33800002 39986.26104154  2236.63161728
0.33900002 39459.90052705  2414.94602662
0.34000002 38943.01081071  2589.51562649
0.34100002 38435.79813917  2957.63480688
0.34200002 37938.34376497  2342.31345498
0.34300002 37449.41346813  2125.62880912
0.34400002 36970.46601109  3252.47690136
0.34500002 36500.34812138  1894.36815722
0.34600002 36040.08941985  3001.41878903
0.34700002 35587.50624732  2229.20149691
0.34800002 35145.21879752  2023.83752031
0.34900002 34711.19271554  2369.03901504
0.35000002 34286.78300124  1985.71913156
0.35100002 33871.83182487  1788.43280506
0.35200002 33464.22712497  1949.12400121
0.35300002 33066.88734028  1755.85180093
0.35400002 32677.45437564  1740.07452792
0.35500002 32297.50087226  2414.56127957
0.35600002 31925.86812596  1709.63031912
0.35700002 31562.70442415  1864.40903864
0.35800002 31208.72332242  2352.82576272
0.35900002 30863.70528814  1833.30418095
0.36000002 30526.98064741  2975.46494464
0.36100002 30198.17071754  2459.64112145
0.36200002 29879.43013845  1789.62855291
0.36300002 29567.47493831  2421.57631215
0.36400002 29264.53122164  2243.12642439
0.36500002 28969.25707092  1590.41228853
0.36600002 28683.02289291  2052.70063056
0.36700002 28404.45209805  1881.51099610
0.36800002 28134.83412307  2647.34734221
0.36900002 27872.98840000  1856.34111537
0.37000002 27618.58743596  1998.06680270
0.37100002 27372.14226464  2291.04841608
0.37200002 27134.31150486  1821.79776074
0.37300002 26903.99513850  1660.24561864
0.37400002 26681.30527364  1500.82349274
0.37500002 26466.42308880  1940.51823280
0.37600002 26259.39514322  2078.95641197
0.37700002 26059.81355819  1920.86894837
0.37800002 25867.46774082  1911.73529395
0.37900002 25683.54049450  1756.75425305
0.38000002 25506.10216319  2478.04547306
0.38100002 25335.30262023  2322.74065426
0.38200002 25172.86015201  1735.41706109
0.38300002 25016.85799118  1873.26241512
0.38400002 24868.15922517  1579.74988962
0.38500002 24725.79496750  1717.94831573
0.38600002 24591.31276329  1855.78350560
0.38700002 24462.69957351  2135.59377394
0.38800002 24340.69837747  1704.33578113
0.38900002 24225.39059469  1700.62250032
0.39000002 24117.18167693  1697.36732684
0.39100002 24014.41781687  1412.04783453
0.39200002 23918.89432628  1692.02266480
0.39300002 23828.65902640  2112.41072277
0.39400002 23745.96178671  1406.94830252
0.39500002 23667.78871611  1405.86671634
0.39600002 23595.92935199  1826.67895733
0.39700002 23529.30161025  1404.69937268
0.39800002 23469.58226248  1685.58547795
0.39900002 23414.26683752  1685.82729217
0.40000002 23364.96534050  3372.96655636
0.40100002 23320.57742177  2390.59250477
0.40200002 23282.00965609  1407.39755039
0.40300002 23248.31828149  1831.50260099
0.40400002 23219.80107011  2680.14566550
0.40500002 23195.65859879  1553.87724316
0.40600002 23177.27240077  1980.96156595
0.40700002 23163.03802443  1417.57799426
0.40800002 23153.13889219  1562.48965217
0.40900002 23147.71768940  1993.01858749
0.41000002 23147.19139495  1855.13174225
0.41100002 23150.60323704  1573.77808262
0.41200002 23157.18042842  1864.96361417
0.41300002 23169.35218741  1438.81683901
0.41400002 23184.39737284  1731.87456581
0.41500002 23203.30623526  1737.46365322
0.41600002 23224.89049771  1888.53206031
0.41700002 23251.49663191  1457.86890790
0.41800002 23281.94612287  1755.92445979
0.41900002 23313.63628413  1909.38690215
0.42000002 23349.22384447  1621.95391121
0.42100002 23388.76502559  1924.66156516
0.42200002 23430.54065701  2378.66860021
0.42300002 23474.89242257  1791.60387459
0.42400002 23521.85373810  1499.51824686
0.42500002 23572.00946784  1958.12691928
0.42600002 23623.28541612  1966.99295338
0.42700002 23678.00274198  1520.12784807
0.42800002 23734.23530780  1680.02792587
0.42900002 23793.53574331  2302.02469225
0.43000002 23854.55512610  1696.41676818
0.43100002 23915.94121163  2324.62959593
0.43200002 23980.31473845  2024.77797089
0.43300002 24045.61992872  1878.44391785
0.43400002 24112.96194743  2045.38209412
0.43500002 24181.10730656  2055.87784063
0.43600002 24251.18971814  1907.59867363
0.43700002 24321.70980153  1757.73005065
0.43800002 24392.87714860  1606.27103636
0.43900002 24465.92729150  1937.70153331
0.44000002 24539.12911878  2272.56885539
0.44100002 24613.35597904  1795.05213662
0.44200002 24688.07816172  2296.73202023
0.44300002 24763.30892065  2308.93103318
0.44400002 24838.75999830  2321.18223184
0.44500002 24914.09207476  1833.42812267
0.44600002 24989.36962191  1675.53731255
0.44700002 25065.90191555  2189.75729512
0.44800002 25141.05084511  2031.89982560
0.44900002 25216.92293823  2212.78509270
0.45000002 25292.71136333  1711.05200482
0.45100002 25367.30284908  1891.89353615
0.45200002 25441.94965391  2074.53667310
0.45300002 25515.47028832  1737.60360898
0.45400002 25588.79754496  2095.72261826
0.45500002 25661.77798835  1930.79226735
0.45600002 25733.30858601  1940.42022589
0.45700002 25804.44012124  2304.59465645
0.45800002 25874.13104207  1959.57740734
0.45900002 25942.68936527  2148.05478125
0.46000002 26010.63621357  2518.08981118
0.46100002 26076.53256156  1807.10379216
0.46200002 26141.74638945  1997.09881007
0.46300002 26205.71387754  2553.48488125
0.46400002 26267.50151830  2381.80581306
0.46500002 26328.89108148  1840.38957382
0.46600002 26387.64948027  2402.99141381
0.46700002 26444.75382467  2042.06398713
0.46800002 26500.98619263  2237.21336042
0.46900002 26554.52037630  2059.30315279
0.47000002 26606.55256936  2067.72833093
0.47100002 26656.89645080  2642.23170144
0.47200002 26705.29303359  2463.16281970
0.47300002 26751.67847729  1902.04442989
0.47400002 26795.31365883  3436.49913963
0.47500002 26837.34861429  1916.18678188
0.47600002 26877.80882520  2115.41804385
0.47700002 26915.01881402  2701.72971661
