# SAXS profile: number of points = 501, q_min = 0, q_max = 0.5, delta_q = 0.001
#    q    intensity    error
0.00000000 1682732.95097188 378.61491397
0.00100000 1682650.92510760 605.75434742
0.00200000 1682404.79057523 984.20683365
0.00300000 1681994.75536727 1009.19688917
0.00400000 1681420.69892743 1639.38524375
0.00500000 1680683.13834129 1966.39934969
0.00600000 1679781.99130792 2116.52539522
0.00700000 1678717.78246152 2417.35370721
0.00800000 1677490.33881222 2717.53446361
0.00900000 1676100.91339331 3016.98177308
0.01000000 1674548.89496466 3315.60695520
0.01100000 1672835.54066533 5118.87697731
0.01200000 1670960.75816292 4235.88570766
0.01300000 1668925.73021274 4556.16744443
0.01400000 1666730.45026365 4500.17241521
0.01500000 1664376.37313755 5192.85451542
0.01600000 1661862.91335076 4661.52568034
0.01700000 1659192.32996615 5375.78339024
0.01800000 1656364.43292450 7553.02215400
0.01900000 1653380.11133341 7936.22489250
0.02000000 1650240.40422092 7277.56051182
0.02100000 1646947.29766312 7065.40422731
0.02200000 1643499.33403789 6237.08025604
0.02300000 1639900.00721218 7674.73238309
0.02400000 1636148.44996580 9203.33545071
0.02500000 1632247.54472016 9548.64857271
0.02600000 1628197.07615390 9231.87784404
0.02700000 1623999.27511739 9549.11617505
0.02800000 1619653.86282226 12681.89032748
0.02900000 1615163.55638991 11629.17813995
0.03000000 1610529.61460310 10484.54827299
0.03100000 1605752.37660677 11561.41764355
0.03200000 1600833.13646548 11093.77414666
0.03300000 1595776.08296498 8138.45839831
0.03400000 1590578.98036065 8350.54003219
0.03500000 1585245.21261579 9416.35699777
0.03600000 1579776.21148440 9644.53421682
0.03700000 1574173.28051661 10767.34573670
0.03800000 1568438.46817302 15598.12128786
0.03900000 1562573.58038765 10312.98610815
0.04000000 1556578.39679976 9572.95758392
0.04100000 1550457.14043887 14651.82065650
0.04200000 1544210.47337283 14940.23702300
0.04300000 1537839.50689579 12179.68945997
0.04400000 1531347.47896965 11370.25555941
0.04500000 1524735.87606652 13676.88144381
0.04600000 1518004.73734219 14982.70745407
0.04700000 1511158.43061357 13056.40944773
0.04800000 1504197.14620798 14372.60440075
0.04900000 1497124.77101379 11228.43630526
0.05000000 1489940.83175459 14817.46226179
0.05100000 1482650.15411972 13877.60608904
0.05200000 1475250.41434498 12901.06547465
0.05300000 1467748.35671571 13077.63846799
0.05400000 1460143.64167740 13250.80416616
0.05500000 1452438.72685002 13420.53446215
0.05600000 1444634.82564452 17292.27966989
0.05700000 1436737.22004810 18749.42159682
0.05800000 1428744.55329032 15173.26786442
0.05900000 1420659.28476565 12785.93416007
0.06000000 1412485.82973948 14216.67054051
0.06100000 1404224.88104676 16977.07960522
0.06200000 1395878.84823837 13191.05573245
0.06300000 1387450.98655849 15983.43611246
0.06400000 1378940.15491675 13444.66713920
0.06500000 1370352.33404073 17636.43536410
0.06600000 1361688.44265373 15053.46643787
0.06700000 1352950.15099478 19320.12906037
0.06800000 1344140.50239928 18085.41130634
0.06900000 1335262.29444319 18226.33117249
0.07000000 1326315.94008715 14125.26542339
0.07100000 1317304.98550275 21340.34176468
0.07200000 1308231.43525654 14325.13488715
0.07300000 1299098.46283965 15861.99297450
0.07400000 1289907.72069470 21767.19380682
0.07500000 1280661.33427583 14599.53989506
0.07600000 1271360.14225024 20557.89446395
0.07700000 1262009.90160682 17718.61984936
0.07800000 1252610.34760329 17812.11997824
0.07900000 1243163.77277173 17901.55916756
0.08000000 1233674.29216472 17986.97202355
0.08100000 1224143.10189158 18068.35303165
0.08200000 1214571.49481992 16633.55740209
0.08300000 1204962.99175353 18219.04129037
0.08400000 1195319.64631993 30480.65241188
0.08500000 1185643.49664556 18353.76218969
0.08600000 1175936.80037725 23018.96394816
0.08700000 1166203.04436354 15393.88090846
0.08800000 1156441.73762606 18526.19750683
0.08900000 1146658.24780251 21671.84190139
0.09000000 1136852.86412956 24828.86771894
0.09100000 1127027.91633573 15552.98597613
0.09200000 1117185.27914748 17143.20891402
0.09300000 1107330.00643025 15613.35382437
0.09400000 1097459.37565896 15638.79683812
0.09500000 1087578.50563018 17227.24433891
0.09600000 1077688.91531883 17248.41190049
0.09700000 1067794.96744515 25114.53881501
0.09800000 1057896.37861545 15709.76196108
0.09900000 1047996.25533741 15719.94456925
0.10000000 1038094.80603589 18872.56446126
0.10100000 1028195.01389473 15731.38445246
0.10200000 1018299.61634650 18879.27577508
0.10300000 1008409.77732502 18877.43191953
0.10400000 998528.74008723 18872.19407549
0.10500000 988658.90510613 23579.51599618
0.10600001 978797.61143007 21993.58336371
0.10700001 968952.65546007 17266.73713283
0.10800001 959122.31118464 25090.64084140
0.10900001 949310.48310341 17229.98607927
0.11000001 939516.85225448 25028.73012215
0.11100001 929745.03154681 26553.51935094
0.11200001 919995.75271808 20272.10736550
0.11300001 910271.10228161 20235.32755642
0.11400001 900573.17442239 18641.86558829
0.11500001 890904.10206558 18602.07852706
0.11600001 881264.20327118 21652.66249403
0.11700001 871656.81802995 16971.15904630
0.11800001 862080.93880467 20004.58912714
0.11900001 852539.71159092 16880.28708459
0.12000001 843033.55676191 19891.37770878
0.12100001 833568.11356234 24406.87551487
0.12200001 824140.22560733 16725.92666668
0.12300001 814754.31194362 16669.87400776
0.12400001 805409.16722424 16611.56485669
0.12500001 796107.21423719 19560.35517550
0.12600001 786851.83143795 14989.52809525
0.12700001 777642.06576120 16423.80120287
0.12800001 768479.59224346 14870.08081073
0.12900001 759366.48403796 22211.47070498
0.13000001 750303.44901424 17692.15616167
0.13100001 741291.08652653 17613.07704611
0.13200001 732331.75170386 20454.02678930
0.13300001 723426.41712722 18903.13317068
0.13400001 714574.63585815 17364.16447000
0.13500001 705780.05715854 17277.49661384
0.13600001 697042.12649175 14324.21637480
0.13700001 688362.31227490 15674.01058958
0.13800001 679739.58309384 15589.82807341
0.13900001 671178.79896688 15504.23098729
0.14000001 662677.58336605 15417.19470410
0.14100001 654239.21142671 16722.35503274
0.14200001 645862.71001309 16624.50693984
0.14300001 637550.62591047 23410.86008767
0.14400001 629299.61762639 15055.99406190
0.14500001 621116.61305647 16322.94536111
0.14600001 612998.07829495 21626.57322247
0.14700001 604947.33028867 16115.79763918
0.14800001 596961.12844615 16010.49822028
0.14900001 589043.63446546 15904.17888094
0.15000001 581193.91856896 18429.66002739
0.15100001 573413.13283445 13073.82004551
0.15200001 565702.80365958 18176.03193925
0.15300001 558061.90753209 15469.47680678
0.15400001 550489.58274486 12798.88340281
0.15500001 542989.59429818 12705.95710621
0.15600001 535558.90501844 15134.89537011
0.15700001 528202.74166689 12518.40556833
0.15800001 520914.85983668 12423.81999349
0.15900001 513701.85764867 13561.72968205
0.16000001 506558.38990126 23243.43281777
0.16100001 499490.30468888 12137.61497689
0.16200001 492494.21605709 16858.07781144
0.16300001 485571.19517204 13139.55716165
0.16400001 478722.03788637 13033.20809675
0.16500001 471945.21873372 12926.58015140
0.16600001 465242.71699427 13985.19673313
0.16700001 458612.93277754 11557.04645166
0.16800001 452056.85913444 18335.42707223
0.16900001 445575.90721452 12498.40478752
0.17000001 439167.10745491 12391.10052194
0.17100001 432832.78472674 13400.50364793
0.17200001 426571.65002079 13283.44180893
0.17300001 420384.41415313 17555.25396407
0.17400001 414271.33627894 17399.39694542
0.17500001 408230.40010386 14010.46799325
0.17600001 402261.85741336 13884.06866435
0.17700001 396369.06819895 11641.36008283
0.17800001 390547.24782996 13632.05232938
0.17900001 384797.96214921 13506.40910939
0.18000001 379122.50775393 11322.49422889
0.18100001 373519.66646676 11216.79611384
0.18200001 367986.56336471 15151.84746228
0.18300001 362525.99601341 15008.57694395
0.18400001 357136.64832480 14865.81368879
0.18500001 351818.85095476 10797.32104589
0.18600001 346571.93039956 14582.01466047
0.18700001 341394.41376912 11552.78750776
0.18800001 336285.38717202 11440.42941211
0.18900001 331249.64823779 14160.92313123
0.19000001 326278.84632773 13087.04514455
0.19100001 321379.46168587 10181.30182728
0.19200001 316546.49542269 10996.82577060
0.19300001 311783.48951990 9072.89997375
0.19400001 307085.77532650 10778.71122330
0.19500001 302455.65317710 9781.41628597
0.19600001 297890.61864819 17605.33639407
0.19700001 293393.22059796 9585.15696991
0.19800001 288959.88648107 9487.99832100
0.19900001 284591.54866091 11099.07092232
0.20000001 280286.13834396 10985.81571159
0.20100001 276045.70719658 10873.44092038
0.20200001 271867.08678942 13245.36509440
0.20300001 267751.34478583 11470.46815277
0.20400001 263697.65300766 12973.92514120
0.20500001 259704.47055976 8827.35537157
0.20600001 255771.61513680 7941.70902539
0.20700001 251899.14939686 10217.02998249
0.20800001 248085.31665533 8555.22254927
0.20900001 244332.69811615 11544.72053172
0.21000001 240634.93273783 8377.70557930
0.21100001 236996.28332896 8290.13038275
0.21200001 233413.15092300 8203.30557700
0.21300001 229886.00079149 9593.14326655
0.21400001 226414.66491146 10222.62260404
0.21500001 222999.05768935 7947.68679180
0.21600001 219635.81404875 7149.14608529
0.21700001 216326.67962843 9196.04758579
0.21800001 213070.35899465 8399.23394869
0.21900001 209865.10371863 8310.65850020
0.22000001 206710.71944290 8222.95280824
0.22100001 203608.52340803 8136.19698009
0.22200001 200555.69795203 8721.16493782
0.22300001 197551.63829657 8629.05596882
0.22400001 194595.60280812 8537.88247693
0.22500001 191689.59561493 8447.76087822
0.22600001 188828.63100430 7715.53822769
0.22700001 186015.31676845 6997.89654775
0.22800001 183247.06350251 8812.35170057
0.22900001 180523.48948733 6850.86675003
0.23000001 177845.08093122 9243.49851854
0.23100001 175211.23226701 7316.82140550
0.23200001 172618.83403270 7842.93709520
0.23300001 170069.99486211 8357.23994278
0.23400001 167561.67680149 5906.54938660
0.23500001 165094.45041398 7013.21258528
0.23600001 162668.05156370 6361.13445726
0.23700001 160281.21942774 8583.05970632
0.23800001 157933.16318946 6794.28500177
0.23900001 155623.73854272 6722.94582304
0.24000001 153351.42116284 7206.75037843
0.24100001 151117.38314755 6582.67352128
0.24200001 148919.75277176 6513.75029435
0.24300001 146757.23844233 5908.44669917
0.24400001 144629.96853388 6378.18191405
0.24500001 142536.98227568 6837.49936321
0.24600001 140478.03603217 7286.59607368
0.24700001 138453.15156401 7210.64047456
0.24800001 136460.65732576 6116.16695068
0.24900001 134499.04532262 5043.71443820
0.25000001 132570.37103168 4991.27470547
0.25100001 130671.83797459 6915.15399276
0.25200001 128805.50241997 4888.16904810
0.25300001 126967.34123445 6772.43830185
0.25400001 125159.61030375 5266.09085268
0.25500001 123378.97019387 5211.52794756
0.25600001 121628.04065001 5626.51342667
0.25700001 119903.71722627 5104.30148382
0.25800001 118206.55353621 5051.55730438
0.25900001 116537.13180127 5453.93802635
0.26000001 114892.66974931 5847.46270357
0.26100001 113273.52582989 5341.97973090
0.26200001 111680.84645817 5727.55248162
0.26300001 110111.24446469 4360.40548713
0.26400001 108566.75210698 5610.18718059
0.26500001 107045.90504253 4271.13181330
0.26600001 105547.84482013 5495.34880060
0.26700001 104072.82768092 4183.72787075
0.26800001 102620.53856499 4554.81281974
0.26900001 101189.22720915 4917.79667508
0.27000001 99780.07869607  5272.87850822
0.27100001 98391.63998757  4415.81701161
0.27200001 97024.60013961  4370.47332011
0.27300001 95677.55611668  5112.05206524
0.27400001 94348.99489050  5837.84433512
0.27500001 93042.04815738  4237.13507361
0.27600001 91751.91431811  3812.29222034
0.27700001 90482.56283279  4905.05996331
0.27800001 89230.42159603  6721.72797695
0.27900001 87996.80555107  4065.45260887
0.28000001 86780.48759526  4023.57749778
0.28100001 85581.71446060  3982.11736232
0.28200001 84400.65395012  3941.08872273
0.28300001 83235.93615862  4964.19146746
0.28400001 82087.18296502  5965.68630434
0.28500001 80955.18911493  3472.97777741
0.28600001 79838.83452356  3780.76818781
0.28700001 78738.78845162  3401.51582211
0.28800001 77652.36344789  3366.23011480
0.28900001 76583.02127024  3997.63389953
0.29000001 75527.34311073  4945.15302425
0.29100001 74486.97424638  4241.28851435
0.29200001 73460.48447335  4197.16497906
0.29300001 72448.46547947  4472.96847043
0.29400001 71449.60909250  4742.46802801
0.29500001 70465.69743928  3441.54482585
0.29600001 69493.92520659  3405.54996596
0.29700001 68535.91717038  4288.97789955
0.29800001 67591.21278270  4850.34565889
0.29900001 66659.71758597  3599.62492005
0.30000001 65739.73510901  3858.59393489
0.30100001 64833.68605628  4111.75256434
0.30200001 63938.67158322  3487.21531324
0.30300001 63056.83046624  2875.39160539
0.30400001 62186.68308505  2845.04088583
0.30500001 61328.95576151  3940.99888381
0.30600001 60481.63692979  2785.17951247
0.30700001 59646.81680007  2755.68306663
0.30800001 58823.31211129  3817.04490361
0.30900001 58011.18353102  3506.77621048
0.31000001 57210.36275185  2668.86354873
0.31100001 56420.02336363  3960.68582765
0.31200001 55641.54150021  4441.02984510
0.31300001 54873.07303370  3618.33060716
0.31400001 54116.72228528  2557.01524905
0.31500001 53369.46442155  3035.65528003
0.31600002 52634.29249136  2753.03679911
0.31700002 51908.68861345  4209.27575897
0.31800002 51193.25725833  2939.51697096
0.31900002 50488.83237129  3150.50328914
0.32000002 49794.81392666  3356.66856573
0.32100002 49110.18923449  4032.43782898
0.32200002 48436.77713527  2346.76196332
0.32300002 47771.74963098  2553.87785620
0.32400002 47117.91295698  2986.09787504
0.32500002 46473.38629093  2499.80356696
0.32600002 45838.80003992  2248.39324842
0.32700002 45214.20042692  2669.44651961
0.32800002 44600.08583038  2641.21720794
0.32900002 43993.61304522  2395.45234375
0.33000002 43398.22397361  2370.19411456
0.33100002 42811.20489962  2345.19791546
0.33200002 42235.24358404  3375.44082708
0.33300002 41667.79959812  2505.06823047
0.33400002 41110.30877346  2065.79311369
0.33500002 40561.95510444  2044.32263407
0.33600002 40022.44118943  2630.07484731
0.33700002 39492.15337705  2402.70272524
0.33800002 38972.04316519  2378.07418656
0.33900002 38460.13055781  3334.49347728
0.34000002 37957.57983252  1941.53030038
0.34100002 37464.28866627  2690.68533944
0.34200002 36980.72285047  2473.45576499
0.34300002 36505.34825424  2072.04366504
0.34400002 36039.76844651  2797.58715815
0.34500002 35582.70679643  2216.09108424
0.34600002 35135.21799234  2377.42463805
0.34700002 34695.41715107  1992.21094717
0.34800002 34265.42090654  2152.55384330
0.34900002 33843.62078948  2132.14821072
0.35000002 33431.15155500  2288.19527656
0.35100002 33027.93830034  2092.65026982
0.35200002 32632.00289506  2246.22402567
0.35300002 32245.89944106  2054.70880970
0.35400002 31867.80974759  1866.65704438
0.35500002 31498.71080423  2186.64060760
0.35600002 31137.81381066  2000.91601025
0.35700002 30785.29747916  1818.48760823
0.35800002 30441.60640824  1803.20864100
0.35900002 30106.81795120  2113.49872028
0.36000002 29780.09258937  1935.11050812
0.36100002 29461.13741579  1599.73983745
0.36200002 29151.94861543  1746.05604503
0.36300002 28849.57328869  2205.26148664
0.36400002 28555.90130290  1563.43567039
0.36500002 28269.72174161  2328.01169569
0.36600002 27992.50136713  1540.98727325
0.36700002 27722.76263315  2142.41519777
0.36800002 27461.77015180  2128.01266986
0.36900002 27208.49288591  1661.07856937
0.37000002 26962.47268004  1950.60017844
0.37100002 26724.26199982  2087.69944632
0.37200002 26494.48056389  1927.07613510
0.37300002 26272.10505772  2505.57077804
0.37400002 26057.14752701  1905.42900317
0.37500002 25849.96993029  1749.52604776
0.37600002 25650.51278975  2320.85850716
0.37700002 25458.22561731  1732.17775306
0.37800002 25273.26518327  1724.14223248
0.37900002 25096.42753093  1573.54608073
0.38000002 24926.01013348  1709.42585593
0.38100002 24762.14369641  1844.53217133
0.38200002 24606.48595046  1555.00695331
0.38300002 24457.12189848  1408.73028809
0.38400002 24314.98369450  1544.60941237
0.38500002 24179.06705302  1819.95846330
0.38600002 24050.94676583  1815.00478367
0.38700002 23928.51891327  1531.90385340
0.38800002 23812.72174908  1389.47237989
0.38900002 23703.50452500  1386.65508041
0.39000002 23601.21757370  2076.31721441
0.39100002 23504.37162193  2211.29138695
0.39200002 23414.48861528  1380.28416926
0.39300002 23330.02170604  1516.68478297
0.39400002 23252.92987377  1928.83062441
0.39500002 23180.28401420  2203.05429708
0.39600002 23113.87901305  2064.64734066
0.39700002 23052.61752085  1376.24133120
0.39800002 22998.11799732  1514.08117009
0.39900002 22948.03465304  1652.25857330
0.40000002 22903.89837489  2066.50432878
0.40100002 22864.59828156  1378.73534170
0.40200002 22831.04968758  1380.13701900
0.40300002 22802.32021417  1796.36687158
0.40400002 22778.62509131  1798.94200182
0.40500002 22759.26649704  2079.05909301
0.40600002 22745.68909217  1388.62438487
0.40700002 22736.10913336  2226.31991182
0.40800002 22730.95889000  1952.36215157
0.40900002 22730.00062074  1957.05314617
0.41000002 22734.04084528  1541.70905297
0.41100002 22741.90535848  1686.53978130
0.41200002 22753.00685760  1691.45860994
0.41300002 22769.54121179  1838.18514913
0.41400002 22788.98240857  1702.33706658
0.41500002 22812.24070033  1423.48388715
0.41600002 22838.09107982  1571.37493120
0.41700002 22868.88740027  1720.65516953
0.41800002 22903.46954703  1727.37975509
0.41900002 22939.43824909  2601.33242071
0.42000002 22979.18556027  2031.58989165
0.42100002 23022.68754362  1894.53704774
0.42200002 23068.61505714  1610.07406421
0.42300002 23116.97412756  1911.31151144
0.42400002 23167.95540507  1772.34867247
0.42500002 23222.05677556  1483.88949827
0.42600002 23277.26717202  2236.36354952
0.42700002 23336.00084089  1797.80558997
0.42800002 23396.17196778  1957.20685871
0.42900002 23459.30142448  2269.68752037
0.43000002 23524.14876536  2129.17080565
0.43100002 23589.37714942  1987.16922523
0.43200002 23657.65460433  1536.56473937
0.43300002 23726.70844193  2162.45230987
0.43400002 23797.82943155  2018.65097719
0.43500002 23869.73037484  2029.40457264
0.43600002 23943.61314223  1726.45430744
0.43700002 24017.90511205  1893.57172877
0.43800002 24092.73113644  1745.15706257
0.43900002 24169.57819991  1754.71146047
0.44000002 24246.48015416  1764.29521203
0.44100002 24324.43460283  2902.87816307
0.44200002 24402.80056771  1783.72279203
0.44300002 24481.76421841  2119.63124648
0.44400002 24560.93275125  1803.38657272
0.44500002 24639.87583767  2307.77088032
0.44600002 24718.86009957  2154.61954269
0.44700002 24799.03936387  1833.14507665
0.44800002 24877.88758591  1843.07838915
0.44900002 24957.35655941  3032.31896568
0.45000002 25036.77038446  2201.85887581
0.45100002 25114.99361250  2213.63564191
0.45200002 25193.25155412  2739.01043877
0.45300002 25270.50684917  2237.19807738
0.45400002 25347.43730499  1729.96267805
0.45500002 25424.00005397  2956.30286638
0.45600002 25499.19418788  1922.76682886
0.45700002 25573.94436958  2284.00907989
0.45800002 25647.30193365  2648.72523273
0.45900002 25719.45179404  3194.35606421
0.46000002 25791.06636129  2140.14278809
0.46100002 25860.58801029  2150.56660086
0.46200002 25929.48392326  2701.20411573
0.46300002 25997.05935551  2533.15358366
0.46400002 26062.45230448  1999.64174784
0.46500002 26127.48142050  1826.31103785
0.46600002 26189.90053059  2201.52314294
0.46700002 26250.63253038  2027.07394007
0.46800002 26310.48035062  1850.94238039
0.46900002 26367.70757224  2788.38520792
0.47000002 26423.37828715  2800.21764670
0.47100002 26477.34712054  2624.43477098
0.47200002 26529.39112270  2635.16454512
0.47300002 26579.36547877  2456.73086764
0.47400002 26626.66870403  2086.86525859
0.47500002 26672.37220834  2094.84821253
0.47600002 26716.54696350  2485.03973360
0.47700002 26757.38016925  2302.20509888
