# SAXS profile: number of points = 501, q_min = 0, q_max = 0.5, delta_q = 0.001
#    q    intensity    error
0.00000000 1664650.74656090 299.63713438
0.00100000 1664569.24304857 549.30786325
0.00200000 1664324.66975000 898.73535012
0.00300000 1663917.24229382 998.35038094
0.00400000 1663346.83867706 1497.01221169
0.00500000 1662613.95689261 2693.43471678
0.00600000 1661718.54414283 2617.20681358
0.00700000 1660661.09592374 2192.07273772
0.00800000 1659441.47041836 5152.56598319
0.00900000 1658060.88585194 2984.50972211
0.01000000 1656518.75311563 3553.23287886
0.01100000 1654816.29490187 3872.27029867
0.01200000 1652953.45945701 3545.58532599
0.01300000 1650931.41609157 3813.65173937
0.01400000 1648750.12198113 5935.50070226
0.01500000 1646411.08045659 4346.52544595
0.01600000 1643913.67488826 6287.97008754
0.01700000 1641260.14270420 5760.82335931
0.01800000 1638450.35364693 5136.54208982
0.01900000 1635485.08323807 5397.10101822
0.02000000 1632365.54387601 7712.92754371
0.02100000 1629093.54916932 6451.21074720
0.02200000 1625667.68486476 7851.97527463
0.02300000 1622091.51607824 7007.43566843
0.02400000 1618364.04498280 6068.86544541
0.02500000 1614488.21324500 7555.80518306
0.02600000 1610463.85641877 7174.61680850
0.02700000 1606293.13474230 6746.43147491
0.02800000 1601975.81557185 10452.89267597
0.02900000 1597514.53574452 10064.34203729
0.03000000 1592910.58870653 7407.03457795
0.03100000 1588164.26618320 11434.78324267
0.03200000 1583276.96057813 7837.22131583
0.03300000 1578252.76019290 8853.99839286
0.03400000 1573089.58701501 9910.46485547
0.03500000 1567790.59570911 9312.67656855
0.03600000 1562357.24287684 13006.62464803
0.03700000 1556790.93225171 9761.07959664
0.03800000 1551093.69107106 10888.67821524
0.03900000 1545267.25605660 10198.76436228
0.04000000 1539311.44132606 10413.44238312
0.04100000 1533230.51650609 11591.22324223
0.04200000 1527024.98689617 14773.96743363
0.04300000 1520696.11418999 11040.25430149
0.04400000 1514247.07058593 12265.40184138
0.04500000 1507679.27355107 11443.28621796
0.04600000 1500992.85452834 14814.80016289
0.04700000 1494192.10057483 12909.82034938
0.04800000 1487277.37828965 12024.63816296
0.04900000 1480252.18288721 15542.64864379
0.05000000 1473116.28928256 13523.20816534
0.05100000 1465874.53763619 13720.58631144
0.05200000 1458524.63675688 13914.32568309
0.05300000 1451073.19007704 17630.54008133
0.05400000 1443519.89257433 13099.94363601
0.05500000 1435867.11038641 13267.41271889
0.05600000 1428116.14427976 14652.47232406
0.05700000 1420272.33242990 13592.00685581
0.05800000 1412334.18616633 19998.65300990
0.05900000 1404304.13849712 12638.73783678
0.06000000 1396186.73934303 15330.13111419
0.06100000 1387982.64481351 15489.88703998
0.06200000 1379694.01049353 22164.78531464
0.06300000 1371324.62552626 19747.07553086
0.06400000 1362872.73325894 15945.61172485
0.06500000 1354344.46285859 16089.61297140
0.06600000 1345741.02188665 16229.63748331
0.06700000 1337063.65997661 16365.65996401
0.06800000 1328315.80754941 16497.68310201
0.06900000 1319500.00945380 19396.65104710
0.07000000 1310616.70898566 16749.68232520
0.07100000 1301669.56094342 15463.83510830
0.07200000 1292660.32904921 19816.48377266
0.07300000 1283592.15993546 18522.23573574
0.07400000 1274467.10393414 17205.30670942
0.07500000 1265286.88255880 17309.12536473
0.07600000 1256052.71057008 21761.11423080
0.07700000 1246769.69848138 17504.64738745
0.07800000 1237438.23824321 20529.10133519
0.07900000 1228060.05353218 22105.08200039
0.08000000 1218639.77677411 17767.76877887
0.08100000 1209178.01501292 17847.46833896
0.08200000 1199676.51052442 20910.36255966
0.08300000 1190138.80409648 22493.62445309
0.08400000 1180566.65850980 28599.22864481
0.08500000 1170962.19171087 15105.41298220
0.08600000 1161327.58449240 18186.39082703
0.08700000 1151666.43786811 15201.99769371
0.08800000 1141978.24599184 18294.49235997
0.08900000 1132268.44277351 21399.87457357
0.09000000 1122537.04664194 16854.89454710
0.09100000 1112786.49784191 18427.74527002
0.09200000 1103018.58788665 16925.82102641
0.09300000 1093238.75856479 20039.06738617
0.09400000 1083443.74859575 15439.07414309
0.09500000 1073638.98313702 24736.64333417
0.09600000 1063825.78470679 17026.53248461
0.09700000 1054008.54526388 17043.31897817
0.09800000 1044187.03585492 18607.41385381
0.09900000 1034364.51020652 17067.01522094
0.10000000 1024540.72425570 15521.79270242
0.10100000 1014719.29543795 17077.72654542
0.10200000 1004902.26426423 15525.74071316
0.10300000 995091.11108342 23285.13309470
0.10400000 985289.12449253 15518.30444082
0.10500000 975498.60041724 23265.64271458
0.10600001 965716.82047330 15499.75569791
0.10700001 955951.65765019 18583.70109923
0.10800001 946201.29301262 20111.50942946
0.10900001 936469.63857241 18542.09971643
0.11000001 926756.51400592 18516.59602141
0.11100001 917065.31108847 24650.71672245
0.11200001 907396.95488913 16918.41702038
0.11300001 897753.20309189 19957.05464433
0.11400001 888136.57028453 21448.49918226
0.11500001 878548.79826235 19872.77475246
0.11600001 868990.42430025 24401.25226344
0.11700001 859464.78524786 15212.52741532
0.11800001 849970.62564718 15171.97638238
0.11900001 840511.23035092 15129.20285893
0.12000001 831087.09334390 19609.50089115
0.12100001 821703.63257886 18044.61262148
0.12200001 812358.07385273 14988.00716869
0.12300001 803054.17956973 17924.17013248
0.12400001 793791.36554781 19348.66544689
0.12500001 784571.52140032 19276.92318914
0.12600001 775398.65474431 22157.01760343
0.12700001 766271.19157202 17654.88908583
0.12800001 757191.02452970 16116.81171669
0.12900001 748160.37232602 17506.95353757
0.13000001 739179.87699903 18882.35084796
0.13100001 730249.86880679 15904.84289233
0.13200001 721372.71360109 20147.94084066
0.13300001 712549.65426358 24347.82283402
0.13400001 703780.24013060 15676.70558800
0.13500001 695067.84414874 14179.38468917
0.13600001 686411.89804226 22569.22427179
0.13700001 677814.12639267 15433.82838572
0.13800001 669273.41588892 15349.78651724
0.13900001 660794.36335283 13876.68228481
0.14000001 652374.86105256 15177.50185817
0.14100001 644018.12075443 15089.34528093
0.14200001 635723.02989138 21818.01541493
0.14300001 627492.35113603 20330.75313576
0.14400001 619322.61793912 14817.29433312
0.14500001 611220.60092832 14724.30497094
0.14600001 603183.04239797 15960.22405476
0.14700001 595212.74089150 14535.09581829
0.14800001 587306.92156464 15751.57237950
0.14900001 579469.79992048 14341.87822469
0.15000001 571700.22280504 18128.61492051
0.15100001 563999.19703822 14145.10052915
0.15200001 556368.44409472 17876.11895228
0.15300001 548806.96944651 12677.44159245
0.15400001 541313.93422236 18878.32434689
0.15500001 533892.71130941 13742.39903765
0.15600001 526540.74030654 16120.04552527
0.15700001 519262.97414171 13537.18637479
0.15800001 512053.33639088 13433.71991427
0.15900001 504918.11437161 16965.24944366
0.16000001 497852.21055568 14427.75774293
0.16100001 490861.41902984 14313.51965457
0.16200001 483942.41005922 11832.39248451
0.16300001 477095.99053671 11736.56192126
0.16400001 470323.03145550 11640.49557807
0.16500001 463622.25109362 12698.61405697
0.16600001 456995.28791040 17171.59875396
0.16700001 450440.94315774 12486.22353387
0.16800001 443959.92488959 13505.26155281
0.16900001 437553.53887876 13389.13892190
0.17000001 431218.95146775 17697.22660389
0.17100001 424958.47183524 13156.71490930
0.17200001 418771.01558872 16300.66255156
0.17300001 412656.61710317 12924.40585802
0.17400001 406616.40970796 11741.04938480
0.17500001 400647.85717060 13750.23510749
0.17600001 394751.25964389 15720.96965781
0.17700001 388930.08413760 11422.87711063
0.17800001 383179.29874267 12346.03758862
0.17900001 377500.85705098 13250.28070835
0.18000001 371895.63024501 12116.36020570
0.18100001 366362.63594361 15002.55065056
0.18200001 360899.09636353 10897.34872946
0.18300001 355507.49929786 10793.20818855
0.18400001 350186.84980711 9717.68554122
0.18500001 344937.08048509 11548.49400022
0.18600001 339757.81110460 11436.24846207
0.18700001 334647.66048886 11324.47736597
0.18800001 329605.49695805 10278.74790827
0.18900001 324636.03405041 12952.97837061
0.19000001 319731.04400804 10076.32432801
0.19100001 314897.03666483 15417.35964358
0.19200001 310129.13030571 10773.88649590
0.19300001 305430.51264833 11554.43683946
0.19400001 300796.70534131 14077.28647518
0.19500001 296230.07999346 12192.83066870
0.19600001 291728.15804799 10344.68097323
0.19700001 287293.23996037 11945.65348207
0.19800001 282921.85895454 10134.26146668
0.19900001 278615.03026232 8358.45130289
0.20000001 274370.63706445 9099.50260830
0.20100001 270190.73540027 12280.16950433
0.20200001 266072.12078358 8912.08610686
0.20300001 262015.97491999 8819.45813266
0.20400001 258021.39032249 7934.15812743
0.20500001 254086.75683803 8636.40927314
0.20600001 250211.85518976 9322.89416504
0.20700001 246396.98261312 9993.86208719
0.20800001 242639.98963922 7606.76403476
0.20900001 238943.91842070 8279.40716466
0.21000001 235302.20401426 10426.24115274
0.21100001 231718.95679018 8105.52949170
0.21200001 228190.77844322 8748.83485911
0.21300001 224718.13706764 7934.79779498
0.21400001 221300.64824351 7850.64086759
0.21500001 217938.41165133 7061.20487134
0.21600001 214628.15592493 6986.14680565
0.21700001 211371.19986731 9676.57398743
0.21800001 208166.81765476 7522.10831160
0.21900001 205012.99370965 9471.60075722
0.22000001 201909.38510600 8031.95571929
0.22100001 198857.56548857 7946.34869265
0.22200001 195854.42423649 7861.59696058
0.22300001 192899.65399863 7777.71441700
0.22400001 189992.45629971 7694.69484399
0.22500001 187134.57482147 8881.40734100
0.22600001 184321.39947467 6903.75834379
0.22700001 181555.27022860 8692.86674962
0.22800001 178833.90987604 7371.53411369
0.22900001 176156.34716969 6077.39426476
0.23000001 173523.61469891 7215.11224040
0.23100001 170935.01533086 5948.53881484
0.23200001 168387.28246118 7650.67654045
0.23300001 165882.54310310 7569.22079978
0.23400001 163418.05937650 7488.63292511
0.23500001 160993.94727715 6269.10460348
0.23600001 158610.17262690 8457.88785536
0.23700001 156265.67667298 5578.68492109
0.23800001 153959.26897765 7175.27207008
0.23900001 151690.98577550 7099.13847008
0.24000001 149459.39327467 7564.14025142
0.24100001 147265.62041461 6949.46495608
0.24200001 145107.68706841 5289.17544383
0.24300001 142984.42215983 6803.19912818
0.24400001 140896.02446613 7249.10080169
0.24500001 138841.32403818 7684.86764904
0.24600001 136820.32580584 6083.03197309
0.24700001 134832.80670063 6018.93677585
0.24800001 132877.12667460 5955.55309929
0.24900001 130952.09217519 7857.12590221
0.25000001 129059.40672648 5830.90427175
0.25100001 127196.36800509 4808.02293805
0.25200001 125365.13987334 5709.12873993
0.25300001 123561.66445341 6120.00952992
0.25400001 121788.16385752 6055.91673433
0.25500001 120041.28769240 5070.54423202
0.25600001 118323.62412842 5017.51351856
0.25700001 116632.15599213 6319.13051063
0.25800001 114967.59049251 5359.78932235
0.25900001 113330.06106022 4861.85984952
0.26000001 111717.36049414 4811.10835732
0.26100001 110129.31075059 5626.50675247
0.26200001 108567.47139845 5996.18172906
0.26300001 107028.21471337 4662.14925352
0.26400001 105513.77364942 5452.42451133
0.26500001 104022.51758345 4980.59837757
0.26600001 102553.69248780 6160.91336774
0.26700001 101107.41755146 4064.51837790
0.26800001 99683.49161724  5228.89780022
0.26900001 98280.28912034  6766.59822614
0.27000001 96898.83964578  4332.83181980
0.27100001 95537.62823862  4287.72895826
0.27200001 94197.48435388  3857.38716684
0.27300001 92876.99912471  4962.41829808
0.27400001 91574.67620637  5288.43780119
0.27500001 90293.61400104  4859.60253552
0.27600001 89028.89848979  4069.06599805
0.27700001 87784.66684605  4758.80701494
0.27800001 86557.43263966  3984.67160015
0.27900001 85348.27128436  4660.01583267
0.28000001 84156.11832000  3547.18055507
0.28100001 82981.23000684  3861.11681496
0.28200001 81823.66044663  4515.43891546
0.28300001 80682.10858799  3437.05798852
0.28400001 79556.21761166  4421.33700303
0.28500001 78446.82923163  3701.90604666
0.28600001 77352.74509085  3330.03583378
0.28700001 76274.66651507  4283.58547424
0.28800001 75210.04870983  3260.35576589
0.28900001 74162.04919120  3871.25915102
0.29000001 73127.59824416  3830.42377734
0.29100001 72108.06073126  3474.16653048
0.29200001 71102.13773141  3437.43301134
0.29300001 70110.44786466  4637.80634578
0.29400001 69131.70689139  3670.89380970
0.29500001 68167.61720323  5145.29199006
0.29600001 67215.35675630  3892.77757082
0.29700001 66276.83201746  3258.83198457
0.29800001 65351.11104806  3810.29671003
0.29900001 64438.49262585  4059.62522761
0.30000001 63537.28601742  3155.57945944
0.30100001 62649.51230682  4540.83686696
0.30200001 61772.74753714  2807.57150848
0.30300001 60908.90417976  3610.68001071
0.30400001 60056.49464121  3022.34323590
0.30500001 59216.30482805  3805.23992840
0.30600001 58386.42333423  3764.17289056
0.30700001 57568.78331380  3989.51687252
0.30800001 56762.21387244  2630.92873755
0.30900001 55966.90165704  2602.46105026
0.31000001 55182.59795080  2831.69514791
0.31100001 54408.73187479  2800.96164953
0.31200001 53646.55853829  3274.31785541
0.31300001 52894.22427720  2740.44988955
0.31400001 52153.87685297  2957.12495757
0.31500001 51422.48996234  2437.42613962
0.31600002 50702.92029087  2652.01637138
0.31700002 49992.76233715  3100.05133931
0.31800002 49292.68216933  2830.38594418
0.31900002 48603.55345413  2566.26774389
0.32000002 47924.50350092  2999.83443868
0.32100002 47254.90309979  2967.13550613
0.32200002 46596.31627992  2483.35079373
0.32300002 45945.94713307  3796.05433188
0.32400002 45306.53891726  2871.30203984
0.32500002 44676.57803664  3277.02715416
0.32600002 44056.45138580  2809.25975564
0.32700002 43446.05130951  3206.31873847
0.32800002 42846.08608390  3171.68167255
0.32900002 42253.62410331  2719.02083980
0.33000002 41672.20386681  3103.53752995
0.33100002 41099.13283090  2456.08429428
0.33200002 40536.92427503  2632.26530245
0.33300002 39983.20723956  2604.10641083
0.33400002 39439.41562724  2576.37994786
0.33500002 38904.51073947  2156.86617754
0.33600002 38378.49153008  2328.03940646
0.33700002 37861.65413418  2303.50314661
0.33800002 37354.86454312  2659.29293276
0.33900002 36856.27298526  2255.60401352
0.34000002 36366.92658307  2046.18522110
0.34100002 35886.67641104  2209.18390449
0.34200002 35416.31554649  3097.68818598
0.34300002 34954.04603584  2164.35463304
0.34400002 34501.53927218  2321.09116446
0.34500002 34057.39396957  2651.36824610
0.34600002 33622.79381654  1925.07315114
0.34700002 33195.90427596  2772.52205644
0.34800002 32778.80585534  1887.56762458
0.34900002 32369.83024516  2379.18263570
0.35000002 31970.12371887  2019.87251222
0.35100002 31579.76193013  2334.37611244
0.35200002 31196.50340131  1817.04042667
0.35300002 30823.13493678  2455.06281399
0.35400002 30457.82234594  1784.06702841
0.35500002 30101.46395582  2250.38555192
0.35600002 29753.13717378  2071.26474246
0.35700002 29413.29452237  1737.44338973
0.35800002 29082.22977314  1722.68596221
0.35900002 28760.09442504  1708.34968976
0.36000002 28445.99266372  1848.42069084
0.36100002 28139.56644017  1833.57423609
0.36200002 27843.00875842  1970.86746832
0.36300002 27553.25658308  1955.73024490
0.36400002 27272.23617194  1642.47050125
0.36500002 26998.57304736  1926.88824966
0.36600002 26733.97880387  1913.21728372
0.36700002 26476.76835773  1607.66945083
0.36800002 26228.41867069  1887.26595485
0.36900002 25987.78546772  1875.01881031
0.37000002 25754.39408182  1863.20172811
0.37100002 25528.76070827  1851.85638950
0.37200002 25311.61350981  2124.27726444
0.37300002 25101.86292982  1549.03603478
0.37400002 24899.57020914  1400.60089061
0.37500002 24705.07778080  1532.70309813
0.37600002 24518.24649654  1663.80828607
0.37700002 24338.55594267  1655.99542479
0.37800002 24166.34603537  1511.24252091
0.37900002 24002.20441925  1504.93828838
0.38000002 23844.51613905  1635.25699428
0.38100002 23693.34704516  1357.62885000
0.38200002 23550.42691692  1352.97209047
0.38300002 23413.73930893  2157.81031693
0.38400002 23284.35817101  1479.13892289
0.38500002 23161.26685709  1609.24489747
0.38600002 23045.91394840  1739.15997851
0.38700002 22936.25593159  1735.35720600
0.38800002 22833.32054142  1865.25404340
0.38900002 22736.90002614  1596.13045745
0.39000002 22647.44279797  1461.09984133
0.39100002 22563.44237470  1724.74961683
0.39200002 22486.39877212  1855.80257858
0.39300002 22414.79492527  1324.71444284
0.39400002 22350.57498347  1589.12595661
0.39500002 22290.85396644  1588.89214601
0.39600002 22237.36880166  1324.23537488
0.39700002 22188.95769829  1457.14892108
0.39800002 22147.34893538  1723.17456556
0.39900002 22110.30112376  1857.26538239
0.40000002 22079.00064831  1859.27273268
0.40100002 22052.72638876  1728.71330352
0.40200002 22032.14855527  1598.21213192
0.40300002 22016.28125685  1601.02404885
0.40400002 22005.53160067  1470.51971889
0.40500002 21999.14388282  1339.74792594
0.40600002 21998.54491708  1343.01123082
0.40700002 22001.93493777  1615.82217839
0.40800002 22009.76579976  1755.38895453
0.40900002 22021.72997544  1625.20374919
0.41000002 22038.69791801  1494.55437012
0.41100002 22059.47601000  2181.24109122
0.41200002 22083.56382981  1778.49989730
0.41300002 22112.98543697  1647.85975284
0.41400002 22145.36416030  1792.11367959
0.41500002 22181.49935875  1937.77587580
0.41600002 22220.34358885  1528.87081307
0.41700002 22264.07112407  1954.34025588
0.41800002 22311.44877827  1682.72954659
0.41900002 22360.28078628  1972.17685880
0.42000002 22412.86949511  1415.37277568
0.42100002 22469.11978040  1848.98395434
0.42200002 22527.92743117  1572.33676956
0.42300002 22589.08251025  1867.66543045
0.42400002 22652.82427498  1732.94113915
0.42500002 22719.59905288  2177.67367241
0.42600002 22787.52166868  1459.54083204
0.42700002 22858.96279876  2054.56367371
0.42800002 22931.76285782  2656.18621769
0.42900002 23007.51573148  2077.57876900
0.43000002 23084.92085814  1641.68422462
0.43100002 23162.68481224  1951.22466105
0.43200002 23243.46237176  2113.52813362
0.43300002 23325.02031814  2125.84245253
0.43400002 23408.54040406  1985.62953387
0.43500002 23492.80120450  1843.71512590
0.43600002 23579.03334117  2163.84799226
0.43700002 23665.55886588  2332.24093676
0.43800002 23752.67174369  2033.34756098
0.43900002 23841.67834685  1730.90593001
0.44000002 23930.72035900  2532.82756283
0.44100002 24020.77738052  2229.60866212
0.44200002 24111.16730290  2082.84328617
0.44300002 24202.10844168  1934.23259832
0.44400002 24293.18309884  1621.57004869
0.44500002 24383.92419141  1794.41306628
0.44600002 24474.73425845  1805.13411078
0.44700002 24566.54865311  1650.87214773
0.44800002 24657.13464068  1660.65809675
0.44900002 24748.12511768  2505.74778692
0.45000002 24839.02789691  2352.50444361
0.45100002 24928.64256466  2197.21065978
0.45200002 25018.25264946  2209.98745253
0.45300002 25106.85847686  2222.71028630
0.45400002 25194.94401262  1719.55501036
0.45500002 25282.59078469  2248.12807912
0.45600002 25368.88954270  2608.55619086
0.45700002 25454.56050800  2273.34690671
0.45800002 25538.74662766  2110.01134638
0.45900002 25621.75991184  2121.48182125
0.46000002 25704.04810616  1955.17851186
0.46100002 25784.16834793  2144.21154144
0.46200002 25863.62996659  2335.09794221
0.46300002 25941.50559203  2708.29331217
0.46400002 26017.24309224  1996.17307086
0.46500002 26092.49113984  2735.79782568
0.46600002 26164.98375090  2199.42863834
0.46700002 26235.79388869  2210.10338193
0.46800002 26305.51081200  2960.94843734
0.46900002 26372.64138895  2417.05269786
0.47000002 26437.94783461  1867.84110304
0.47100002 26501.51117086  2063.93778781
0.47200002 26563.03332066  2261.57676411
0.47300002 26622.36488509  3407.13041948
0.47400002 26678.97661398  2090.96489123
0.47500002 26733.87756329  2099.67884334
0.47600002 26787.05525356  2491.59806251
0.47700002 26836.82205294  2116.62025564
