# SAXS profile: number of points = 501, q_min = 0, q_max = 0.5, delta_q = 0.001
#    q    intensity    error
0.00000000 1682732.95097188 353.37391970
0.00100000 1682651.00118685 605.75437481
0.00200000 1682405.09905263 832.79055040
0.00300000 1681995.44931500 1211.03676665
0.00400000 1681421.92800802 1261.06649392
0.00500000 1680685.06121467 1966.40159945
0.00600000 1679784.76785776 1940.15148586
0.00700000 1678721.53473187 2215.91251794
0.00800000 1677495.24947069 2944.00428712
0.00900000 1676107.13973534 3016.99298049
0.01000000 1674556.56749461 3591.92399237
0.01100000 1672844.79504709 3312.23283841
0.01200000 1670971.76731260 3258.39508912
0.01300000 1668938.65685619 3855.24846737
0.01400000 1666745.43113885 4875.23060220
0.01500000 1664393.54981040 4393.99916716
0.01600000 1661882.41491358 5085.36041697
0.01700000 1659214.29621858 5375.85456090
0.01800000 1656389.11247656 7081.06377447
0.01900000 1653407.51582160 5952.26732554
0.02000000 1650270.74866053 8837.20025883
0.02100000 1646980.72519038 7065.54763141
0.02200000 1643536.00169374 7938.27924884
0.02300000 1639940.02972386 7084.54125088
0.02400000 1636191.93618203 7362.86404855
0.02500000 1632294.62183448 7639.13917907
0.02600000 1628247.92730845 7913.28528866
0.02700000 1624053.96505243 8185.23235876
0.02800000 1619712.63072745 7045.75026678
0.02900000 1615226.52956952 7995.37168847
0.03000000 1610596.83073232 8987.13072858
0.03100000 1605823.95588920 10020.34194582
0.03200000 1600909.36583077 18226.35396946
0.03300000 1595856.96156053 11394.41923083
0.03400000 1590664.61742535 14196.68236556
0.03500000 1585335.82105287 11129.05797771
0.03600000 1579871.74708618 10521.94632185
0.03700000 1574274.05638262 9870.69879001
0.03800000 1568544.49335847 10093.58428189
0.03900000 1562684.94459744 10313.72111197
0.04000000 1556695.20592069 9573.67596005
0.04100000 1550579.60079321 14652.97790690
0.04200000 1544338.61079043 12949.27985223
0.04300000 1537973.54601101 16241.00139975
0.04400000 1531487.39242367 10337.54037896
0.04500000 1524881.71976126 14730.35809734
0.04600000 1518156.68978040 12843.60619260
0.04700000 1511316.58752768 10881.47993627
0.04800000 1504361.70567022 18797.00038694
0.04900000 1497295.61355480 13475.66114925
0.05000000 1490118.20515822 11399.40480029
0.05100000 1482833.99075619 16192.54793337
0.05200000 1475440.99896391 14075.70778606
0.05300000 1467945.69078522 11890.36064966
0.05400000 1460347.82615924 13252.65714042
0.05500000 1452649.69804978 13422.48383613
0.05600000 1444852.75975660 13588.84083962
0.05700000 1436962.21371598 13751.72902717
0.05800000 1428976.50726817 12646.44267982
0.05900000 1420898.40271298 14066.89484386
0.06000000 1412732.11716096 19389.74921390
0.06100000 1404478.53219640 14367.81605580
0.06200000 1396139.81885920 18470.93066690
0.06300000 1387719.38227964 15986.52803132
0.06400000 1379216.04199465 14792.09274217
0.06500000 1370635.64898744 17640.08162763
0.06600000 1361979.27259023 19163.04926196
0.06700000 1353248.53217315 17944.07637638
0.06800000 1344446.55578276 16698.02700444
0.06900000 1335575.97631885 22437.67745266
0.07000000 1326637.18952262 16954.42407605
0.07100000 1317634.04626491 17076.53803942
0.07200000 1308568.16970666 17194.58655546
0.07300000 1299442.72646942 18750.95942154
0.07400000 1290259.99274301 15966.96815847
0.07500000 1281021.29656991 14603.64346541
0.07600000 1271728.08446082 14688.46006413
0.07700000 1262385.53281647 19200.88485444
0.07800000 1252993.95013260 16332.77690592
0.07900000 1243555.01889501 23876.25748267
0.08000000 1234073.43546794 16493.39223875
0.08100000 1224549.90867414 15061.96458337
0.08200000 1214986.13093191 16639.23584391
0.08300000 1205385.47042470 21263.00069621
0.08400000 1195750.06758069 18294.97689273
0.08500000 1186081.55182550 21420.63383156
0.08600000 1176382.57666179 15351.79334623
0.08700000 1166656.57190703 18479.84096678
0.08800000 1156903.10170881 16989.12284647
0.08900000 1147127.38793624 26326.57478969
0.09000000 1137329.57040622 26391.73392104
0.09100000 1127512.15603826 20227.56902964
0.09200000 1117677.07900683 17150.75558322
0.09300000 1107829.59573932 26554.67665773
0.09400000 1097966.27274732 17210.62213417
0.09500000 1088092.91532102 21935.95420392
0.09600000 1078210.75604477 15687.96723791
0.09700000 1068324.31401058 17274.80496969
0.09800000 1058432.97434883 17289.50344890
0.09900000 1048540.02186497 18873.72128106
0.10000000 1038645.77141343 20456.12942998
0.10100000 1028753.25380922 22035.89573298
0.10200000 1018864.85883322 25186.34049503
0.10300000 1008981.90031508 22036.16573948
0.10400000 999107.86808269 18883.13959512
0.10500000 989244.93919723 26739.29196457
0.10600001 979390.28959151 20434.97935387
0.10700001 969552.11534595 17277.41950850
0.10800001 959728.19976709 18829.86816560
0.10900001 949922.71649699 18808.47067187
0.11000001 940135.67421778 20349.23762627
0.11100001 930370.30380144 18756.26620756
0.11200001 920627.13085884 18725.55672321
0.11300001 910908.50622272 20249.49704669
0.11400001 901216.64999072 20209.78432761
0.11500001 891553.57681744 20166.94285723
0.11600001 881919.36179768 17025.45408126
0.11700001 872317.91451229 18528.03337682
0.11800001 862747.51285998 16940.04821285
0.11900001 853211.58824445 26108.27583002
0.12000001 843711.00461178 18376.02654605
0.12100001 834250.72160317 16793.46781698
0.12200001 824828.01273992 18261.69306239
0.12300001 815446.99351804 15167.31479403
0.12400001 806106.63513945 21160.30016943
0.12500001 796809.28913567 21083.57478400
0.12600001 787558.69493376 18003.59261458
0.12700001 778353.23724274 17933.25943120
0.12800001 769195.00369599 26791.06324137
0.12900001 760086.18694680 14821.68134404
0.13000001 751027.26998789 23612.29848138
0.13100001 742018.73136066 17630.36588818
0.13200001 733063.22201630 16087.07316550
0.13300001 724161.47934578 24744.59891578
0.13400001 715313.23714049 20279.13122900
0.13500001 706521.84355414 15854.35091686
0.13600001 697786.97658660 17207.42765397
0.13700001 689110.18326010 17117.49775933
0.13800001 680490.31247389 18444.69078938
0.13900001 671932.29985885 16932.69475496
0.14000001 663433.50621649 14031.61931822
0.14100001 654997.49591507 15346.59205308
0.14200001 646623.03578123 15257.07124886
0.14300001 638313.14400024 17923.83392895
0.14400001 630064.05509849 19185.45138272
0.14500001 621882.75669068 16343.07961677
0.14600001 613765.76404415 14886.88930917
0.14700001 605716.12346804 20170.34786305
0.14800001 597731.15424226 18703.00869862
0.14900001 589814.77496796 17252.08298178
0.15000001 581965.87651074 15817.83326989
0.15100001 574185.81039744 17018.86822321
0.15200001 566475.80751470 18200.86855429
0.15300001 558835.45918676 12909.09971638
0.15400001 551263.17095952 17943.61706151
0.15500001 543763.06874105 12724.05640903
0.15600001 536332.16833913 13893.68547654
0.15700001 528975.48923381 17551.40756115
0.15800001 521687.17708610 16174.91168899
0.15900001 514473.30378803 13582.09586109
0.16000001 507329.07594804 20828.39619620
0.16100001 500259.70756178 12156.31146758
0.16200001 493262.57924484 12060.27063185
0.16300001 486337.90377318 14356.69559713
0.16400001 479486.94207660 15427.49308964
0.16500001 472708.26916833 15301.56739539
0.16600001 466003.82900792 17510.09470168
0.16700001 459371.60059636 12733.78136975
0.16800001 452813.27657851 13774.58052390
0.16900001 446329.75357029 12519.55017880
0.17000001 439918.26441890 14669.07521972
0.17100001 433580.89767174 14542.30399462
0.17200001 427316.58901023 13306.63921016
0.17300001 421125.95808168 15387.94323499
0.17400001 415009.31521003 16340.99255812
0.17500001 408964.80314238 12956.00557543
0.17600001 402992.27362693 12839.33444414
0.17700001 397095.60488578 12722.94378145
0.17800001 391269.57929173 12606.70644022
0.17900001 385515.75575734 13531.60366623
0.18000001 379835.78702324 13406.30473623
0.18100001 374228.11500739 12259.71362675
0.18200001 368690.09354190 13156.70660954
0.18300001 363224.39230989 12029.99244159
0.18400001 357829.74471033 9929.77588480
0.18500001 352506.43566859 13768.90202769
0.18600001 347253.90786634 11688.56709099
0.18700001 342070.48174128 16398.85966944
0.18800001 336955.59571115 15284.30654358
0.18900001 331913.62508258 12297.40039033
0.19000001 326936.44202751 12176.74835865
0.19100001 322030.67722332 13911.72591338
0.19200001 317191.00539730 10100.94804416
0.19300001 312421.26066407 12728.04276089
0.19400001 307716.48100910 9900.77824432
0.19500001 303079.29764158 12474.74448042
0.19600001 298506.91569009 11467.14370813
0.19700001 294002.12301445 10478.23615941
0.19800001 289561.20364176 9507.74257090
0.19900001 285185.15246885 11977.77696976
0.20000001 280871.63766917 11008.76435873
0.20100001 276623.20116071 10058.02006957
0.20200001 272436.29067469 9125.25398744
0.20300001 268312.36426769 15599.68159584
0.20400001 264250.07758298 8938.25929672
0.20500001 260248.29484991 12062.50903645
0.20600001 256306.76628851 11141.65565721
0.20700001 252425.30531803 8663.23688802
0.20800001 248602.30479555 8573.05088612
0.20900001 244840.52360435 9254.97222974
0.21000001 241133.47630775 9921.43735169
0.21100001 237485.41290347 10572.85108228
0.21200001 233892.76067870 8220.16146266
0.21300001 230355.94479836 8873.31141312
0.21400001 226874.73476083 10243.39475872
0.21500001 223449.12917655 10135.65297864
0.21600001 220076.05318963 8596.17104400
0.21700001 216756.65600393 7087.94298644
0.21800001 213490.15097490 9117.09732844
0.21900001 210274.46079397 6939.05753429
0.22000001 207109.64381949 6865.68501724
0.22100001 203996.83376900 8831.02335142
0.22200001 200933.40499388 7393.34498634
0.22300001 197918.60195101 11305.11107801
0.22400001 194951.79318590 7237.58566427
0.22500001 192034.67147098 7160.97323778
0.22600001 189162.83538188 9661.49227400
0.22700001 186338.42602383 8921.88425993
0.22800001 183559.06981877 8196.83065039
0.22900001 180824.15587676 8109.96377460
0.23000001 178134.40761933 6789.59326750
0.23100001 175489.11584782 7939.12797642
0.23200001 172885.39107017 6646.57917403
0.23300001 170324.99295852 8369.77054983
0.23400001 167805.11654932 6506.64370193
0.23500001 165326.25986901 7608.31483902
0.23600001 162888.18421421 6369.74274497
0.23700001 160489.70358301 6875.37922669
0.23800001 158129.81010819 7936.53554472
0.23900001 155808.55126655 7291.84054418
0.24000001 153524.25769872 6104.89239615
0.24100001 151278.46785632 8237.11296440
0.24200001 149068.80644530 5976.91407714
0.24300001 146894.47394838 5913.97180091
0.24400001 144755.22165382 5319.75464742
0.24500001 142650.17760498 6842.92934341
0.24600001 140579.23003427 6250.15286299
0.24700001 138542.40077239 6184.53306304
0.24800001 136537.77805206 6629.59212694
0.24900001 134564.15925849 5550.77183201
0.25000001 132623.35650298 5991.92353027
0.25100001 130712.78952297 6917.32114881
0.25200001 128834.51409245 7333.90506168
0.25300001 126984.22647498 6289.52903487
0.25400001 125164.48405563 6223.80426412
0.25500001 123371.71416315 6632.46366721
0.25600001 121608.85563228 5156.82376707
0.25700001 119872.50818209 5102.97291475
0.25800001 118163.41966166 5049.71397816
0.25900001 116482.01175372 5905.63827534
0.26000001 114825.68141492 5844.05333213
0.26100001 113194.73731217 5338.26406423
0.26200001 111590.11260805 4842.45316576
0.26300001 110008.84639102 5227.62062786
0.26400001 108452.59762276 4742.09005544
0.26500001 106920.02633957 5972.55295394
0.26600001 105410.36876597 5066.02256261
0.26700001 103923.67311671 5431.05141408
0.26800001 102459.91013634 4134.25756964
0.26900001 101017.09671121 4500.31187145
0.27000001 99596.53994579  4858.31944846
0.27100001 98196.75297104  4006.42771081
0.27200001 96818.41293030  7929.42839424
0.27300001 95460.20180648  5885.12171988
0.27400001 94120.57563323  4270.72132147
0.27500001 92802.56156574  5378.83672291
0.27600001 91501.46960433  4562.26349039
0.27700001 90221.24331821  5267.11643419
0.27800001 88958.38212999  4095.19931517
0.27900001 87714.10027398  3683.99238586
0.28000001 86487.14240595  3645.43322494
0.28100001 85278.03086454  5410.89131445
0.28200001 84086.46037379  3569.47041181
0.28300001 82911.55220638  4944.84520763
0.28400001 81752.58768035  4543.40027538
0.28500001 80610.62267669  4149.83505181
0.28600001 79484.27543190  4106.15786316
0.28700001 78374.38916764  5755.81541291
0.28800001 77278.30967417  3685.01637124
0.28900001 76199.38653993  5634.94490135
0.29000001 75134.38118363  3607.57748329
0.29100001 74084.60377379  4218.37753856
0.29200001 73048.87981216  3531.54826169
0.29300001 72027.83748962  4446.99889711
0.29400001 71020.08630865  3456.90286471
0.29500001 70027.36502075  4041.97970033
0.29600001 69046.93631099  5229.26996905
0.29700001 68080.42804424  3651.83433316
0.29800001 67127.34124954  4214.92595659
0.29900001 66187.66699309  3276.28967125
0.30000001 65259.76294840  3535.77412393
0.30100001 64345.69405369  3789.31810221
0.30200001 63442.91835109  3171.82885312
0.30300001 62553.54817061  3993.41870426
0.30400001 61675.92141251  2821.67353821
0.30500001 60810.94548279  3070.34478278
0.30600001 59956.53976922  3313.19854450
0.30700001 59114.76419243  3277.32268199
0.30800001 58284.41896580  3241.77953636
0.30900001 57465.72495956  5611.52830797
0.31000001 56658.40120883  2907.42599568
0.31100001 55861.79439339  2875.76531153
0.31200001 55077.19546505  3361.63678437
0.31300001 54302.84994294  2557.66435341
0.31400001 53540.79544511  3288.74351593
0.31500001 52787.86264401  3753.21721169
0.31600002 52047.35932664  2722.33725848
0.31700002 51316.50489982  3426.91635947
0.31800002 50596.01700980  4357.83515139
0.31900002 49886.76149523  2394.56466515
0.32000002 49188.07881066  2842.08732825
0.32100002 48498.96498174  2342.50011954
0.32200002 47821.28876418  2548.63570537
0.32300002 47152.16314593  2520.75476114
0.32400002 46494.27076962  2719.91496881
0.32500002 45846.01057999  2241.87002352
0.32600002 45207.93285167  2660.93905365
0.32700002 44579.97070291  3070.66852742
0.32800002 43962.60300298  3471.28729749
0.32900002 43353.19488363  2145.98324836
0.33000002 42754.91286465  2971.89413395
0.33100002 42165.36205761  2309.81864290
0.33200002 41586.90266217  2700.44565225
0.33300002 41017.25369541  3082.44676118
0.33400002 40457.71030017  2439.60004663
0.33500002 39907.54080585  3017.01022780
0.33600002 39366.36104537  1989.96964508
0.33700002 38834.63463626  2362.69928316
0.33800002 38313.21778673  2922.34082508
0.33900002 37800.24227788  2120.59369222
0.34000002 37296.72982645  2670.81894936
0.34100002 36802.67636828  2831.96608066
0.34200002 36318.62890279  2242.31225465
0.34300002 35842.87009927  2219.39062166
0.34400002 35377.24878658  2196.92725369
0.34500002 34920.14477003  1812.35559940
0.34600002 34472.93987976  2691.47490858
0.34700002 34033.49183784  1954.20319388
0.34800002 33604.18230630  2286.93273517
0.34900002 33183.11405830  2090.53628468
0.35000002 32771.64968449  2070.51292513
0.35100002 32369.64615792  1880.02913790
0.35200002 31974.98954861  2539.61366518
0.35300002 31590.50786187  2180.69286099
0.35400002 31213.95144809  2493.21449000
0.35500002 30846.95020540  1976.67266279
0.35600002 30488.00347800  2122.42246265
0.35700002 30137.72282245  2103.91452989
0.35800002 29796.45438728  2246.35480266
0.35900002 29464.21907600  1750.17469601
0.36000002 29140.27287576  2209.12419135
0.36100002 28824.19991559  2347.73119433
0.36200002 28518.22227931  2173.94418732
0.36300002 28218.99061822  1694.83265681
0.36400002 27928.88369879  1682.01710043
0.36500002 27646.21692107  1669.55511895
0.36600002 27372.78285006  2410.99482764
0.36700002 27106.86294487  2094.81846761
0.36800002 26850.05503722  1783.38074005
0.36900002 26601.00913978  1919.26290035
0.37000002 26359.38548227  2200.34980736
0.37100002 26125.69604346  1603.59529911
0.37200002 25900.56739628  1449.13681447
0.37300002 25683.08682240  1440.82123899
0.37400002 25473.19057716  1719.44044541
0.37500002 25271.12685285  2137.93743303
0.37600002 25076.85790715  1701.71565819
0.37700002 24890.03818360  1552.39175505
0.37800002 24710.56907993  2388.15306186
0.37900002 24539.50648953  1398.75193617
0.38000002 24374.92673065  1671.63255438
0.38100002 24216.98932597  1526.39690953
0.38200002 24067.40632031  1659.20707032
0.38300002 23924.25586689  1515.84092354
0.38400002 23788.38460501  1648.53513123
0.38500002 23658.98176598  1643.82613098
0.38600002 23537.43778266  2186.15732482
0.38700002 23421.68691980  1772.08491630
0.38800002 23312.72177395  1632.35685595
0.38900002 23210.38175794  1765.14961632
0.39000002 23115.09495529  1897.98053670
0.39100002 23025.32410107  2030.83368193
0.39200002 22942.76814436  1622.97149542
0.39300002 22865.53709446  1486.48863694
0.39400002 22795.87714644  1620.78694190
0.39500002 22730.80177475  1485.23065833
0.39600002 22671.93110767  1890.15898600
0.39700002 22618.30511213  1350.31287917
0.39800002 22571.60383988  1891.27477535
0.39900002 22529.40707635  1622.11738635
0.40000002 22493.10299214  2029.44031362
0.40100002 22461.91353610  1625.34414048
0.40200002 22436.43777430  1491.91100049
0.40300002 22415.77536494  1630.07526177
0.40400002 22400.32556964  2177.31174853
0.40500002 22389.20579786  1772.55350700
0.40600002 22384.00993154  1503.19825817
0.40700002 22382.76507129  1917.75540217
0.40800002 22386.05501878  2609.43062690
0.40900002 22393.68931480  2203.53913298
0.41000002 22406.19963938  2210.14763715
0.41100002 22422.64675059  1801.43552530
0.41200002 22442.34107509  1668.36371457
0.41300002 22467.53609598  1534.75746344
0.41400002 22495.69778679  1680.42870430
0.41500002 22527.62494803  1546.29624970
0.41600002 22562.29295630  2116.90723693
0.41700002 22601.86859699  1842.27839663
0.41800002 22645.29245409  1423.25669818
0.41900002 22690.01968580  1572.41843873
0.42000002 22738.63856301  1723.13411195
0.42100002 22790.93258005  1731.19932081
0.42200002 22845.77977421  1594.52127490
0.42300002 22903.00219284  1747.95721019
0.42400002 22962.81807781  2049.43161056
0.42500002 23025.84986854  2059.89262685
0.42600002 23089.92166354  1626.80050789
0.42700002 23157.55549259  1784.05815969
0.42800002 23226.53698254  1644.09049822
0.42900002 23298.46336169  2404.40153286
0.43000002 23372.20485287  1964.31704994
0.43100002 23446.24361083  1823.17998957
0.43200002 23523.26767685  1527.83630801
0.43300002 23601.15017747  1843.72193923
0.43400002 23681.07377088  2008.74717781
0.43500002 23761.61311285  1709.41052834
0.43600002 23844.24400473  1719.28929544
0.43700002 23927.11655640  2200.81628515
0.43800002 24010.66543459  2055.43311193
0.43900002 24096.01276898  1908.40430174
0.44000002 24181.47382874  1599.60456958
0.44100002 24267.94655528  2413.44739930
0.44200002 24354.77769189  1618.37505432
0.44300002 24442.12699838  2604.55317638
0.44400002 24529.64043470  1964.82429193
0.44500002 24616.82488629  1811.55222923
0.44600002 24704.08539025  1656.40900392
0.44700002 24792.36375645  2665.67507742
0.44800002 24879.37870267  2178.31410555
0.44900002 24966.89843298  2527.89858614
0.45000002 25054.25226997  1864.41227103
0.45100002 25140.36142224  2045.41990225
0.45200002 25226.47906248  2399.79506695
0.45300002 25311.43947184  2930.30548653
0.45400002 25396.05384378  2599.92113547
0.45500002 25480.25549693  2614.27433788
0.45600002 25562.97050847  1752.34171141
0.45700002 25645.19014245  2642.73696943
0.45800002 25725.82748269  2125.46796735
0.45900002 25805.30580152  2136.67942163
0.46000002 25884.08720440  1968.87318652
0.46100002 25960.64395474  2698.60906700
0.46200002 26036.57959165  2169.88864601
0.46300002 26110.97381774  1999.05625023
0.46400002 26183.20020553  2008.90613098
0.46500002 26254.92276202  2018.74110685
0.46600002 26323.91842862  2212.78868799
0.46700002 26391.16155128  2037.92559158
0.46800002 26457.37469692  2419.65931759
0.46900002 26520.90328352  2243.66852413
0.47000002 26582.71254275  2065.87560318
0.47100002 26642.74696603  2074.93723206
0.47200002 26700.77658837  2462.74624536
0.47300002 26756.60461735  2853.59201769
0.47400002 26809.60942446  2483.24019064
0.47500002 26860.99014846  2301.44974500
0.47600002 26910.65402419  2118.00312536
0.47700002 26956.79747194  2319.36296442
