# SAXS profile: number of points = 501, q_min = 0, q_max = 0.5, delta_q = 0.001
#    q    intensity    error
0.00000000 1646666.22097350 271.69992646
0.00100000 1646585.38574087 543.37319020
0.00200000 1646342.81860166 889.02515020
0.00300000 1645938.74003502 1283.83226296
0.00400000 1645373.02205649 1480.83577612
0.00500000 1644646.16887472 1628.19977163
0.00600000 1643758.09129894 2934.10831242
0.00700000 1642709.33093092 2168.37640695
0.00800000 1641499.74275265 3324.03711941
0.00900000 1640130.51478314 2460.19587734
0.01000000 1638601.03596164 3514.79937391
0.01100000 1636912.57351135 3241.08703667
0.01200000 1635065.05589872 3826.05239855
0.01300000 1633059.65083604 5487.08066882
0.01400000 1630896.30598709 5137.32359160
0.01500000 1628576.55605253 4299.44229943
0.01600000 1626099.71007938 5390.52077989
0.01700000 1623467.99651150 5260.03654466
0.01800000 1620681.40210497 5080.83642422
0.01900000 1617740.55697709 7765.15502387
0.02000000 1614646.69828256 5086.13732966
0.02100000 1611401.73395487 8508.20154103
0.02200000 1608004.17435382 5547.61465356
0.02300000 1604457.49162210 5776.04723276
0.02400000 1600760.82131703 7803.70935975
0.02500000 1596917.01920077 8719.16732305
0.02600000 1592925.96977857 7741.62056721
0.02700000 1588789.72436912 7340.20886278
0.02800000 1584508.20152899 7581.87209202
0.02900000 1580083.88327720 9243.49114158
0.03000000 1575518.06484320 8791.39120592
0.03100000 1570811.09608274 11309.84041220
0.03200000 1565964.33473675 7751.52381397
0.03300000 1560981.86849856 7961.00789635
0.03400000 1555861.62669657 9801.92870045
0.03500000 1550606.72220779 9210.60435524
0.03600000 1545218.49495506 10291.15565199
0.03700000 1539698.72615829 10531.53977398
0.03800000 1534048.91266300 8974.18655440
0.03900000 1528271.02516400 10086.58923319
0.04000000 1522365.01157523 10298.79978054
0.04100000 1516334.93811758 15284.65688492
0.04200000 1510181.34296256 12662.87114821
0.04300000 1503905.29453508 9925.77540467
0.04400000 1497510.34504811 10108.19529852
0.04500000 1490997.77736312 10287.88514183
0.04600000 1484367.49492462 14650.70785597
0.04700000 1477623.80603922 15958.33784741
0.04800000 1470767.28073964 16215.21002462
0.04900000 1463801.06644993 14272.06106222
0.05000000 1456725.38490953 13372.73965619
0.05100000 1449544.60455122 14698.38297486
0.05200000 1442257.01109306 12612.53814977
0.05300000 1434868.54479504 12784.67933012
0.05400000 1427379.15346926 14131.05427833
0.05500000 1419791.32059752 14311.49717924
0.05600000 1412106.06310045 18110.26110436
0.05700000 1404328.78306297 15882.95927784
0.05800000 1396458.20033949 13594.52121507
0.05900000 1388496.53897223 16245.41026473
0.06000000 1380448.13959948 17683.54149442
0.06100000 1372314.10443391 20420.03482823
0.06200000 1364096.42421673 12890.71181141
0.06300000 1355798.76117404 13015.66871582
0.06400000 1347419.36676100 17078.54127240
0.06500000 1338964.09107589 17232.46865824
0.06600000 1330434.76485389 13370.87001239
0.06700000 1321831.81387548 14830.95364576
0.06800000 1313159.38680004 14950.32031853
0.06900000 1304419.61608248 19174.96925416
0.07000000 1295613.19604489 13798.28118403
0.07100000 1286743.28773546 16676.19379013
0.07200000 1277812.33302005 19588.86398287
0.07300000 1268822.66178817 18309.11186749
0.07400000 1259776.91200771 18424.23820155
0.07500000 1250676.60723457 15683.48538985
0.07600000 1241522.90417773 20075.42630170
0.07700000 1232320.93646800 15859.97119599
0.07800000 1223071.12029172 14493.39345514
0.07900000 1213774.98309492 17478.36057637
0.08000000 1204437.40081709 20487.48114899
0.08100000 1195058.61507481 14699.22165508
0.08200000 1185640.66369832 20665.71773800
0.08300000 1176187.29588041 16301.95668599
0.08400000 1166699.43162799 26775.75321268
0.08500000 1157179.90169055 17913.14571911
0.08600000 1147630.85724846 17971.90006832
0.08700000 1138055.32197258 19529.03024209
0.08800000 1128453.27904477 21090.79277585
0.08900000 1118830.06009677 18125.04782490
0.09000000 1109185.33391498 16654.41857108
0.09100000 1099521.74030687 24277.44116656
0.09200000 1089841.31080560 15203.28700009
0.09300000 1080149.46462008 16753.11898352
0.09400000 1070442.37697602 28982.22871872
0.09500000 1060725.86125978 16801.89843209
0.09600000 1051001.09466304 18350.47997543
0.09700000 1041272.62460039 18368.04996148
0.09800000 1031539.98461139 22977.55423757
0.09900000 1021806.50676709 19925.22781889
0.10000000 1012072.06794765 19932.76031561
0.10100000 1002339.92460712 18402.96188131
0.10200000 992612.60724709 18403.03860397
0.10300000 982891.09510838 19933.03234646
0.10400000 973178.80412102 18393.08026319
0.10500000 963478.00838426 16851.23115948
0.10600001 953786.47549152 18369.92838234
0.10700001 944111.08077097 19882.98029668
0.10800001 934450.64332992 16806.09561121
0.10900001 924809.11379093 16785.28620532
0.11000001 915186.05954139 18285.41833032
0.11100001 905584.73279511 18256.58907255
0.11200001 896006.37687636 18224.77056363
0.11300001 886452.55300824 19705.84118114
0.11400001 876925.93151199 15126.97303083
0.11500001 867427.64986605 18111.89018206
0.11600001 857959.18619063 16562.90286938
0.11700001 848523.01367076 18022.62965914
0.11800001 839118.35211502 16476.08961977
0.11900001 829748.39980716 14935.47190001
0.12000001 820413.49177262 19357.65725022
0.12100001 811118.86933477 17812.17120969
0.12200001 801862.48320810 22191.54526826
0.12300001 792646.87512823 20640.52560081
0.12400001 783472.75955264 16159.12642715
0.12500001 774341.12283682 17562.05749347
0.12600001 765256.23577020 18951.57157191
0.12700001 756216.48792025 14519.35725231
0.12800001 747223.66318881 28917.55712827
0.12900001 738280.06019665 21594.69277856
0.13000001 729386.57982205 15765.69166597
0.13100001 720543.41827076 15693.43638969
0.13200001 711752.38592063 19879.24507588
0.13300001 703015.21899273 15543.66722470
0.13400001 694331.83327818 15466.24231544
0.13500001 685704.41769903 13988.37078059
0.13600001 677133.32580198 19481.12670187
0.13700001 668620.16590696 20760.65713034
0.13800001 660163.84210898 16517.30010845
0.13900001 651768.36953992 13687.13640580
0.14000001 643431.95625256 16330.30381984
0.14100001 635158.25468857 16234.64575551
0.14200001 626945.72690825 16137.58377175
0.14300001 618796.89199252 16039.21619698
0.14400001 610709.00769939 15939.50585282
0.14500001 602687.77549086 19798.29435880
0.14600001 594731.04146398 14425.20209121
0.14700001 586840.90567406 16936.22933675
0.14800001 579014.68844515 18117.37045620
0.14900001 571256.72746964 15423.93236939
0.15000001 563565.91000730 16594.19900313
0.15100001 555943.05798394 15210.60278415
0.15200001 548389.81879667 15102.65632231
0.15300001 540905.36531052 14993.89743395
0.15400001 533488.73931200 12403.61377434
0.15500001 526143.71633144 14774.11625182
0.15600001 518867.23860984 13441.25645055
0.15700001 511664.16279354 16977.01772275
0.15800001 504529.04268044 14439.62188305
0.15900001 497467.37613472 15520.98286800
0.16000001 490474.74415179 16582.95188253
0.16100001 483556.57298051 15275.55286153
0.16200001 476709.82754911 15152.22258393
0.16300001 469934.62568985 11560.39233771
0.16400001 463232.27184059 13757.99912318
0.16500001 456601.71109762 17054.07471464
0.16600001 450044.14082537 11273.60625994
0.16700001 443558.73697714 14530.98490945
0.16800001 437146.19531775 11081.65657454
0.16900001 430807.37323389 13182.70624342
0.17000001 424539.70621491 11978.38837647
0.17100001 418345.59335943 12951.98018202
0.17200001 412224.05958906 12836.65782179
0.17300001 406174.66809482 11661.27527170
0.17400001 400198.96180932 11555.74556798
0.17500001 394294.22297346 16654.98876497
0.17600001 388460.67056685 10313.63129065
0.17700001 382702.05080989 10218.14523923
0.17800001 377013.28084101 12147.36848244
0.17900001 371396.08161667 12033.23361275
0.18000001 365851.16473433 13906.00342840
0.18100001 360378.05470934 14757.48203744
0.18200001 354973.80515307 13641.64397644
0.18300001 349640.52672157 11580.09479205
0.18400001 344377.89599229 9556.48706524
0.18500001 339185.42827640 13248.58345437
0.18600001 334062.58754786 11244.54722809
0.18700001 329008.42867406 9278.03812695
0.18800001 324021.64202602 10104.61538399
0.18900001 319106.66296598 13641.81048634
0.19000001 314255.44025568 12604.78630422
0.19100001 309474.70783441 9804.15920744
0.19200001 304759.50353900 10587.34565321
0.19300001 300112.64103214 8733.27826671
0.19400001 295530.07968799 9508.68076328
0.19500001 291014.10725103 12833.72273623
0.19600001 286562.20382266 8467.91352312
0.19700001 282176.54962278 10056.77270381
0.19800001 277853.74824029 8293.93477693
0.19900001 273595.06682287 9028.63763185
0.20000001 269397.87955485 8122.34645245
0.20100001 265264.71319792 11252.52966568
0.20200001 261192.09086340 9543.95945123
0.20300001 257181.32399014 8656.72377466
0.20400001 253231.81049221 8565.56639476
0.20500001 249341.24096388 10786.50259394
0.20600001 245509.84230121 12959.23763843
0.20700001 241737.87996153 9804.88887471
0.20800001 238023.35814242 8954.43915660
0.20900001 234368.95507692 9597.40916408
0.21000001 230768.37356022 8034.20130529
0.21100001 227225.50947144 8670.92585133
0.21200001 223737.34969896 12152.29472339
0.21300001 220303.89405207 7071.75533339
0.21400001 216925.20157785 8395.00569795
0.21500001 213601.00686217 7612.74024448
0.21600001 210328.34068589 8900.04415690
0.21700001 207108.46883823 8804.18142657
0.21800001 203940.29056151 8709.27052021
0.21900001 200822.51062235 8615.28611304
0.22000001 197754.20863366 8522.21802402
0.22100001 194737.15425909 10375.59606952
0.22200001 191768.18722068 10263.43386535
0.22300001 188847.04560593 8248.83934212
0.22400001 185973.07494768 10670.20567968
0.22500001 183147.66639021 8692.18865791
0.22600001 180366.73756429 6755.63647493
0.22700001 177632.12775754 7897.52477357
0.22800001 174941.84583812 8412.95376420
0.22900001 172294.87726307 5944.17354668
0.23000001 169692.13617123 7055.79935568
0.23100001 167133.28790057 8142.73417161
0.23200001 164614.54998071 5753.27879392
0.23300001 162138.44295433 7967.48346359
0.23400001 159702.28589356 7881.30818160
0.23500001 157305.84528040 6682.35262356
0.23600001 154949.18979965 6610.13274949
0.23700001 152631.65897895 7628.53067658
0.23800001 150351.80913618 8624.18017996
0.23900001 148109.58106844 5331.94517066
0.24000001 145903.51476086 6329.29476970
0.24100001 143734.80174975 5739.33090534
0.24200001 141601.69133188 5677.52008251
0.24300001 139502.81454517 6126.96390465
0.24400001 137438.45050075 6061.03595379
0.24500001 135407.28075116 5496.18178568
0.24600001 133409.59182427 5931.39073309
0.24700001 131444.87520355 7823.59934222
0.24800001 129511.62566853 4837.25944755
0.24900001 127608.96419052 5742.40366023
0.25000001 125737.94977406 7101.05104943
0.25100001 123896.49457009 6088.27403120
0.25200001 122086.39868212 7876.40438361
0.25300001 120303.72729220 5041.92944935
0.25400001 118550.85978453 4988.02766142
0.25500001 116824.31085924 4934.65912416
0.25600001 115126.51542594 6213.37833151
0.25700001 113454.66889098 4390.69589382
0.25800001 111809.52548709 5212.56032484
0.25900001 110191.02076380 5156.94001575
0.26000001 108597.17139392 5101.89535348
0.26100001 107027.67575157 4626.80664166
0.26200001 105484.29159921 4577.49105054
0.26300001 103963.02621575 4940.32323954
0.26400001 102466.59724563 5294.96166322
0.26500001 100992.86049532 4029.61532444
0.26600001 99541.45724654  5979.95332705
0.26700001 98112.39908830  4338.53049298
0.26800001 96705.44760105  4292.27149489
0.26900001 95319.05712437  4632.50639546
0.27000001 93954.31820112  4201.16753717
0.27100001 92609.51280414  4534.16196146
0.27200001 91285.67408206  4111.96338362
0.27300001 89981.22171432  4807.69690372
0.27400001 88694.93146212  3658.66609596
0.27500001 87429.56479068  4343.50098436
0.27600001 86180.47490431  5013.11846243
0.27700001 84951.75607801  3542.48839611
0.27800001 83739.78105502  4205.41200361
0.27900001 82545.96367592  3466.93063847
0.28000001 81368.96245273  4115.64231565
0.28100001 80209.14198336  4071.41623977
0.28200001 79066.35579630  5034.55044361
0.28300001 77939.70708499  3984.27801476
0.28400001 76828.54313555  3941.30444940
0.28500001 75733.66187959  4223.66652294
0.28600001 74654.16841583  4178.02073315
0.28700001 73590.48527789  4132.84184882
0.28800001 72540.26196209  4716.93075735
0.28900001 71506.41720718  4043.68808447
0.29000001 70486.38056464  3076.73065728
0.29100001 69481.08472783  3347.59882064
0.29200001 68489.36452245  4515.16156987
0.29300001 67511.70656507  5359.07952081
0.29400001 66546.97357995  3533.64446437
0.29500001 65597.02974527  4077.51156198
0.29600001 64658.74938331  4032.76638994
0.29700001 63734.15132426  5128.05005830
0.29800001 62822.48578627  4226.38293134
0.29900001 61923.71844455  3622.53770049
0.30000001 61036.49947979  3582.53750656
0.30100001 60162.62541468  3270.44047237
0.30200001 59299.85724752  2964.69650344
0.30300001 58449.89532022  5064.09917028
0.30400001 57611.44213651  3953.58540379
0.30500001 56785.26289382  2867.08805924
0.30600001 55969.30107015  3608.34101082
0.30700001 55165.66189972  2803.51907047
0.30800001 54373.08868210  3780.28916960
0.30900001 53591.78669021  3488.82547871
0.31000001 52821.52199581  3203.36135310
0.31100001 52061.68460267  3411.08173667
0.31200001 51313.67181419  3613.76550861
0.31300001 50575.55036688  3096.74109558
0.31400001 49849.30965221  2590.91799185
0.31500001 49132.40197475  2561.76356026
0.31600002 48427.04302066  2532.97660513
0.31700002 47731.20269385  3415.16771445
0.31800002 47045.45696072  2701.35026659
0.31900002 46370.61720589  2448.36870440
0.32000002 45706.08744213  2860.97267891
0.32100002 45051.11304743  3263.95329483
0.32200002 44407.08180298  3012.13250132
0.32300002 43771.35119459  2340.01654566
0.32400002 43146.56993947  2734.41399939
0.32500002 42531.42427637  2287.76542016
0.32600002 41926.18354660  2262.12734037
0.32700002 41330.61580120  2440.15967245
0.32800002 40745.65732859  2412.95794126
0.32900002 40168.20692805  2385.99160451
0.33000002 39601.84994836  2162.85513735
0.33100002 39043.88755119  2916.57853819
0.33200002 38496.95039934  2115.21503986
0.33300002 37958.50483870  2852.58177371
0.33400002 37430.19045157  3197.47417074
0.33500002 36910.67283970  1860.29799922
0.33600002 36400.10214081  2392.03282546
0.33700002 35898.85796387  2548.10105895
0.33800002 35407.68854266  2700.72157149
0.33900002 34924.77967098  2137.39661709
0.34000002 34451.24734429  1938.39952363
0.34100002 33986.80259568  2615.28458359
0.34200002 33532.31271505  2070.28508507
0.34300002 33086.13612577  2048.69364593
0.34400002 32649.58553327  2703.38581019
0.34500002 32221.51039191  1839.52611539
0.34600002 31803.05395178  1655.34903659
0.34700002 31392.42087405  2458.02667085
0.34800002 30991.55024498  2109.13005181
0.34900002 30598.99459539  1606.44729234
0.35000002 30215.60602962  2068.10725265
0.35100002 29841.76853320  1733.20999850
0.35200002 29474.98546477  2497.12088685
0.35300002 29118.24025095  2319.26794584
0.35400002 28769.54438951  1991.57180469
0.35500002 28430.02881526  1669.97997171
0.35600002 28098.34734905  1655.13322899
0.35700002 27775.29945351  1640.68701643
0.35800002 27460.97901527  1626.65116902
0.35900002 27155.72421235  1759.69101231
0.36000002 26858.48985761  1599.82602415
0.36100002 26569.05063104  2452.58917992
0.36200002 26289.35315117  1431.45534688
0.36300002 26016.66061073  1704.61168396
0.36400002 25752.70998590  1832.94922007
0.36500002 25496.09797228  2239.57735197
0.36600002 25248.61385640  1528.92988450
0.36700002 25008.53845813  1932.65994359
0.36800002 24777.35151662  1645.71176569
0.36900002 24553.85007808  1771.56036705
0.37000002 24337.70150592  1489.83246826
0.37100002 24129.26499929  2288.90218626
0.37200002 23929.28493605  1472.72791115
0.37300002 23736.79962984  1597.96142678
0.37400002 23551.74457152  1457.26426439
0.37500002 23374.50289560  1318.32202576
0.37600002 23204.92110584  1443.46218577
0.37700002 23042.44830471  1306.50688077
0.37800002 22887.48523285  2081.84575540
0.37900002 22740.53281037  1425.83147476
0.38000002 22600.04644308  1679.07053003
0.38100002 22466.06965084  1544.76702237
0.38200002 22340.43040503  1796.84090260
0.38300002 22220.72226663  1535.89639583
0.38400002 22108.51910605  1915.15055829
0.38500002 22002.57005710  1656.13352666
0.38600002 21904.23319357  1780.15711598
0.38700002 21811.70387004  1904.16183806
0.38800002 21725.77748332  1394.46909383
0.38900002 21646.35023073  1519.57385819
0.39000002 21573.85397715  1518.36791485
0.39100002 21506.79447851  1770.43940535
0.39200002 21446.44081562  2149.25516816
0.39300002 21391.67401600  1517.09759309
0.39400002 21344.10174509  1264.63808831
0.39500002 21301.16638768  1771.40508072
0.39600002 21264.30510464  1646.17625767
0.39700002 21232.44932612  1267.57728482
0.39800002 21207.30885363  1396.18324453
0.39900002 21186.65554376  1398.31933214
0.40000002 21171.75514310  1910.22169829
0.40100002 21161.75472805  1658.87003173
0.40200002 21157.38092221  1406.86011108
0.40300002 21157.61939821  1538.58215554
0.40400002 21162.85705167  1414.20798948
0.40500002 21172.39429345  1934.09831034
0.40600002 21187.70456730  1422.86036763
0.40700002 21206.89363305  1557.43434220
0.40800002 21230.36747946  1302.48310658
0.40900002 21257.83624221  1438.09268992
0.41000002 21290.26978600  2231.32683065
0.41100002 21326.39825009  1449.76862173
0.41200002 21365.75258446  1985.41265298
0.41300002 21410.35537778  1595.49975835
0.41400002 21457.76537379  1335.74595781
0.41500002 21508.81417353  1879.01009523
0.41600002 21562.58999514  1753.36208853
0.41700002 21620.99174332  1355.63624654
0.41800002 21682.96646391  1635.32940820
0.41900002 21746.20559655  1370.01101750
0.42000002 21813.14092706  1515.24990630
0.42100002 21883.57254473  2216.36833235
0.42200002 21956.45882579  1950.39232991
0.42300002 22031.54485650  1821.56821505
0.42400002 22109.13698415  1550.40330448
0.42500002 22189.58558389  1417.91458600
0.42600002 22270.98652854  1426.45675475
0.42700002 22355.87198600  1865.82116437
0.42800002 22441.92835488  1588.55197388
0.42900002 22530.81135881  1453.23740151
0.43000002 22621.14313011  1901.19406446
0.43100002 22711.72420927  1766.06375820
0.43200002 22805.21825086  1925.55869426
0.43300002 22899.27248676  1788.89125144
0.43400002 22995.21406687  1500.43778897
0.43500002 23091.65024551  1661.21339738
0.43600002 23189.93532101  2280.15049849
0.43700002 23288.39556732  1530.04766128
0.43800002 23387.26233025  1694.05642717
0.43900002 23487.88969813  1705.22087289
0.44000002 23588.38134505  1872.44579991
0.44100002 23689.70760786  1570.62768883
0.44200002 23791.28864028  1897.11744608
0.44300002 23893.19631342  2386.93042483
0.44400002 23995.09060300  2402.50856048
0.44500002 24096.48614105  1934.46599908
0.44600002 24197.81060902  1622.46327823
0.44700002 24299.93978012  2122.84283980
0.44800002 24400.74609193  2136.40742533
0.44900002 24501.66774281  1819.24891612
0.45000002 24602.47551400  1997.22905688
0.45100002 24701.70459885  1674.77565117
0.45200002 24800.78055742  2359.29836624
0.45300002 24898.76208263  2543.40866728
0.45400002 24996.00527052  2217.77067273
0.45500002 25092.68021619  1716.33940813
0.45600002 25187.76492123  2071.94564062
0.45700002 25282.10794850  1910.56898822
0.45800002 25374.80524258  2271.17205088
0.45900002 25466.21462112  1932.88578135
0.46000002 25556.70635161  2297.42022636
0.46100002 25644.90993185  1954.91157676
0.46200002 25732.21728708  2859.36412046
0.46300002 25817.73390570  1976.60580150
0.46400002 25900.98594622  1987.25324091
0.46500002 25983.66342081  2724.38723880
0.46600002 26063.33010719  2190.88363265
0.46700002 26141.23738570  2018.62644660
0.46800002 26217.84456631  2397.75308846
0.46900002 26291.70519343  2409.63489519
0.47000002 26363.62925681  2048.84954480
0.47100002 26433.59423643  2058.64841671
0.47200002 26501.41593260  2444.35821440
0.47300002 26566.79859710  2644.45925770
0.47400002 26629.41253175  2087.08030610
0.47500002 26690.09352586  2096.24004488
0.47600002 26748.92511941  2296.66281961
0.47700002 26804.21166468  2882.79310118
