# SAXS profile: number of points = 501, q_min = 0, q_max = 0.5, delta_q = 0.001
#    q    intensity    error
0.00000000 1664650.74656090 324.60689558
0.00100000 1664569.45964552 699.11918965
0.00200000 1664325.53977450 1048.52512326
0.00300000 1663919.20708794 1297.85702776
0.00400000 1663350.31920806 1871.26918021
0.00500000 1662619.40532036 1795.62902882
0.00600000 1661726.36918022 2442.73786214
0.00700000 1660671.75860960 2590.64805110
0.00800000 1659455.39727561 2912.34434518
0.00900000 1658078.50406973 2984.54143491
0.01000000 1656540.46827508 3006.62107974
0.01100000 1654842.54358864 3574.46004978
0.01200000 1652984.68487227 3223.32027682
0.01300000 1650968.02480017 3813.73630549
0.01400000 1648792.56337987 3709.78343206
0.01500000 1646459.76134300 4346.65396350
0.01600000 1643968.96707104 4192.12105343
0.01700000 1641322.50709837 5317.88516155
0.01800000 1638520.18859478 5136.76102239
0.01900000 1635562.79091926 6378.69517241
0.02000000 1632451.48223784 5142.22240166
0.02100000 1629188.18738859 6989.21764078
0.02200000 1625771.44548843 7852.47643847
0.02300000 1622204.66764939 5839.93706936
0.02400000 1618487.01434286 8497.05721274
0.02500000 1614621.43856306 8186.13106738
0.02600000 1610607.72819262 9132.14623654
0.02700000 1606447.90305969 7421.78965206
0.02800000 1602141.94071713 11150.90841877
0.02900000 1597692.40332009 7908.57775955
0.03000000 1593100.51415444 7407.91773133
0.03100000 1588366.58225731 8386.57594021
0.03200000 1583492.09838982 9405.94349766
0.03300000 1578480.94383724 9660.30382163
0.03400000 1573331.18870367 11563.98477054
0.03500000 1568045.89900109 8467.44824562
0.03600000 1562626.67069447 9539.83626546
0.03700000 1557074.86167021 8875.32712198
0.03800000 1551392.26465510 11798.33871872
0.03900000 1545580.82800536 11128.18247698
0.04000000 1539640.42308449 9468.78904074
0.04100000 1533575.13132574 11593.82853039
0.04200000 1527385.57721837 10836.80117311
0.04300000 1521072.76503825 12046.89685830
0.04400000 1514640.14058898 11246.20356617
0.04500000 1508089.18461465 17689.88695749
0.04600000 1501419.74494266 15877.51454086
0.04700000 1494636.15395357 17218.20929433
0.04800000 1487738.90618758 10934.88146926
0.04900000 1480731.38265655 13326.58306423
0.05000000 1473613.40983504 13527.77173222
0.05100000 1466389.71224105 14869.19237479
0.05200000 1459058.25810579 17399.27053874
0.05300000 1451625.37860408 14109.79933780
0.05400000 1444090.73295666 13105.12401272
0.05500000 1436456.92684048 12066.23874834
0.05600000 1428725.14117740 14658.72063252
0.05700000 1420900.56080312 18542.75318403
0.05800000 1412981.73842709 13755.37786586
0.05900000 1404971.33975339 13909.21691320
0.06000000 1396873.55121537 17893.95102705
0.06100000 1388689.36713839 15497.77406150
0.06200000 1380420.78284350 16958.47010993
0.06300000 1372071.51045999 13171.88711627
0.06400000 1363639.83943001 15954.58686747
0.06500000 1355131.82683235 14757.38628452
0.06600000 1346548.95025208 20299.22637482
0.06700000 1337891.92524407 15011.14810374
0.06800000 1329164.69446333 20635.28284746
0.06900000 1320369.38702140 19409.43089794
0.07000000 1311506.97051143 18157.81485703
0.07100000 1302580.33406138 14067.86826677
0.07200000 1293591.98691068 15581.31621227
0.07300000 1284544.49027615 22813.51121625
0.07400000 1275440.18932441 15783.57308257
0.07500000 1266280.81772448 20209.84279817
0.07600000 1257067.39681052 14519.12911383
0.07700000 1247805.10326575 14599.32039275
0.07800000 1238494.48553470 24949.47258113
0.07900000 1229137.02924431 17699.57405129
0.08000000 1219737.46876653 22229.71641109
0.08100000 1210296.26023094 14886.64469930
0.08200000 1200815.42401934 25415.25964199
0.08300000 1191298.30391835 18012.43120060
0.08400000 1181746.48443106 22600.90257560
0.08500000 1172162.29230536 18145.07313671
0.08600000 1162548.18238287 18205.50539089
0.08700000 1152907.22543114 18262.05130837
0.08800000 1143239.10375419 22893.36412784
0.08900000 1133549.24569332 19893.79019632
0.09000000 1123837.65305160 19942.50009021
0.09100000 1114106.57820713 15374.67150158
0.09200000 1104358.34990029 20027.53961647
0.09300000 1094597.90137140 20063.98047499
0.09400000 1084822.07834939 17004.58687730
0.09500000 1075036.24815209 21672.73178142
0.09600000 1065242.04469526 23248.90871835
0.09700000 1055443.53560995 17066.52277316
0.09800000 1045640.46661715 20186.09015715
0.09900000 1035836.18924994 18645.05228324
0.10000000 1026030.44856451 18653.23443211
0.10100000 1016226.71363425 20212.75028483
0.10200000 1006427.43230039 17104.23501647
0.10300000 996633.61060470 20211.73057384
0.10400000 986848.71691323 21760.01523164
0.10500000 977074.89353156 21749.68815332
0.10600001 967309.92571325 20182.92254968
0.10700001 957561.05050233 17063.73872293
0.10800001 947826.66222676 23245.44998508
0.10900001 938110.71898936 17026.71035103
0.11000001 928413.29971472 23187.12325178
0.11100001 918737.08468570 18521.74049914
0.11200001 909083.60141530 20031.65810022
0.11300001 899454.53875507 16918.74067053
0.11400001 889852.10151148 19954.93431596
0.11500001 880278.22322800 22975.26270811
0.11600001 870733.47785564 16809.51058159
0.11700001 861220.93556287 18292.33353283
0.11800001 851739.75070334 19764.62184595
0.11900001 842292.89189112 19709.65459861
0.12000001 832880.98795623 19651.82783652
0.12100001 823509.25032229 18084.26398899
0.12200001 814175.29533204 16523.68839722
0.12300001 804882.39269602 16467.89453044
0.12400001 795630.39885443 17901.68481771
0.12500001 786420.93466971 20808.69891188
0.12600001 777258.00366973 20729.47193472
0.12700001 768140.08589531 17697.94841307
0.12800001 759068.95262716 26438.37286602
0.12900001 750047.01522408 16088.50923484
0.13000001 741074.94667968 23299.39742182
0.13100001 732152.80630175 15946.28887292
0.13200001 723283.17329127 17315.39998485
0.13300001 714467.25714566 18669.03030933
0.13400001 705704.74362109 15719.57390527
0.13500001 696998.47116920 19906.27727514
0.13600001 688348.28932050 14145.55801251
0.13700001 679755.89729086 16885.13728489
0.13800001 671220.26130932 16793.93172989
0.13900001 662745.81731748 20876.49423000
0.14000001 654330.23405782 17990.81063388
0.14100001 645977.16054274 17887.10841904
0.14200001 637685.19185510 15046.18281148
0.14300001 629457.26688727 14955.90536668
0.14400001 621289.91515818 20269.58443815
0.14500001 613189.59069872 14771.73793675
0.14600001 605153.51175073 14677.99911994
0.14700001 597184.22093026 17234.73742912
0.14800001 589278.91649068 14487.42284542
0.14900001 581441.78978673 17007.17315367
0.15000001 573671.70077173 15592.39756267
0.15100001 565969.96938948 12904.11591096
0.15200001 558337.88109150 17939.39696598
0.15300001 550774.57868900 15267.47204172
0.15400001 543279.11596230 15157.48805065
0.15500001 535855.38760645 13792.91832792
0.15600001 528500.14176004 14935.41471101
0.15700001 521218.82682690 22235.19620187
0.15800001 514005.10525323 14710.82680668
0.15900001 506865.16896145 12164.76462926
0.16000001 499794.44106167 13277.03995351
0.16100001 492798.17071358 16764.99455906
0.16200001 485873.38564754 13067.56532386
0.16300001 479020.57470436 15319.07870223
0.16400001 472240.77462466 12856.75569612
0.16500001 465532.69103006 15069.29392008
0.16600001 458898.20677619 13794.48074697
0.16700001 452335.54786698 13678.62761333
0.16800001 445846.04109747 13562.63721056
0.16900001 439430.67114219 16808.22396484
0.17000001 433086.69885440 15552.14409023
0.17100001 426816.36659993 12113.04905610
0.17200001 420618.55578662 12006.55724191
0.17300001 414493.55696569 12981.93881723
0.17400001 408442.11464831 11793.76661744
0.17500001 402462.00833215 13812.49677829
0.17600001 396553.56366619 10528.49761259
0.17700001 390719.96458327 14605.11296593
0.17800001 384956.48704692 10336.08216540
0.17900001 379264.83761408 14336.21153896
0.18000001 373646.11036978 14202.28932600
0.18100001 368098.98102043 16078.56425047
0.18200001 362621.16386946 10949.34656026
0.18300001 357214.80310267 9859.12903137
0.18400001 351878.94889222 10741.10542235
0.18500001 346613.79574409 15472.84057299
0.18600001 341418.62263276 14365.18922593
0.18700001 336292.22508733 12328.47355416
0.18800001 331233.55351778 10329.51885448
0.18900001 326247.18543434 9298.04522419
0.19000001 321324.92462982 13808.93928842
0.19100001 316473.19543900 13671.64268895
0.19200001 311687.40959284 10828.02112089
0.19300001 306970.53145892 11612.69575382
0.19400001 302318.13674213 10611.36710108
0.19500001 297732.60383066 14005.34234602
0.19600001 293211.49026607 10397.27993617
0.19700001 288757.00593823 12006.51687431
0.19800001 284365.80183135 14430.14329588
0.19900001 280038.96762217 11761.63719599
0.20000001 275774.18167423 8314.59197044
0.20100001 271573.60846367 9874.41687043
0.20200001 267434.08370432 13029.38917389
0.20300001 263356.74193658 8864.58835257
0.20400001 259340.70356650 10367.14511508
0.20500001 255384.36672779 10258.79049636
0.20600001 251487.71968171 10151.30228478
0.20700001 247650.57726322 9272.03805102
0.20800001 243871.30924415 9174.43908744
0.20900001 240152.55755631 8321.28651268
0.21000001 236488.13308064 8233.33474241
0.21100001 232881.82566093 8886.77088733
0.21200001 229330.57928412 8059.82358996
0.21300001 225834.45138593 7249.28623220
0.21400001 222393.44806191 8606.62684689
0.21500001 219007.57805225 8515.01503724
0.21600001 215673.48956825 9828.24138429
0.21700001 212392.51932388 9028.80642334
0.21800001 209163.89397374 8932.34451448
0.21900001 205985.79841050 8836.79116963
0.22000001 202857.72944547 10087.10107362
0.22100001 199781.35725217 7317.99146217
0.22200001 196753.68223702 11846.53976765
0.22300001 193774.19917550 6510.81340016
0.22400001 190842.09385436 8373.19726380
0.22500001 187959.25994985 8920.54689905
0.22600001 185121.15948902 7564.05093441
0.22700001 182329.93953228 8729.95791764
0.22800001 179583.39063291 8636.16566394
0.22900001 176880.67086967 7933.09846367
0.23000001 174222.72906866 7847.86320204
0.23100001 171608.89076018 8360.78555324
0.23200001 169035.73360003 5907.79916872
0.23300001 166505.79597328 7597.65982959
0.23400001 164015.95093345 6937.87505261
0.23500001 161566.51764998 8007.23699344
0.23600001 159157.35414365 6789.65304890
0.23700001 156787.46979221 8955.70069812
0.23800001 154455.97649885 7198.42112520
0.23900001 152162.50315714 6025.63541003
0.24000001 149905.59627833 5419.08756179
0.24100001 147686.72203866 7505.43956902
0.24200001 145503.66016288 6364.33039657
0.24300001 143355.42673663 5771.48975342
0.24400001 141241.99126840 6747.83645204
0.24500001 139162.34415572 6675.61796494
0.24600001 137116.52681910 5080.16755897
0.24700001 135104.31075375 5528.46865757
0.24800001 133123.96392539 7458.27043175
0.24900001 131174.48309748 5410.94768375
0.25000001 129257.28300961 6326.49801620
0.25100001 127370.17940330 4814.59300922
0.25200001 125514.77528007 5715.94313667
0.25300001 123687.13819236 5654.97622569
0.25400001 121889.87382163 6060.97426253
0.25500001 120119.29921013 5073.83943869
0.25600001 118378.08022606 5019.82272949
0.25700001 116663.27102010 4514.86880209
0.25800001 114975.47158053 7146.87565159
0.25900001 113314.94368958 6186.99621819
0.26000001 111679.28486338 5683.91747206
0.26100001 110068.75505633 4758.27250623
0.26200001 108484.41151427 5135.65228409
0.26300001 106922.98826780 4234.15053575
0.26400001 105386.47671023 4189.11264745
0.26500001 103873.30841342 5387.90876235
0.26600001 102382.94613448 6150.65578008
0.26700001 100915.36639932 5679.51708971
0.26800001 99470.30210147  5619.07763161
0.26900001 98046.20159162  4367.95848760
0.27000001 96644.12685075  5107.15912511
0.27100001 95262.56062159  5052.72645448
0.27200001 93902.30198841  4614.35933808
0.27300001 92561.96530857  4184.72664964
0.27400001 91240.09118302  3763.65393941
0.27500001 89939.57867606  6329.94784679
0.27600001 88655.89985630  4052.01809470
0.27700001 87392.98468181  4737.57392381
0.27800001 86147.15584548  5047.36209986
0.27900001 84919.88053666  5706.61624215
0.28000001 83709.84197612  4939.71800880
0.28100001 82517.50074248  3839.53949127
0.28200001 81342.46049202  3798.28637245
0.28300001 80184.06892686  3757.42564775
0.28400001 79041.53518680  4054.83094700
0.28500001 77915.77788435  3676.84573239
0.28600001 76805.71256026  5290.37773155
0.28700001 75711.83300519  4579.05187689
0.28800001 74631.84420156  3558.81965920
0.28900001 73568.77089792  4160.31419120
0.29000001 72519.58222078  4748.21987066
0.29100001 71485.74090777  3757.29071996
0.29200001 70465.76362778  3406.66750384
0.29300001 69460.30645875  4288.47952376
0.29400001 68468.15990311  4241.60270678
0.29500001 67491.04873517  3296.26297626
0.29600001 66526.15549212  3260.11440422
0.29700001 65575.16384136  3224.33095871
0.29800001 64637.54068807  3188.89322080
0.29900001 63713.18659119  3153.80288556
0.30000001 62800.68109428  4253.17632845
0.30100001 61901.91556211  3364.98828926
0.30200001 61014.68517924  3327.74108721
0.30300001 60140.45374320  3016.64530257
0.30400001 59278.17684228  2711.97671892
0.30500001 58428.46980323  4022.80033640
0.30600001 57589.38680703  3447.58880442
0.30700001 56762.91579242  2884.69151714
0.30800001 55947.86868249  3111.82060345
0.30900001 55144.44644782  3077.06025747
0.31000001 54352.43107611  4310.41975057
0.31100001 53571.04427855  3008.54998912
0.31200001 52801.77906923  4710.18292488
0.31300001 52042.82031486  2941.46034346
0.31400001 51296.00905418  3150.85750534
0.31500001 50558.71988781  2396.48343615
0.31600002 49833.47925297  2606.54025574
0.31700002 49118.01271013  2811.51518065
0.31800002 48412.91107355  3706.49264729
0.31900002 47719.07578118  2519.56732055
0.32000002 47035.76243296  2717.72648206
0.32100002 46362.27117717  2687.15736467
0.32200002 45700.09953150  2214.16992714
0.32300002 45046.50309291  2408.18616938
0.32400002 44404.21848999  3247.05863083
0.32500002 43771.63716758  2782.56310650
0.32600002 43149.19591893  2328.11497605
0.32700002 42536.91251496  2302.09781432
0.32800002 41935.36799078  2897.31471168
0.32900002 41341.70391672  2660.33877302
0.33000002 40759.25741987  2023.69722673
0.33100002 40185.51343700  2001.23866393
0.33200002 39623.02664059  2177.08730186
0.33300002 39069.36720268  2348.85046746
0.33400002 38525.79712666  2129.51353702
0.33500002 37991.60095380  2106.25445662
0.33600002 37466.50348979  2083.32502521
0.33700002 36950.83775006  2435.42983144
0.33800002 36445.55814117  2409.23373502
0.33900002 35948.74964076  2383.40221405
0.34000002 35461.50834775  1995.24186168
0.34100002 34983.69880845  1794.66383387
0.34200002 34515.95512659  1953.43057290
0.34300002 34056.57973490  2635.97939632
0.34400002 33607.17921439  1913.08876738
0.34500002 33166.50234113  2065.60986363
0.34600002 32735.70507241  2726.22964755
0.34700002 32312.75937309  1855.39873108
0.34800002 31899.88467707  2337.94265871
0.34900002 31495.45207962  1653.51131249
0.35000002 31100.39758250  2128.66681335
0.35100002 30715.03636019  2108.28019562
0.35200002 30336.92996855  1606.34051792
0.35300002 29969.07317209  2227.90100513
0.35400002 29609.33175724  1892.03638890
0.35500002 29258.90637741  1874.91080947
0.35600002 28916.66371097  1548.48741507
0.35700002 28583.10642635  1688.40417658
0.35800002 28258.50304727  1826.06455341
0.35900002 27943.06387447  2263.38828104
0.36000002 27635.83265237  1646.12844991
0.36100002 27336.53249260  1632.81116312
0.36200002 27047.17008698  1914.53402529
0.36300002 26764.82247979  1899.76718960
0.36400002 26491.43264437  2030.56840837
0.36500002 26225.52303712  1727.73753952
0.36600002 25968.86522388  1858.46192778
0.36700002 25719.73840280  1845.64851521
0.36800002 25479.67174797  1410.29989805
0.36900002 25247.35767344  1541.35125898
0.37000002 25022.45209655  1531.74947765
0.37100002 24805.46718043  1660.97416108
0.37200002 24597.11275686  1376.20852394
0.37300002 24396.28445107  2052.94743381
0.37400002 24202.98449873  1769.84332531
0.37500002 24017.61748802  1354.59369049
0.37600002 23840.03506436  1617.78485610
0.37700002 23669.69173140  1476.27874322
0.37800002 23506.88303500  1603.63963662
0.37900002 23352.15193747  1597.28726819
0.38000002 23204.10996321  1591.33793666
0.38100002 23062.58495546  1321.48618055
0.38200002 22929.43026045  1580.75499704
0.38300002 22802.53414582  1444.76863192
0.38400002 22682.99101590  1571.93135187
0.38500002 22569.79977527  1829.50805645
0.38600002 22464.37698049  1564.86857460
0.38700002 22364.77050125  1561.95564580
0.38800002 22271.84355285  1949.34319931
0.38900002 22185.55192769  1557.42581911
0.39000002 22106.19445921  1815.13971304
0.39100002 22032.33885443  1554.60190322
0.39200002 21965.44034345  1424.34904655
0.39300002 21904.00511671  1941.79014559
0.39400002 21849.89503636  1941.90951336
0.39500002 21800.35153558  1683.42322533
0.39600002 21757.04314860  1425.19517897
0.39700002 21718.82077703  1944.92049273
0.39800002 21687.34388770  1687.38387113
0.39900002 21660.39520729  1949.43566102
0.40000002 21639.20158986  1431.75784103
0.40100002 21622.94346013  1564.63626291
0.40200002 21612.40875448  1698.41122244
0.40300002 21606.63382364  1309.36207175
0.40400002 21605.74549921  1706.31383165
0.40500002 21609.29857133  1579.20761442
0.40600002 21618.56614199  1319.81352550
0.40700002 21631.76959084  1721.02367019
0.40800002 21649.30294655  1461.00327857
0.40900002 21670.95221015  1865.86907370
0.41000002 21697.53629839  1605.18381141
0.41100002 21727.91014446  1477.06340161
0.41200002 21761.43919055  1617.74546608
0.41300002 21800.31554211  1759.93955711
0.41400002 21841.98718445  1495.63014332
0.41500002 21887.28572612  1638.92003283
0.41600002 21935.32956269  1920.87690082
0.41700002 21988.02892805  1792.24432285
0.41800002 22044.43527361  1385.49282260
0.41900002 22102.02124007  2088.64110616
0.42000002 22163.37540571  1679.54066783
0.42100002 22228.29238872  1407.05097488
0.42200002 22295.56060904  2121.98008152
0.42300002 22365.16559243  2133.63689862
0.42400002 22437.19195475  1859.48237136
0.42500002 22512.17646591  1582.38095877
0.42600002 22588.10807474  1446.76839074
0.42700002 22667.44285141  1600.77489002
0.42800002 22748.07441293  2195.75798676
0.42900002 22831.46966706  1767.15583597
0.43000002 22916.36724163  1629.69753362
0.43100002 23001.50950544  1639.54767524
0.43200002 23089.59343938  1799.60299794
0.43300002 23178.25027222  1659.79458065
0.43400002 23268.79584351  1670.11790081
0.43500002 23359.86136467  2138.82900790
0.43600002 23452.79960190  1691.06419543
0.43700002 23545.86658052  2165.74891071
0.43800002 23639.36073022  1556.65197785
0.43900002 23734.67547817  2193.08411811
0.44000002 23829.78701639  2049.24263159
0.44100002 23925.80005548  1586.28061885
0.44200002 24022.03209250  2554.02257311
0.44300002 24118.58957748  1927.55777038
0.44400002 24215.17515392  2262.90822537
0.44500002 24311.23185280  1626.42148803
0.44600002 24407.24895388  1636.50611991
0.44700002 24504.14587844  1811.34654918
0.44800002 24599.58447336  2650.85134848
0.44900002 24695.23157228  2333.69949418
0.45000002 24790.80357641  1677.09794143
0.45100002 24884.76997304  1687.18748413
0.45200002 24978.56997416  1867.02330120
0.45300002 25071.23709247  3243.96752114
0.45400002 25163.29589163  2060.87403120
0.45500002 25254.72240197  1900.16540358
0.45600002 25344.57110036  1737.37043127
0.45700002 25433.64837492  2096.75007140
0.45800002 25521.16046143  1757.13198105
0.45900002 25607.28484671  2120.28328580
0.46000002 25692.55943800  2309.63274014
0.46100002 25775.51749235  2322.11648094
0.46200002 25857.66334387  2154.97776521
0.46300002 25937.99436002  2166.34139162
0.46400002 26016.07163421  2721.93162374
0.46500002 26093.60599617  2188.73177469
0.46600002 26168.13071486  2016.38540780
0.46700002 26240.83069366  3500.00216381
0.46800002 26312.33573825  2221.28748830
0.46900002 26381.03384339  2603.80816375
0.47000002 26447.81061403  1868.53790844
0.47100002 26512.68134562  2252.51751389
0.47200002 26575.40974725  2828.28811640
0.47300002 26635.75054746  2651.32273516
0.47400002 26693.25996654  2472.46332159
0.47500002 26748.88288571  2673.81845999
0.47600002 26802.69089084  2109.50588655
0.47700002 26852.95289675  1925.35681395
