# SAXS profile: number of points = 501, q_min = 0, q_max = 0.5, delta_q = 0.001
#    q    intensity    error
0.00000000 1682732.95097188 277.65093691
0.00100000 1682651.15199394 555.27489335
0.00200000 1682405.70408440 908.49910897
0.00300000 1681996.82155923 1211.03775466
0.00400000 1681424.35740025 1261.06831597
0.00500000 1680688.85109920 3025.24005172
0.00600000 1679790.20761654 2292.91372675
0.00700000 1678728.95906916 2618.81728499
0.00800000 1677504.95752310 2717.55814592
0.00900000 1676119.40254473 2765.59713242
0.01000000 1674571.68919676 4420.86945037
0.01100000 1672863.07454881 3011.15366529
0.01200000 1670993.52263758 3258.43751201
0.01300000 1668964.16281089 4205.78987578
0.01400000 1666774.98817454 5250.34144550
0.01500000 1664427.46016356 4394.08869050
0.01600000 1661920.93907839 5933.05801774
0.01700000 1659257.75857665 4479.99614912
0.01800000 1656437.73675911 6609.18686707
0.01900000 1653461.65496310 6448.50074533
0.02000000 1650330.64859786 10397.08355649
0.02100000 1647046.68908494 6522.30518449
0.02200000 1643608.29996836 6237.49378176
0.02300000 1640018.83487438 8856.10211144
0.02400000 1636277.56851933 7976.85351026
0.02500000 1632387.48587410 7639.57378279
0.02600000 1628348.15935183 8573.25345111
0.02700000 1624161.87214292 7503.62819297
0.02800000 1619828.38607489 11274.00608410
0.02900000 1615350.51881832 7269.07766844
0.03000000 1610729.19872152 9736.85845383
0.03100000 1605964.88113752 10021.22131941
0.03200000 1601059.23592491 10302.81665771
0.03300000 1596015.93748234 8953.64982204
0.03400000 1590833.02712101 9187.06115552
0.03500000 1585513.71845524 11130.30681753
0.03600000 1580059.57128566 14907.86274403
0.03700000 1574471.90837208 13461.73543915
0.03800000 1568752.54492276 11012.64337502
0.03900000 1562903.44538836 12190.64743858
0.04000000 1556924.48075891 10532.59460040
0.04100000 1550819.84206532 12701.21509543
0.04200000 1544589.94697247 12951.38730622
0.04300000 1538236.02614854 13198.06571698
0.04400000 1531761.37751563 13441.20671194
0.04500000 1525167.47123521 11576.02164455
0.04600000 1518454.28330923 13916.63415347
0.04700000 1511626.14606129 15237.19226095
0.04800000 1504683.53579428 11059.42450266
0.04900000 1497629.75904111 13478.66845877
0.05000000 1490464.77491816 13682.46727089
0.05100000 1483193.16008028 13882.68862506
0.05200000 1475813.04319143 11732.71424013
0.05300000 1468330.75722537 15461.52359437
0.05400000 1460745.79617626 13256.26871849
0.05500000 1453061.01193499 18308.56960446
0.05600000 1445277.58242072 18535.68585950
0.05700000 1437400.35258609 16256.99874660
0.05800000 1429428.15318452 13915.48372100
0.05900000 1421363.79142995 16629.95713645
0.06000000 1413211.15245284 12930.88264906
0.06100000 1404971.60195933 16986.10746147
0.06200000 1396646.77223202 15837.97513743
0.06300000 1388240.58954697 19990.66542415
0.06400000 1379751.22741530 16143.09011572
0.06500000 1371185.04750801 19004.62564746
0.06600000 1362542.96325684 17801.62464786
0.06700000 1353826.51264719 15189.93418277
0.06800000 1345038.90489803 18097.49931253
0.06900000 1336182.67290767 14029.91872240
0.07000000 1327258.57567584 24030.01763790
0.07100000 1318269.82117839 15661.04620913
0.07200000 1309218.49396403 22937.50908880
0.07300000 1300107.68883889 18760.55482898
0.07400000 1290939.33754446 14523.06822799
0.07500000 1281715.37422415 18995.02273635
0.07600000 1272436.59024981 22044.96495956
0.07700000 1263108.55045439 19211.88195323
0.07800000 1253731.62096664 20799.40856725
0.07900000 1244307.19440567 17918.02443986
0.08000000 1234840.30122956 27005.95865477
0.08100000 1225331.13941331 16578.73109411
0.08200000 1215781.91142899 19677.43115985
0.08300000 1206195.60889465 19757.48500095
0.08400000 1196574.45273076 22884.48748264
0.08500000 1186920.13177496 16842.39746056
0.08600000 1177235.71398451 19971.80482545
0.08700000 1167523.93908481 20034.71173548
0.08800000 1157784.43302593 17002.06519747
0.08900000 1148022.70023456 17048.13789923
0.09000000 1138238.98482323 18644.35544723
0.09100000 1128435.41706711 18686.89138456
0.09200000 1118614.11987280 23407.00155816
0.09300000 1108780.08385220 18760.55990038
0.09400000 1098930.40674758 21923.66264497
0.09500000 1089070.48132563 17250.87723504
0.09600000 1079201.68669567 23553.57791933
0.09700000 1069328.47234323 20434.86806718
0.09800000 1059450.09498372 18879.40158028
0.09900000 1049570.24144548 22040.97610678
0.10000000 1039688.67423364 15751.28415538
0.10100000 1029808.63838278 15756.07290829
0.10200000 1019932.81381949 20485.35152912
0.10300000 1010062.10934301 25211.15143515
0.10400000 1000200.38802743 15753.15685254
0.10500000 990349.12644938 20470.51740683
0.10600001 980506.52370856 15737.13044601
0.10700001 970679.99089818 23587.52488880
0.10800001 960867.50290988 17281.20285312
0.10900001 951073.15567395 18831.24936865
0.11000001 941297.28761110 17239.86063407
0.11100001 931542.49998273 18779.89768368
0.11200001 921810.03354885 20312.08504548
0.11300001 912102.11692747 20276.03101391
0.11400001 902420.31368762 23350.12671609
0.11500001 892767.32694236 20194.39788635
0.11600001 883142.86334321 17049.07377971
0.11700001 873550.86509727 20100.40635252
0.11800001 863989.72377559 16964.43902533
0.11900001 854462.88820843 16918.36598341
0.12000001 844971.09799030 18403.47138112
0.12100001 835519.42655865 16819.00684894
0.12200001 826105.20245415 15241.64170333
0.12300001 816732.38545729 22786.83462785
0.12400001 807399.80626594 16652.62178886
0.12500001 798110.06404578 16592.70901337
0.12600001 788866.73471696 19536.28560588
0.12700001 779668.52398733 17963.56363923
0.12800001 770517.00163233 17891.40562111
0.12900001 761414.44747563 19301.85715324
0.13000001 752362.07535315 16262.30702528
0.13100001 743359.34826496 17662.21894733
0.13200001 734409.43977006 20512.05661972
0.13300001 725513.25140711 18957.66215299
0.13400001 716670.24797785 23220.11712921
0.13500001 707883.74472964 20217.16070268
0.13600001 699153.21190116 18677.87893662
0.13700001 690480.68616210 18580.83614077
0.13800001 681864.82167296 15638.57042252
0.13900001 673310.58417745 14139.52293452
0.14000001 664815.07913681 15466.92354555
0.14100001 656382.03488792 18175.21940324
0.14200001 648010.42689574 19459.75403750
0.14300001 639703.16247943 16581.10675356
0.14400001 631456.29788186 19227.84517748
0.14500001 623276.79111926 13649.76236940
0.14600001 615161.39546314 20346.46411477
0.14700001 607113.14354502 16173.49490705
0.14800001 599129.10579052 18746.75060463
0.14900001 591213.25562129 18623.21843073
0.15000001 583364.59803683 15855.85052277
0.15100001 575584.87981693 17060.33664277
0.15200001 567874.60690986 15639.26741227
0.15300001 560233.53426486 15529.67430265
0.15400001 552660.41786913 12849.35532183
0.15500001 545159.07478360 24237.77360873
0.15600001 537726.71195610 13929.81113064
0.15700001 530368.48150692 18854.60040745
0.15800001 523077.87184422 14970.48939877
0.15900001 515861.57001146 14856.81391758
0.16000001 508714.64008456 12285.45913795
0.16100001 501642.31395324 14627.89056538
0.16200001 494641.83360901 15722.19142345
0.16300001 487713.60223663 14397.30621769
0.16400001 480858.58099165 19042.00070623
0.16500001 474075.72335887 14165.38328273
0.16600001 467367.04627847 11707.54506202
0.16700001 460729.94622844 12771.43471245
0.16800001 454166.34288205 12664.42906923
0.16900001 447677.59537859 13698.93506542
0.17000001 441260.43069916 14713.82975645
0.17100001 434917.13464330 11220.86260366
0.17200001 428646.47082232 16685.06466468
0.17300001 422449.43741638 17641.48933962
0.17400001 416326.02427065 10928.55865322
0.17500001 410274.41286511 10831.24501117
0.17600001 404294.62807121 11807.42517047
0.17700001 398390.12494899 12764.42020624
0.17800001 392556.17005569 12648.16039659
0.17900001 386794.28530334 17753.85853400
0.18000001 381106.04909639 13451.13863822
0.18100001 375489.59498166 11275.95306994
0.18200001 369942.58879132 12185.90945042
0.18300001 364467.83817312 12071.17537053
0.18400001 359063.66654267 12953.22238245
0.18500001 353730.72768598 10855.99654554
0.18600001 348468.22435594 13684.34781695
0.18700001 343274.77893755 9680.34922339
0.18800001 338149.37001717 11503.84211150
0.18900001 333096.68522960 11391.90717309
0.19000001 328108.78047025 16920.57060833
0.19100001 323191.73557117 9307.92242425
0.19200001 318340.89309424 10137.56621960
0.19300001 313559.62400332 10037.04403862
0.19400001 308843.07894904 9033.66048613
0.19500001 304194.06243010 14309.28937290
0.19600001 299609.63268249 11509.50458339
0.19700001 295092.44542362 11393.51985624
0.19800001 290638.81526964 12145.79666411
0.19900001 286250.06489351 10305.00282318
0.20000001 281923.83449944 10200.00481425
0.20100001 277662.30838176 9254.48517575
0.20200001 273462.16441411 9159.61562997
0.20300001 269324.75831986 9065.47179352
0.20400001 265248.98452219 11418.96932341
0.20500001 261233.29294627 9686.53096030
0.20600001 257277.91215662 11982.71932509
0.20700001 253382.45854166 8696.08638821
0.20800001 249545.37837570 7823.24798188
0.20900001 245769.23156849 9290.07739244
0.21000001 242047.84130600 7660.81453948
0.21100001 238385.04789407 8338.70936953
0.21200001 234777.74785136 9751.49421800
0.21300001 231226.03053888 8164.59152431
0.21400001 227729.87988613 11016.43346031
0.21500001 224289.35947682 7993.67314968
0.21600001 220901.12692474 8628.39842562
0.21700001 217566.54784215 11383.08232129
0.21800001 214284.71074471 9854.95431310
0.21900001 211053.70432005 6964.77257187
0.22000001 207873.29071139 8958.29988678
0.22100001 204744.97551924 8863.41040932
0.22200001 201666.03370020 8769.44789011
0.22300001 198635.52344616 7341.56929372
0.22400001 195652.87440473 7263.61330575
0.22500001 192719.94898181 6533.20657942
0.22600001 189832.36444783 8402.93000964
0.22700001 186992.03631661 8313.66632778
0.22800001 184196.67631458 9490.73419593
0.22900001 181445.84096665 8763.83453314
0.23000001 178740.17816656 8051.35170628
0.23100001 176079.06145609 7965.81711700
0.23200001 173459.23264492 7881.12060795
0.23300001 170882.92679447 9596.78562265
0.23400001 168346.91322849 6527.65186916
0.23500001 165852.19731649 6458.28486896
0.23600001 163397.99142170 8132.31841769
0.23700001 160983.39498329 6896.52896728
0.23800001 158607.78642164 7391.91623581
0.23900001 156270.65482891 6750.89260792
0.24000001 153970.53517282 7235.84564270
0.24100001 151708.74731197 8260.54168187
0.24200001 149483.36580540 8173.00341201
0.24300001 147293.25317160 5930.02665320
0.24400001 145138.17825049 5333.82830301
0.24500001 143017.47589661 6860.54864329
0.24600001 140931.00595794 6787.94222307
0.24700001 138878.64047882 9299.31420637
0.24800001 136858.47934766 5622.83089000
0.24900001 134869.46629991 5057.60522551
0.25000001 132913.40367445 6505.44685061
0.25100001 130987.64411953 5446.46650016
0.25200001 129094.24763093 5878.95231524
0.25300001 127228.84883327 4847.41936988
0.25400001 125394.26286442 6714.86309408
0.25500001 123586.65228363 4745.72767222
0.25600001 121809.12573688 6104.46462512
0.25700001 120058.17624635 6040.12713273
0.25800001 118334.61536279 5057.03002680
0.25900001 116638.87132446 5003.80781657
0.26000001 114968.19845498 6301.40725547
0.26100001 113323.14108002 4453.59965517
0.26200001 111704.48465164 4847.41634082
0.26300001 110109.49385974 5232.40339580
0.26400001 108539.44166033 4745.88731117
0.26500001 106993.35731453 5549.74570651
0.26600001 105470.26021527 5491.30935795
0.26700001 103970.49396820 5433.49827189
0.26800001 102493.56936419 4962.73886346
0.26900001 101037.79516272 5319.64016705
0.27000001 99604.50034264  6073.38469580
0.27100001 98192.07220154  4406.86040895
0.27200001 96801.36752354  5946.02428152
0.27300001 95430.80316962  4706.64743506
0.27400001 94079.14450802  4268.84138407
0.27500001 92749.11878972  4607.77643954
0.27600001 91436.43516405  5318.85768521
0.27700001 90144.71729738  4886.74535596
0.27800001 88870.39617017  4091.14888132
0.27900001 87614.96491250  4415.79444058
0.28000001 86377.06490875  5461.19018733
0.28100001 85157.16069135  4682.79248805
0.28200001 83954.98810049  5345.83412031
0.28300001 82769.80553129  5288.99082378
0.28400001 81600.59761038  4534.95342684
0.28500001 80448.52766378  5176.86300019
0.28600001 79312.47517837  4780.16310526
0.28700001 78192.97569376  4391.31772281
0.28800001 77087.52510852  4010.09324596
0.28900001 75999.48708376  4297.77119802
0.29000001 74925.42160519  3597.54428866
0.29100001 73867.01071469  3882.45026694
0.29200001 72822.80203555  3840.67476115
0.29300001 71793.37081087  3799.30536315
0.29400001 70777.49083780  4384.66576496
0.29500001 69776.89328090  4337.33189166
0.29600001 68788.86041643  3983.90703961
0.29700001 67814.76981705  3031.32035432
0.29800001 66854.51225085  5397.16502951
0.29900001 65907.88385827  3262.44040543
0.30000001 64973.06818842  2933.53416758
0.30100001 64052.35894201  3481.88639692
0.30200001 63143.36874284  3443.83949427
0.30300001 62247.71835850  3973.89452814
0.30400001 61364.23549582  3088.15529753
0.30500001 60493.51645782  2776.65253687
0.30600001 59633.59314597  3569.96522270
0.30700001 58786.51444158  3530.71822452
0.30800001 57951.17276828  2686.03698498
0.30900001 57127.60284659  3187.72038976
0.31000001 56315.70451175  3152.55328782
0.31100001 55514.56706828  3117.69823416
0.31200001 54725.79726625  3340.18919429
0.31300001 53947.51094658  2795.02067448
0.31400001 53181.59806755  3517.96287873
0.31500001 52425.18175453  2484.95373282
0.31600002 51681.33422863  3440.42658250
0.31700002 50947.29791472  3645.27933839
0.31800002 50223.80419220  3364.49280214
0.31900002 49511.76157707  2851.87760187
0.32000002 48810.53153997  3290.31808690
0.32100002 48119.07112952  3718.64199297
0.32200002 47439.28586833  3217.80691281
0.32300002 46768.22979442  2500.22968320
0.32400002 46108.70433320  2697.35933122
0.32500002 45458.81465241  2222.93614176
0.32600002 44819.30470898  2638.06440009
0.32700002 44190.18992875  2608.98893694
0.32800002 43571.98842543  2365.30550368
0.32900002 42961.74400299  2551.92771462
0.33000002 42362.82593926  2523.97728898
0.33100002 41772.76932754  2288.31241212
0.33200002 41194.12265273  2057.64652394
0.33300002 40624.40502024  3052.92418184
0.33400002 40064.95786642  2818.56991938
0.33500002 39515.05294635  2788.18226793
0.33600002 38974.29353633  2364.18075787
0.33700002 38443.19176146  2143.97690607
0.33800002 37922.43963771  2121.19176159
0.33900002 37410.37993538  2289.51536047
0.34000002 36907.96249083  2831.76355622
0.34100002 36415.24243348  1868.10202531
0.34200002 35932.53219510  2033.60175589
0.34300002 35458.25268041  2195.57510995
0.34400002 34994.22718233  2354.23674519
0.34500002 34538.93110760  1971.82767032
0.34600002 34093.72975608  2129.49446142
0.34700002 33656.32556725  2283.91836116
0.34800002 33229.24363903  1913.50608558
0.34900002 32810.53351104  2411.57432728
0.35000002 32401.41155845  1705.93439935
0.35100002 32002.03975725  2365.59089090
0.35200002 31610.06219022  2175.87873392
0.35300002 31228.37952214  1824.04973428
0.35400002 30854.75207692  2135.92031369
0.35500002 30490.65914898  1791.02140324
0.35600002 30134.89420798  2259.21312578
0.35700002 29787.84991506  2079.48990106
0.35800002 29449.87005290  1744.46313521
0.35900002 29121.05414875  2044.29809807
0.36000002 28800.57831463  2027.41680649
0.36100002 28488.07612481  2320.35391027
0.36200002 28185.68288622  1841.65260702
0.36300002 27890.19079856  2131.92628563
0.36400002 27603.89222223  1813.57580490
0.36500002 27325.01049867  2100.20040641
0.36600002 27055.55320787  1638.34910211
0.36700002 26793.63022922  2070.61184220
0.36800002 26540.83847301  1615.93902697
0.36900002 26295.87799259  1459.42129772
0.37000002 26058.33887546  1450.14662711
0.37100002 25828.87479686  1441.25128194
0.37200002 25607.94146181  1719.31727119
0.37300002 25394.80054840  1709.57805390
0.37400002 25189.12171817  1416.88816377
0.37500002 24991.37521066  1550.46499152
0.37600002 24801.57135986  1963.54049758
0.37700002 24619.08362372  1535.49231835
0.37800002 24444.04101159  1389.64379734
0.37900002 24277.30606227  1798.94846443
0.38000002 24117.16342427  1516.12555049
0.38100002 23963.61750896  1647.73841797
0.38200002 23818.52875151  1368.37454160
0.38300002 23679.82968624  1773.14573091
0.38400002 23548.41960408  1767.89768553
0.38500002 23423.41004069  1627.45860673
0.38600002 23306.25941642  1623.51410786
0.38700002 23194.92239854  1484.93900230
0.38800002 23090.37088517  1482.05552548
0.38900002 22992.38288820  1479.55990895
0.39000002 22901.45205210  2283.38938503
0.39100002 22815.99062257  1744.05440582
0.39200002 22737.75188207  2010.58580543
0.39300002 22664.80927907  1607.38835022
0.39400002 22599.32142180  1472.91084345
0.39500002 22538.47480080  1472.66401326
0.39600002 22483.76709018  1606.69007239
0.39700002 22434.30656189  1339.32816520
0.39800002 22391.63895780  1876.19551717
0.39900002 22353.43715147  1475.32692190
0.40000002 22321.14639464  1611.14042310
0.40100002 22293.78197027  1882.04116310
0.40200002 22272.16321884  1615.62279644
0.40300002 22255.31808774  1348.67234002
0.40400002 22243.59580479  1621.55821100
0.40500002 22236.13622235  1625.01691212
0.40600002 22234.52357266  1493.15950127
0.40700002 22236.86332282  1633.07531980
0.40800002 22243.63351432  1774.04107499
0.40900002 22254.60335303  1368.65817106
0.41000002 22270.41908934  1647.56568229
0.41100002 22290.13333705  1653.03636660
0.41200002 22312.97457451  1796.97549250
0.41300002 22341.30429214  1387.39506228
0.41400002 22372.39332161  1531.94970529
0.41500002 22407.18939263  1817.67128966
0.41600002 22444.74572505  1544.31080279
0.41700002 22487.01419942  1832.91661425
0.41800002 22533.11755740  1699.44780671
0.41900002 22580.34056752  2560.61074169
0.42000002 22631.38156475  1715.00617624
0.42100002 22686.15006523  1723.24004061
0.42200002 22743.15147184  2020.27424097
0.42300002 22802.58780885  2175.36698005
0.42400002 22864.48989728  1603.37243002
0.42500002 22929.50502133  1611.71498432
0.42600002 22995.47032858  2062.00392207
0.42700002 23064.84335109  2073.06821863
0.42800002 23135.46198998  1637.64375456
0.42900002 23209.04167517  1646.68158488
0.43000002 23284.24193527  1505.32631245
0.43100002 23359.62044043  1665.07382390
0.43200002 23437.90790700  2131.20906698
0.43300002 23516.97451661  2449.52818173
0.43400002 23597.91943049  2155.67004213
0.43500002 23679.45023357  1703.49973053
0.43600002 23762.92707137  2024.95792635
0.43700002 23846.46985080  1723.38445779
0.43800002 23930.68956891  1891.00317935
0.43900002 24016.61275129  2060.62547171
0.44000002 24102.42669343  1913.25072159
0.44100002 24189.24191262  2084.87085925
0.44200002 24276.35322219  2097.11287248
0.44300002 24363.77855737  2433.94159323
0.44400002 24451.35062922  1632.12773185
0.44500002 24538.39548347  2298.26622990
0.44600002 24625.49568021  1981.36747633
0.44700002 24713.51101330  1826.82282068
0.44800002 24800.10172852  2004.34431669
0.44900002 24887.11657645  2015.85653823
0.45000002 24973.90707418  2365.27885109
0.45100002 25059.31978800  2038.82635458
0.45200002 25144.64502713  2050.29445268
0.45300002 25228.74851637  2233.50121201
0.45400002 25312.39443593  2073.08520255
0.45500002 25395.52502777  2605.58099134
0.45600002 25477.09234896  1921.10023962
0.45700002 25557.99572502  1755.83438952
0.45800002 25637.29985474  2471.17945012
0.45900002 25715.35799945  2306.66772187
0.46000002 25792.62792744  2318.62839743
0.46100002 25867.58972671  2151.14886363
0.46200002 25941.79026667  2882.65187106
0.46300002 26014.46039548  1991.66718227
0.46400002 26084.77705744  2183.29594319
0.46500002 26154.60518755  1828.20698926
0.46600002 26221.59791540  1836.82302103
0.46700002 26286.74845266  2398.92877749
0.46800002 26350.87057417  1853.78383276
0.46900002 26412.17009861  2234.46969625
0.47000002 26471.65994174  2805.33429529
0.47100002 26529.33750215  2253.93262101
0.47200002 26584.93244562  1886.20104642
0.47300002 26638.21854972  2083.37517152
0.47400002 26688.76217657  2281.88927425
0.47500002 26737.43427191  2290.86347700
0.47600002 26784.43949044  2299.71208365
0.47700002 26827.94064237  2308.27612228
