# SAXS profile: number of points = 501, q_min = 0, q_max = 0.5, delta_q = 0.001
#    q    intensity    error
0.00000000 1682732.95097188 353.37391970
0.00100000 1682651.15729059 959.11118243
0.00200000 1682405.73006535 908.49912300
0.00300000 1681996.87403497 1412.87742452
0.00400000 1681424.45704168 1513.28206884
0.00500000 1680689.00285756 1815.14419493
0.00600000 1679790.43672351 2292.91403948
0.00700000 1678729.25576953 2417.37022877
0.00800000 1677505.34370167 2491.09554057
0.00900000 1676119.89277679 2514.17994664
0.01000000 1674572.30068883 3591.95774008
0.01100000 1672863.81959796 3914.50150829
0.01200000 1670994.39653019 4235.97098093
0.01300000 1668965.19934815 3855.30978053
0.01400000 1666776.16472636 4875.32049795
0.01500000 1664428.82971708 4394.09230612
0.01600000 1661922.49054722 5509.27330245
0.01700000 1659259.48501314 5376.00097260
0.01800000 1656439.72839370 6137.10946985
0.01900000 1653463.82858147 6944.54839340
0.02000000 1650333.06634039 6238.25927296
0.02100000 1647049.34171395 7065.84199631
0.02200000 1643611.19647947 7371.59655112
0.02300000 1640022.02550599 7084.89547268
0.02400000 1636281.06090678 7363.26510983
0.02500000 1632391.21455250 8276.22383576
0.02600000 1628352.19966096 6594.82671026
0.02700000 1624166.22355689 7503.64829651
0.02800000 1619833.09555706 9864.78400434
0.02900000 1615355.57312750 7996.01045411
0.03000000 1610734.59611709 9736.89108109
0.03100000 1605970.59816826 11562.98883886
0.03200000 1601065.32529427 8717.80109775
0.03300000 1596022.46353637 8953.68643321
0.03400000 1590839.88075302 12527.86463897
0.03500000 1585521.07256716 8561.81418723
0.03600000 1580067.22227123 10523.24818664
0.03700000 1574480.04782036 14359.25870020
0.03800000 1568761.15487234 12848.15445301
0.03900000 1562912.47902791 13128.46543181
0.04000000 1556933.93409707 11490.17296608
0.04100000 1550829.76599659 9770.22797879
0.04200000 1544600.32422887 14944.00883021
0.04300000 1538246.95745492 11167.67342950
0.04400000 1531772.76323185 13441.30662160
0.04500000 1525179.33605905 12628.48548935
0.04600000 1518466.67105829 14987.26674006
0.04700000 1511639.06779009 10883.80179427
0.04800000 1504696.99614088 16589.28515432
0.04900000 1497643.74833824 12355.56149891
0.05000000 1490479.31703475 12542.38403690
0.05100000 1483208.24446070 11569.02484573
0.05200000 1475828.74734513 12906.12299697
0.05300000 1468347.02816816 15461.69492740
0.05400000 1460762.71393701 13256.42224718
0.05500000 1453078.44506311 17088.20331109
0.05600000 1445295.55795233 21007.37191513
0.05700000 1437418.95784449 13756.10006869
0.05800000 1429447.37727348 12650.60987956
0.05900000 1421383.65921607 16630.18958955
0.06000000 1413231.67222982 15517.28448603
0.06100000 1404992.71532027 15679.71943571
0.06200000 1396668.62909475 17158.07491046
0.06300000 1388262.98507626 15992.79033583
0.06400000 1379774.46550396 17488.64216815
0.06500000 1371208.89836213 21719.94996607
0.06600000 1362567.38947711 19171.32406694
0.06700000 1353851.66225480 22094.86016201
0.06800000 1345064.72352372 18097.84670216
0.06900000 1336209.22845887 18239.25682241
0.07000000 1327285.76421133 15549.15345588
0.07100000 1318297.75219679 15661.37802964
0.07200000 1309247.21712713 15769.88346906
0.07300000 1300137.03216147 18760.97825315
0.07400000 1290969.53917051 15975.74879592
0.07500000 1281746.18610211 21917.86080969
0.07600000 1272468.22497719 14697.00868749
0.07700000 1263140.93944473 17734.49962135
0.07800000 1253764.70426512 19314.24617497
0.07900000 1244340.91621815 17918.51003399
0.08000000 1234874.80710868 16504.10257123
0.08100000 1225366.37688118 19593.60928563
0.08200000 1215817.91025028 16650.62706221
0.08300000 1206232.44734299 18238.23545978
0.08400000 1196612.01322565 19833.84505019
0.08500000 1186958.50421858 15311.76542323
0.08600000 1177274.84486440 19972.46868086
0.08700000 1167563.77560722 16953.02681789
0.08800000 1157825.17846727 17002.66354430
0.08900000 1148064.19990170 15498.86742665
0.09000000 1138281.25789849 15537.53990020
0.09100000 1128478.44377575 17130.30358132
0.09200000 1118657.80257474 17165.80478707
0.09300000 1108824.68625116 21888.20033517
0.09400000 1098975.82067605 21924.56865289
0.09500000 1089116.71311847 15683.28140606
0.09600000 1079248.58308548 17273.37438427
0.09700000 1069376.15996851 20435.77937774
0.09800000 1059498.57998068 18880.26558296
0.09900000 1049619.53433656 26765.29938415
0.10000000 1039738.77681064 18902.45185135
0.10100000 1029859.57819870 18908.22274502
0.10200000 1019984.50427491 23638.14199842
0.10300000 1010114.60037833 17333.56735788
0.10400000 1000253.66970281 20480.19485066
0.10500000 990403.27814286 15747.41286338
0.10600001 980561.42404345 17311.81275607
0.10700001 970735.50972980 15725.91599765
0.10800001 960923.85514741 25137.76923368
0.10900001 951130.27895240 17263.01537548
0.11000001 941355.16986080 15673.56431593
0.11100001 931601.22745598 23476.35203700
0.11200001 921869.54054013 17188.25839254
0.11300001 912162.32192498 21837.16701500
0.11400001 902481.30017899 15567.80316109
0.11500001 892828.94553373 21749.31413733
0.11600001 883205.33881089 20150.33075388
0.11700001 873614.10763692 17009.26747674
0.11800001 864053.65475252 16965.69431012
0.11900001 854527.68912189 16919.64904156
0.12000001 845036.54467857 18404.89681006
0.12100001 835585.53568799 16820.33762577
0.12200001 826172.10714012 22864.31414227
0.12300001 816799.96467203 18230.97607042
0.12400001 807468.07555465 18168.03255601
0.12500001 798178.97099333 24136.93322018
0.12600001 788936.49046186 19538.01310699
0.12700001 779738.82105304 20959.38049765
0.12800001 770587.96985903 19384.14129536
0.12900001 761486.09992535 14848.97964841
0.13000001 752434.36280457 16263.86951862
0.13100001 743432.37840477 14719.96178628
0.13200001 734483.18947709 16118.23435289
0.13300001 725587.60236924 16042.74264469
0.13400001 716745.25117839 26125.36563715
0.13500001 707959.23473046 15886.60597638
0.13600001 699229.40608642 14369.16497259
0.13700001 690557.52588855 21441.81218989
0.13800001 681942.21903050 21327.74390590
0.13900001 673388.55975374 19797.62459038
0.14000001 664893.56644073 15468.74955276
0.14100001 656461.07698115 20973.93239874
0.14200001 648090.07314204 16681.83926948
0.14300001 639783.26180895 16583.18292828
0.14400001 631536.88368840 16483.11344177
0.14500001 623357.90448689 20477.30812835
0.14600001 615242.96686949 16279.32967133
0.14700001 607195.19735125 14827.70741884
0.14800001 599211.62587688 16070.85656422
0.14900001 591296.31443244 19956.25155365
0.15000001 583448.17112136 14536.61186937
0.15100001 575668.84562095 15750.30035937
0.15200001 567958.83979708 16945.05278493
0.15300001 560318.31811320 15532.02451104
0.15400001 552745.46996540 15421.59933980
0.15500001 545244.57459712 21689.83020108
0.15600001 537812.62967167 15198.58563182
0.15700001 530454.62288404 18857.66273355
0.15800001 523164.39240994 19963.95415664
0.15900001 515948.49389600 13621.04088178
0.16000001 508801.78863789 15973.83290829
0.16100001 501729.80809724 12192.03491228
0.16200001 494729.66929720 14515.36918239
0.16300001 487801.62288197 11999.92048939
0.16400001 480946.84240784 15474.46538502
0.16500001 474164.20727173 11806.68931848
0.16600001 467455.73037672 17564.64989819
0.16700001 460818.84101986 13935.16241039
0.16800001 454255.47231429 13818.45212026
0.16900001 447766.84898523 13701.66622591
0.17000001 441349.79595103 12452.68508077
0.17100001 435006.61474338 13467.80542842
0.17200001 428736.04996909 11125.70102209
0.17300001 422539.09076614 17645.23326368
0.17400001 416415.81728630 13117.09886399
0.17500001 410364.19488678 11916.97678232
0.17600001 404384.38692241 12883.68717583
0.17700001 398479.94748026 13831.23963030
0.17800001 392646.07608907 12651.05716913
0.17900001 386884.18871945 11490.46094770
0.18000001 381195.71603554 13454.30343299
0.18100001 375579.37095304 13329.31250475
0.18200001 370032.27201045 14220.34088510
0.18300001 364557.37428227 12074.14080660
0.18400001 359153.15078135 13953.10056701
0.18500001 353819.99548610 10858.73617446
0.18600001 348557.42502605 13687.85072743
0.18700001 343363.76847313 12587.71634693
0.18800001 338238.11758084 10547.95619511
0.18900001 333185.19183329 13294.08978226
0.19000001 328197.01077847 10343.12928338
0.19100001 323279.83371118 13034.64351112
0.19200001 318428.76991485 11984.06732201
0.19300001 313647.21001187 11865.27451541
0.19400001 308930.25599927 11747.07353947
0.19500001 304280.91480561 14313.37490884
0.19600001 299696.19767886 8856.02305991
0.19700001 295178.59223227 9643.48506396
0.19800001 290724.57793317 9545.94196757
0.19900001 286335.42786001 8590.06324177
0.20000001 282008.77094943 10203.07781516
0.20100001 277746.72298266 10940.44393536
0.20200001 273546.13915399 10828.32443019
0.20300001 269408.25953808 9892.67175781
0.20400001 265331.99854378 10606.64714312
0.20500001 261315.80327904 8882.12457328
0.20600001 257359.81231937 8790.12480526
0.20700001 253463.76533870 8698.87683761
0.20800001 249626.14043717 9390.93584716
0.20900001 245849.41322456 10067.53394745
0.21000001 242127.35814126 10728.66374641
0.21100001 238463.92083071 9858.09895317
0.21200001 234856.00438787 7503.64969492
0.21300001 231303.56377446 8909.81369781
0.21400001 227806.76919809 11754.82984635
0.21500001 224365.38908855 7996.38284517
0.21600001 220976.48231093 9350.62029107
0.21700001 217641.19738738 9963.61448747
0.21800001 214358.44581066 7745.84280560
0.21900001 211126.73681721 7663.90090883
0.22000001 207945.52611895 8961.41287181
0.22100001 204816.34487959 7502.42306768
0.22200001 201736.52955936 9447.32212598
0.22300001 198705.14639380 7344.14255799
0.22400001 195721.61230367 9908.40709141
0.22500001 192787.76484102 7189.05609087
0.22600001 189899.25794030 8405.89105023
0.22700001 187057.99188820 8956.33707514
0.22800001 184261.64010792 6962.32640073
0.22900001 181509.89656367 7514.51007310
0.23000001 178803.18359892 7434.63672564
0.23100001 176141.00995999 6742.67818015
0.23200001 173520.17445089 9703.24861420
0.23300001 170942.79599581 7200.11090787
0.23400001 168405.73169730 7717.19302002
0.23500001 165909.95555266 6460.53397478
0.23600001 163454.64691240 6972.97556708
0.23700001 161038.92314348 7473.81677658
0.23800001 158662.18305389 7963.25534413
0.23900001 156323.88143602 6190.42599767
0.24000001 154022.60766554 5567.91753047
0.24100001 151759.65246541 6610.65077409
0.24200001 149533.10289867 5995.53004432
0.24300001 147341.77736576 5931.98023734
0.24400001 145185.49476434 6936.23734048
0.24500001 143063.61238821 6862.76181090
0.24600001 140975.85772683 6790.10250862
0.24700001 138922.24748418 9302.23413159
0.24800001 136900.83565130 5113.24645347
0.24900001 134910.46740959 7082.79987407
0.25000001 132953.17492081 6006.82472709
0.25100001 131026.09148268 5448.06514159
0.25200001 129131.45184709 8330.91601005
0.25300001 127264.65030557 6303.41842785
0.25400001 125428.77918255 6236.94633993
0.25500001 123619.82959811 4747.00168116
0.25600001 121840.94356232 6575.75603517
0.25700001 120088.66259067 5576.91775457
0.25800001 118363.68955542 6437.80137952
0.25900001 116666.60276516 6824.99658469
0.26000001 114994.50314121 4952.23851209
0.26100001 113348.06321151 4900.03700448
0.26200001 111728.04673287 5289.20598260
0.26300001 110131.57514381 5669.57375667
0.26400001 108560.16413020 6041.37341971
0.26500001 107012.68791054 5550.74838458
0.26600001 105488.08997952 5492.23766467
0.26700001 103986.91694302 5434.35653660
0.26800001 102508.53232622 4549.84142260
0.26900001 101051.28623683 4092.57728626
0.27000001 99616.65671733  5669.18420206
0.27100001 98202.74082220  5609.34082121
0.27200001 96810.56711417  5550.15007531
0.27300001 95438.59908239  7060.54789425
0.27400001 94085.44891728  4269.12744666
0.27500001 92753.92951782  8064.02701391
0.27600001 91439.80992752  5319.05399521
0.27700001 90146.60398094  3759.11356391
0.27800001 88870.85079741  3719.24528189
0.27900001 87613.88962416  4047.76189221
0.28000001 86374.56486815  5096.96331410
0.28100001 85153.16698590  3601.97913398
0.28200001 83949.59870252  3920.02669695
0.28300001 82762.90134029  5993.68959875
0.28400001 81592.27673353  4185.68399454
0.28500001 80438.72579365  4831.15009983
0.28600001 79301.21111371  4779.48422005
0.28700001 78180.35592833  3377.39153596
0.28800001 77073.39570829  4343.47142073
0.28900001 75983.94295076  3635.83184229
0.29000001 74908.44187851  4250.67973560
0.29100001 73848.58809148  4851.85246727
0.29200001 72802.95373704  4159.59695866
0.29300001 71772.17778287  4747.72978507
0.29400001 70754.85539179  3443.99274922
0.29500001 69752.86413699  4335.83824000
0.29600001 68763.47536156  5514.14335027
0.29700001 67787.89914814  4545.17885304
0.29800001 66826.34510749  2997.16171995
0.29900001 65878.32650458  3260.97731635
0.30000001 64942.10696546  3518.56352196
0.30100001 64020.12013317  3770.14505312
0.30200001 63109.78752327  3442.00797447
0.30300001 62212.88761798  3404.28937162
0.30400001 61328.01428554  3366.90814367
0.30500001 60456.07412881  3329.92072066
0.30600001 59594.81695507  3293.20974085
0.30700001 58746.48976074  3528.31434207
0.30800001 57909.91317043  3220.94952303
0.30900001 57085.14189379  3981.68883560
0.31000001 56271.99264261  2625.08858106
0.31100001 55469.60923683  3893.96675279
0.31200001 54679.66005843  3080.65219355
0.31300001 53900.14362726  3300.30595055
0.31400001 53133.08905135  2761.59243420
0.31500001 52375.59686976  2482.60340917
0.31600002 51630.54724083  3191.54242880
0.31700002 50895.42018240  3156.02515494
0.31800002 50170.85907183  3120.87843633
0.31900002 49457.66498173  2848.76163783
0.32000002 48755.46359219  3286.60595637
0.32100002 48062.93849611  2553.58404321
0.32200002 47382.14877651  2984.36478200
0.32300002 46710.05933409  2270.10899113
0.32400002 46049.60459813  2693.90199655
0.32500002 45398.69915629  3329.99474080
0.32600002 44758.32998837  3073.55466584
0.32700002 44128.30134445  2388.22378185
0.32800002 43509.16482713  2361.89512448
0.32900002 42898.06070538  2760.49033711
0.33000002 42298.31050589  2100.11121607
0.33100002 41707.44420792  2077.03081991
0.33200002 41127.94041882  2465.20886544
0.33300002 40557.42298036  2235.11968629
0.33400002 39997.33405412  2411.83935768
0.33500002 39446.71282456  2385.73730461
0.33600002 38905.17827376  2163.32254036
0.33700002 38373.42694645  1945.53283832
0.33800002 37852.04830710  2117.25442233
0.33900002 37339.31365424  2475.59661251
0.34000002 36836.39919144  2261.01828945
0.34100002 36343.08392441  2983.04046979
0.34200002 35859.73692797  2398.47861802
0.34300002 35385.02419331  1825.86733485
0.34400002 34920.48816462  1987.84888292
0.34500002 34464.76836876  2683.08234458
0.34600002 34019.08454358  2478.97080810
0.34700002 33581.30581741  2454.12194537
0.34800002 33153.82405783  1909.16304879
0.34900002 32734.78294585  2062.29142326
0.35000002 32325.32767447  1872.12144093
0.35100002 31925.62274113  1685.67296057
0.35200002 31533.44581925  2003.63524225
0.35300002 31151.49603257  1819.55896944
0.35400002 30777.67162817  2130.58441937
0.35500002 30413.47085979  1948.89530500
0.35600002 30057.52417539  1931.49659499
0.35700002 29710.37575768  2074.08142988
0.35800002 29372.24759400  1898.03472943
0.35900002 29043.39744898  2195.68095114
0.36000002 28722.92054213  1555.34622103
0.36100002 28410.46640148  1696.95723854
0.36200002 28108.02398130  2448.77116524
0.36300002 27812.66459776  1670.42871486
0.36400002 27526.35918346  1507.06823668
0.36500002 27247.66486243  1495.89687180
0.36600002 26978.34187464  1782.18934866
0.36700002 26716.62631957  2212.13676405
0.36800002 26464.05890071  1757.74287545
0.36900002 26219.30363076  2328.27427270
0.37000002 25982.09341364  1590.49392366
0.37100002 25752.96763608  1868.12036081
0.37200002 25532.34773089  1571.38841553
0.37300002 25319.55439991  1562.46977603
0.37400002 25114.30533163  1836.48366437
0.37500002 24917.00393186  1545.85099716
0.37600002 24727.61144521  2517.02368824
0.37700002 24545.63389174  1809.25875987
0.37800002 24371.10085116  2493.89486824
0.37900002 24204.94705063  1379.68204724
0.38000002 24045.34738461  1511.61083494
0.38100002 23892.43985176  1505.94055520
0.38200002 23748.07225844  1364.32681588
0.38300002 23609.91064140  1359.93091737
0.38400002 23479.24713708  1762.70456232
0.38500002 23354.94825564  1487.47672487
0.38600002 23238.54365914  1753.69678032
0.38700002 23128.02700609  1480.65635908
0.38800002 23024.31416564  1343.46879521
0.38900002 22927.22265653  1877.73962453
0.39000002 22837.12702266  1607.27707600
0.39100002 22752.58122073  1337.85183916
0.39200002 22675.25217407  1470.37679689
0.39300002 22603.25660304  1469.43778138
0.39400002 22538.77278885  1602.50682121
0.39500002 22478.91760625  1468.77254598
0.39600002 22425.23650462  2003.13434568
0.39700002 22376.85085123  1736.66747684
0.39800002 22335.29698500  1871.47462304
0.39900002 22298.20771407  1471.68177886
0.40000002 22267.06972152  1741.17359937
0.40100002 22240.85139880  1609.34808347
0.40200002 22220.42636763  1611.86980508
0.40300002 22204.81017908  1614.73387273
0.40400002 22194.32774251  1887.62766394
0.40500002 22188.15911523  2162.01432663
0.40600002 22187.82152420  2031.84985235
0.40700002 22191.44205017  1493.92794960
0.40800002 22199.54437751  2042.91316814
0.40900002 22211.87290331  1912.44234759
0.41000002 22229.08035060  1507.46515540
0.41100002 22250.18989127  1375.06180043
0.41200002 22274.45366101  1655.88296362
0.41300002 22304.21585617  2216.14699248
0.41400002 22336.78107779  1807.60409437
0.41500002 22373.07937686  1814.90428505
0.41600002 22412.13886679  1542.06728780
0.41700002 22455.87244373  2252.77323030
0.41800002 22503.56295995  1555.78389896
0.41900002 22552.34234828  1989.11668937
0.42000002 22604.96030713  1855.75430435
0.42100002 22661.32911660  1864.80086137
0.42200002 22719.91948588  1729.89475163
0.42300002 22780.99218104  2028.41963992
0.42400002 22844.50227134  1601.97079769
0.42500002 22911.19151546  1756.83024865
0.42600002 22978.80740010  2060.50975721
0.42700002 23049.84988099  1923.74056223
0.42800002 23122.17706033  1636.70338077
0.42900002 23197.42435818  1645.85733620
0.43000002 23274.39600927  1655.15875063
0.43100002 23351.46076760  1513.17472945
0.43200002 23431.50489539  1674.06394658
0.43300002 23512.28278139  2142.90955424
0.43400002 23595.00599863  1847.48905724
0.43500002 23678.31848081  1858.27452244
0.43600002 23763.57098291  2180.78301245
0.43700002 23848.91145678  2193.62297975
0.43800002 23934.88827610  1733.72371444
0.43900002 24022.61484128  2061.14045106
0.44000002 24110.22001576  1913.86935555
0.44100002 24198.84520478  1764.82186442
0.44200002 24287.80530868  1775.31721317
0.44300002 24377.04814122  1785.86263146
0.44400002 24466.43809568  1633.13482028
0.44500002 24555.33442691  2135.57753632
0.44600002 24644.24170837  1817.63613334
0.44700002 24734.08444460  2493.19583017
0.44800002 24822.48440422  2674.87104617
0.44900002 24911.38729459  2185.97433870
0.45000002 24999.95206564  2536.87025609
0.45100002 25087.17674991  1871.00173068
0.45200002 25174.34675966  1881.65663773
0.45300002 25260.24221709  3096.40063772
0.45400002 25345.69856448  2421.78161261
0.45500002 25430.67454915  1913.40404376
0.45600002 25514.03480298  2273.68331923
0.45700002 25596.74694261  1934.34625813
0.45800002 25677.88823871  1767.92268902
0.45900002 25757.68665114  1955.00850948
0.46000002 25836.77928199  1965.27470923
0.46100002 25913.53777236  2693.71237910
0.46200002 25989.48475295  1985.46678180
0.46300002 26063.95979019  1995.45685611
0.46400002 26136.02862103  2369.88450753
0.46500002 26207.58158428  2198.29204748
0.46600002 26276.33418091  2208.78875593
0.46700002 26343.20202830  2404.08073105
0.46800002 26409.04500165  3344.17752706
0.46900002 26472.02214392  2239.53317952
0.47000002 26533.23929836  2624.40282339
0.47100002 26592.58230688  1882.75491656
0.47200002 26649.85417310  2079.88796752
0.47300002 26704.74723368  2658.19066563
0.47400002 26756.95115455  2669.00600417
0.47500002 26807.22913112  2871.05437602
0.47600002 26855.82692580  2305.84140914
0.47700002 26900.91877761  2121.67556455
