# SAXS profile: number of points = 501, q_min = 0, q_max = 0.5, delta_q = 0.001
#    q    intensity    error
0.00000000 1664650.74656091 249.69761198
0.00100000 1664569.37959191 499.37082574
0.00200000 1664325.22444871 1123.41956208
0.00300000 1663918.48723697 998.35112791
0.00400000 1663349.04740998 1372.26301626
0.00500000 1662617.41126197 1795.62687524
0.00600000 1661723.51048248 2093.77170845
0.00700000 1660667.85425982 2192.08165873
0.00800000 1659450.29376116 2912.33538851
0.00900000 1658072.04779232 2735.81899581
0.01000000 1656532.51758178 3553.26240364
0.01100000 1654832.95552221 3276.56939459
0.01200000 1652973.25769203 4834.94699073
0.01300000 1650954.61263329 3813.70532339
0.01400000 1648777.01607451 4080.72329569
0.01500000 1646441.93614365 4741.75298724
0.01600000 1643948.73091711 5449.69028661
0.01700000 1641299.66912212 5760.96209705
0.01800000 1638494.62587640 6070.62286204
0.01900000 1635534.33414766 4906.60322384
0.02000000 1632420.01758406 5142.12328800
0.02100000 1629153.51635401 6989.06890203
0.02200000 1625733.41131096 6730.53662861
0.02300000 1622163.18957358 10511.61794691
0.02400000 1618441.95674689 8496.82066036
0.02500000 1614572.63331207 7556.20026900
0.02600000 1610554.99429248 8479.57243279
0.02700000 1606391.19887198 8770.89634756
0.02800000 1602081.08632010 8362.86365411
0.02900000 1597627.21465879 7189.32279606
0.03000000 1593030.92538678 9629.87238660
0.03100000 1588292.38133376 10673.32529368
0.03200000 1583413.16586065 11756.84329801
0.03300000 1578397.29684578 10464.77456052
0.03400000 1573242.55573006 9085.47617855
0.03500000 1567952.30238427 11853.71995341
0.03600000 1562527.82643338 9539.23282122
0.03700000 1556970.68089773 12424.62660817
0.03800000 1551282.72932838 10890.00526387
0.03900000 1545465.71297278 11127.35364871
0.04000000 1539519.65303436 9468.04630490
0.04100000 1533448.62452048 11592.87213890
0.04200000 1527253.17156188 11820.94009630
0.04300000 1520934.43623215 11041.98451959
0.04400000 1514495.74008120 11245.13139235
0.04500000 1507938.58622073 13526.20974689
0.04600000 1501262.89487164 11642.29429094
0.04700000 1494472.99459710 12912.24727384
0.04800000 1487569.23427040 12026.99781867
0.04900000 1480555.17991612 14435.41367611
0.05000000 1473430.61041256 13526.09363345
0.05100000 1466200.22807828 12579.99854294
0.05200000 1458862.01759892 15077.33965451
0.05300000 1451422.19892153 17634.78053899
0.05400000 1443880.72338900 14294.41982816
0.05500000 1436239.80584600 12064.41493190
0.05600000 1428500.95298792 14656.42046159
0.05700000 1420669.24362850 21011.69909406
0.05800000 1412743.24734710 17503.88965193
0.05900000 1404725.57575833 17699.54308123
0.06000000 1396620.51403628 14056.98613050
0.06100000 1388428.85660161 15494.86676377
0.06200000 1380152.89787248 14346.69004400
0.06300000 1371796.10157468 22387.71342444
0.06400000 1363356.96622889 17280.55035511
0.06500000 1354841.52124245 17436.81119405
0.06600000 1346250.74878659 18941.74892168
0.06700000 1337586.25240047 16372.05649558
0.06800000 1328851.20118065 19255.05480642
0.06900000 1320048.34989940 18018.66081974
0.07000000 1311178.09748478 22342.47582740
0.07100000 1302243.78697238 15470.65691384
0.07200000 1293247.73817552 16993.27607571
0.07300000 1284192.46267176 19956.35180499
0.07400000 1275080.40995580 18648.05186953
0.07500000 1265913.24352301 17317.69398312
0.07600000 1256692.05604982 17417.75271341
0.07700000 1247422.02115762 14594.83833187
0.07800000 1238103.46995554 26408.74825262
0.07900000 1228738.13136422 19168.31574835
0.08000000 1219330.84702270 17777.84458357
0.08100000 1209881.96854538 22322.32336699
0.08200000 1200393.37459139 19428.36767944
0.08300000 1190868.45974135 16505.43762665
0.08400000 1181308.92866209 18074.02745690
0.08500000 1171717.15091651 24184.24313025
0.08600000 1162095.32096359 15165.34465061
0.08700000 1152446.68145492 18254.75629145
0.08800000 1142771.01518037 18307.19252296
0.08900000 1133073.44713710 22944.73838223
0.09000000 1123354.47119857 21467.30495304
0.09100000 1113615.98774427 16904.69148816
0.09200000 1103860.16319272 23098.27500012
0.09300000 1094092.39269104 21597.38484663
0.09400000 1084309.18992956 16996.54735094
0.09500000 1074516.31356647 17020.33920689
0.09600000 1064714.77403641 20139.08089759
0.09700000 1054908.96086185 15507.16245370
0.09800000 1045098.97801211 17071.69260850
0.09900000 1035287.75763792 15529.31709480
0.10000000 1025475.20292639 17089.54506044
0.10100000 1015664.52630167 21755.53517658
0.10200000 1005858.37882506 17094.56395220
0.10300000 996057.90733180 21753.90571945
0.10400000 986266.43513506 18640.43650099
0.10500000 976486.16305976 18631.35686777
0.10600001 966714.77734088 23273.65935959
0.10700001 956959.49554884 17053.01901316
0.10800001 947218.98852720 18584.43742952
0.10900001 937497.00717736 23203.05201971
0.11000001 927793.40853707 15447.76097926
0.11100001 918111.36993233 24678.83478550
0.11200001 908452.03508105 20017.74153539
0.11300001 898817.36230774 23054.66642863
0.11400001 889209.26728869 19940.51875784
0.11500001 879629.88677229 15305.56075055
0.11600001 870079.82038170 16796.89172346
0.11700001 860562.12291891 24371.12046882
0.11800001 851075.77803604 19749.21435948
0.11900001 841624.17814314 21208.93028818
0.12000001 832207.13729470 18125.47230408
0.12100001 822830.87659935 15057.80575111
0.12200001 813492.20423474 18010.71825027
0.12300001 804195.03830681 20941.23978414
0.12400001 794938.68774734 17886.12131706
0.12500001 785724.97018210 17820.24316343
0.12600001 776558.08682227 17752.11870130
0.12700001 767436.31967861 17681.73363867
0.12800001 758361.52992926 19076.58518444
0.12900001 749335.91406745 14612.05101301
0.13000001 740360.36920326 17457.69832868
0.13100001 731435.16692789 24620.10887933
0.13200001 722562.35657157 14415.11969314
0.13300001 713743.59109353 14346.24685730
0.13400001 704978.03771946 18558.54771792
0.13500001 696269.12156793 17044.66889961
0.13600001 687616.58204851 19782.72999831
0.13700001 679021.86122013 16866.90382804
0.13800001 670484.04805035 16775.51167328
0.13900001 662007.62936262 16682.59304666
0.14000001 653590.18830947 17970.46307507
0.14100001 645235.41299200 17866.56942839
0.14200001 636942.15169667 15028.65077811
0.14300001 628712.80422772 14938.21693305
0.14400001 620544.18084812 17545.88754112
0.14500001 612442.95233384 13412.50128881
0.14600001 604406.07699031 15992.58555160
0.14700001 596436.16440339 14564.97182186
0.14800001 588530.43921232 19730.48390545
0.14900001 580692.96719960 18291.82932981
0.15000001 572922.88469066 14274.37434557
0.15100001 565221.13871699 15464.45108499
0.15200001 557589.26299759 20474.67870341
0.15300001 550026.41710212 15246.73300155
0.15400001 542531.59859838 13875.24628894
0.15500001 535108.63457369 17530.15969593
0.15600001 527754.42106490 12428.61720265
0.15700001 520474.12211147 13568.76100385
0.15800001 513261.79584831 18361.94161313
0.15900001 506123.44367706 14576.35586591
0.16000001 499054.27217455 12052.16124191
0.16100001 492060.00397000 13152.76452698
0.16200001 485137.21531177 13047.76602174
0.16300001 478286.60163514 17648.77643350
0.16400001 471509.14909767 18671.76318575
0.16500001 464803.64703468 17360.41703635
0.16600001 458172.00492833 11477.20926533
0.16700001 451612.35022722 15932.88446828
0.16800001 445125.87257333 11283.94140252
0.16900001 438713.72106364 19018.24070611
0.17000001 432373.10876685 13308.44491626
0.17100001 426106.64812155 10993.55204067
0.17200001 419912.48682379 10896.72954765
0.17300001 413791.52941152 11879.95537043
0.17400001 407744.37870692 12843.94853584
0.17500001 401768.59140273 13788.69870815
0.17600001 395864.40982958 15765.30086604
0.17700001 390035.58386106 18745.11104571
0.17800001 384276.94233738 12381.40366691
0.17900001 378590.29416617 13288.51995290
0.18000001 372976.62374320 12151.57897553
0.18100001 367435.04080212 13040.27021404
0.18200001 361962.61756651 10929.46175371
0.18300001 356561.88401584 10825.21931010
0.18400001 351232.09727225 16569.37497157
0.18500001 345972.79944159 14478.96234065
0.18600001 340783.87678470 14338.48229312
0.18700001 335663.71949587 12305.43253809
0.18800001 330611.31144734 9372.83112236
0.18900001 325631.51731612 11136.59841839
0.19000001 320716.00641759 11026.21682161
0.19100001 315871.29172344 13645.64044721
0.19200001 311092.62362028 9906.74506729
0.19300001 306382.88112319 13373.61339297
0.19400001 301737.68160741 15003.90692692
0.19500001 297159.73399079 11357.44556983
0.19600001 292646.29768514 11242.00805683
0.19700001 288199.56241208 11983.33837140
0.19800001 283816.19675010 8471.91387336
0.19900001 279497.32903098 10061.90432064
0.20000001 275240.73828752 12447.76297735
0.20100001 271048.40509740 8212.76706261
0.20200001 266917.26541224 8940.39422754
0.20300001 262848.38233479 9651.79305552
0.20400001 258841.06416213 10347.17202895
0.20500001 254893.44519706 8663.82861176
0.20600001 251005.46561238 13249.32412862
0.20700001 247177.39152126 9254.32197600
0.20800001 243407.38355598 12209.31493630
0.20900001 239697.78845984 8305.52876275
0.21000001 236042.55732839 9711.97148038
0.21100001 232445.75478032 8870.13042174
0.21200001 228903.85923903 8044.82651327
0.21300001 225417.31946947 8683.07555646
0.21400001 221986.03852090 7874.95508883
0.21500001 218609.86013917 8499.55176405
0.21600001 215285.52284758 7708.29850999
0.21700001 212014.69312987 8319.45695176
0.21800001 208796.00432471 7544.84397300
0.21900001 205628.00218470 7464.29683223
0.22000001 202510.16617239 8727.17602384
0.22100001 199444.04579300 10626.37926230
0.22200001 196426.58371360 7227.51648949
0.22300001 193457.36552817 7800.20134693
0.22400001 190535.77623970 7716.69930260
0.22500001 187663.39597138 8906.50519397
0.22600001 184835.79942578 6293.65926806
0.22700001 182055.19010350 8716.80291437
0.22800001 179319.23697722 6775.57768960
0.22900001 176627.25456257 6703.00462764
0.23000001 173979.96483191 6028.40606652
0.23100001 171376.84186130 6560.30581671
0.23200001 168814.58186772 6490.07690684
0.23300001 166295.38182288 8171.75544926
0.23400001 163816.43335568 5774.52954890
0.23500001 161377.94816960 6855.33556248
0.23600001 158979.62371705 6216.89847950
0.23700001 156620.59640696 7827.89777866
0.23800001 154300.04026981 6637.98804638
0.23900001 152017.58378089 5472.63327497
0.24000001 149771.59223103 5955.66764677
0.24100001 147563.53246505 5892.21213004
0.24200001 145391.50473092 6359.42471774
0.24300001 143254.19186634 5767.41403735
0.24400001 141151.74111433 5706.05940446
0.24500001 139083.08576813 6671.81593990
0.24600001 137048.24845915 6600.92919929
0.24700001 135046.81242435 9545.10915369
0.24800001 133077.41809671 6461.57434136
0.24900001 131138.64438838 6884.77915609
0.25000001 129232.37262955 7784.95849550
0.25100001 127356.03149453 7702.49314919
0.25200001 125511.42947716 5715.79076880
0.25300001 123694.57615263 7069.14536157
0.25400001 121907.99571746 6528.17347953
0.25500001 120148.13851116 4613.68873711
0.25600001 118417.51078569 4564.99525677
0.25700001 116713.29968714 4516.80491160
0.25800001 115035.99317512 5362.97825557
0.25900001 113385.95808323 6190.87360426
0.26000001 111760.66195790 6125.60217175
0.26100001 110160.42413482 5195.16584801
0.26200001 108586.52665676 5997.23415102
0.26300001 107035.22114064 5934.03294082
0.26400001 105508.87196817 5452.17121694
0.26500001 104005.84734267 4979.80020641
0.26600001 102525.38155964 6159.21258865
0.26700001 101067.75151122 4875.50856361
0.26800001 99632.53883392  6834.29432472
0.26900001 98218.15270175  5171.18598446
0.27000001 96825.82190560  4723.16381607
0.27100001 95453.82042282  5062.87087482
0.27200001 94103.18032456  5394.93558331
0.27300001 92771.99181956  5719.39356634
0.27400001 91459.57768846  6036.33241311
0.27500001 90168.11276687  5226.14406330
0.27600001 88893.53023786  4432.23162742
0.27700001 87639.59611098  5847.31412926
0.27800001 86402.68180828  3977.54764529
0.27900001 85184.13188996  4293.28045045
0.28000001 83982.72618535  6017.78252962
0.28100001 82798.89777419  4202.87224994
0.28200001 81632.30719452  4504.87908574
0.28300001 80482.26705032  4114.25368634
0.28400001 79347.86131187  3731.33335480
0.28500001 78230.01549662  4027.28138838
0.28600001 77127.95790500  4648.50224296
0.28700001 76041.96484645  3942.01564423
0.28800001 74969.54761625  3899.91605159
0.28900001 73914.05077028  4179.83976891
0.29000001 72872.25883289  4453.22394807
0.29100001 71845.59626277  4090.88844484
0.29200001 70832.78057047  3424.41093878
0.29300001 69834.35072036  3695.63401506
0.29400001 68848.96541186  3655.88023643
0.29500001 67878.63012882  3315.19245242
0.29600001 66920.32294883  3875.69068705
0.29700001 65975.47225239  4423.65562393
0.29800001 65044.19550872  4084.12522933
0.29900001 64125.97467445  3462.80279635
0.30000001 63219.37884233  3425.22610783
0.30100001 62326.40962612  3952.74108561
0.30200001 61444.78113763  3630.46506539
0.30300001 60576.07054138  3314.72273695
0.30400001 59719.02196479  2732.14538423
0.30500001 58874.62276661  4053.51796938
0.30600001 58040.43291191  3741.86688698
0.30700001 57218.88835362  3436.56659722
0.30800001 56408.55200447  3398.89746195
0.30900001 55609.63135396  2585.84798038
0.31000001 54821.84570947  2557.43922343
0.31100001 54044.78343130  3793.94397650
0.31200001 53279.52281934  3752.21057220
0.31300001 52524.40642550  2721.28962575
0.31400001 51781.36517592  2691.33658244
0.31500001 51047.53739733  2903.58406464
0.31600002 50325.68387566  3350.18093423
0.31700002 49613.41095972  3076.52775928
0.31800002 48911.44016708  2574.45377509
0.31900002 48220.37733561  3703.32515472
0.32000002 47539.77612047  2975.75242716
0.32100002 46868.78905725  2942.89140425
0.32200002 46209.00699923  2910.47444366
0.32300002 45557.52673188  2878.32467521
0.32400002 44917.29210494  2189.71809380
0.32500002 44286.58688428  2598.73704142
0.32600002 43665.87157814  2355.99221256
0.32700002 43055.11267515  2753.80513710
0.32800002 42454.97511964  2304.66843350
0.32900002 41862.45852561  2901.06851320
0.33000002 41281.03572362  2459.52422488
0.33100002 40708.16120675  2027.26652410
0.33200002 40146.32352097  2807.43253677
0.33300002 39593.10561301  2578.69909069
0.33400002 39050.00567806  2158.48916607
0.33500002 38516.07041543  2329.45204904
0.33600002 37990.88964184  1920.43956234
0.33700002 37475.19799552  2849.98894253
0.33800002 36969.53684983  2631.86145298
0.33900002 36472.22849553  2046.09211550
0.34000002 35984.48401565  1840.60644457
0.34100002 35505.78814030  2367.88112322
0.34200002 35037.08774322  1982.92407474
0.34300002 34576.68251662  2319.40397306
0.34400002 34126.09320863  2295.83302934
0.34500002 33683.97187786  2272.65769023
0.34600002 33251.56067929  2596.11572299
0.34700002 32827.03419234  2056.28551920
0.34800002 32412.23672747  1696.78067305
0.34900002 32005.79970426  1848.33502046
0.35000002 31608.57822533  2329.86841134
0.35100002 31220.87428383  1813.30846429
0.35200002 30840.42164571  2122.90052453
0.35300002 30469.96592397  1779.75079391
0.35400002 30107.47567120  1763.54547097
0.35500002 29754.19384787  2065.53623475
0.35600002 29408.90271437  2047.30085943
0.35700002 29072.22042333  1717.29614175
0.35800002 28744.35804144  1702.67212923
0.35900002 28425.52399535  1534.97836845
0.36000002 28114.70859160  1674.65269658
0.36100002 27811.76842553  1510.17909704
0.36200002 27518.58703011  1498.38713476
0.36300002 27232.27080501  1635.57026202
0.36400002 26954.86880933  3099.13618815
0.36500002 26684.70907466  1904.48777687
0.36600002 26423.81373617  1600.09411659
0.36700002 26170.27103860  2600.27825357
0.36800002 25925.68928129  1865.48306060
0.36900002 25688.67582235  1568.29373324
0.37000002 25459.12853494  1558.48062709
0.37100002 25237.32200266  1689.89116135
0.37200002 25023.94774519  1400.08994267
0.37300002 24818.09369530  1392.29512226
0.37400002 24619.58324859  1523.33678567
0.37500002 24428.98585724  1653.35384114
0.37600002 24245.97058695  1782.44261214
0.37700002 24070.22112990  1364.78160272
0.37800002 23901.83470772  2445.87486151
0.37900002 23741.58710501  1894.57874073
0.38000002 23587.75669586  1617.64843083
0.38100002 23440.42576761  1477.45010612
0.38200002 23301.45606122  1606.40245696
0.38300002 23168.51218423  1601.40763804
0.38400002 23042.96165444  1330.73109859
0.38500002 22923.57317735  1592.72993982
0.38600002 22812.07303472  1456.66499264
0.38700002 22706.13060323  1585.79623646
0.38800002 22606.97384011  1582.94038328
0.38900002 22514.26533899  1975.62687709
0.39000002 22428.42138105  1710.05506921
0.39100002 22348.03516340  1971.09679480
0.39200002 22274.59787048  1838.32264934
0.39300002 22206.53486617  1968.60940915
0.39400002 22145.81233410  1312.13944296
0.39500002 22089.63788403  2230.61173921
0.39600002 22039.43068523  2099.91705518
0.39700002 21994.46562018  1838.29752363
0.39800002 21956.17509303  1314.07714158
0.39900002 21922.33650474  2104.54440417
0.40000002 21894.25778767  2238.79743615
0.40100002 21871.05137603  1450.70690651
0.40200002 21853.53735597  1981.56959364
0.40300002 21840.73946497  1455.90376172
0.40400002 21832.94563577  2387.43271839
0.40500002 21829.38670203  1728.23262708
0.40600002 21831.66643059  1599.38795849
0.40700002 21837.63253689  1871.04844441
0.40800002 21848.22853501  1742.50554937
0.40900002 21862.75667278  1747.92747881
0.41000002 21882.20651776  1349.03809574
0.41100002 21905.47635715  1624.51020362
0.41200002 21931.84862401  1766.28151263
0.41300002 21963.68850852  1500.33963311
0.41400002 21998.20443026  1780.20477787
0.41500002 22036.48069048  1650.09175229
0.41600002 22077.39397216  1795.22337591
0.41700002 22123.00669053  2080.66887783
0.41800002 22172.33727023  1532.88460981
0.41900002 22222.93357282  1540.04936957
0.42000002 22277.22073702  1828.84852306
0.42100002 22335.07533677  1413.81033581
0.42200002 22395.43143474  1563.08921106
0.42300002 22457.95703951  1713.99136247
0.42400002 22523.05216310  1866.59803647
0.42500002 22591.15961044  1732.29020101
0.42600002 22660.21428969  2031.94151164
0.42700002 22732.76818722  1897.27692281
0.42800002 22806.49482348  1614.35781258
0.42900002 22883.07018568  1771.14971630
0.43000002 22961.34447366  1484.45099057
0.43100002 23039.79242025  1940.87220545
0.43200002 23121.17316329  1501.72026812
0.43300002 23203.24808386  2114.74413058
0.43400002 23287.29363927  1671.44558017
0.43500002 23371.80936388  2292.77460725
0.43600002 23458.36885843  2306.54422731
0.43700002 23545.01488853  2165.67057208
0.43800002 23632.16113170  1867.41346112
0.43900002 23721.17970611  2348.39690219
0.44000002 23810.12007584  1890.04742119
0.44100002 23899.97521946  1901.48211857
0.44200002 23990.16418483  2231.80507988
0.44300002 24080.70853170  2405.66289632
0.44400002 24171.37009375  1936.12683626
0.44500002 24261.51567566  1623.09547562
0.44600002 24351.73440092  2122.61902965
0.44700002 24442.87135584  2299.58544614
0.44800002 24532.67205972  1817.50309568
0.44900002 24622.73485117  1828.23814934
0.45000002 24712.72720015  2173.36089662
0.45100002 24801.29419024  2185.98617353
0.45200002 24889.75249397  2198.63639075
0.45300002 24977.16162835  2211.22822375
0.45400002 25064.00635055  2223.80406885
0.45500002 25150.40593266  2064.34541679
0.45600002 25235.16971086  2248.83225536
0.45700002 25319.37867544  2087.32967693
0.45800002 25401.98678184  2098.71224738
0.45900002 25483.40221143  1758.35483592
0.46000002 25564.04187700  1944.52893753
0.46100002 25642.39767747  1954.72006760
0.46200002 25720.05978951  2143.50988445
0.46300002 25796.01784717  2513.56409816
0.46400002 25869.82138860  2345.74616559
0.46500002 25943.09509772  2357.44916326
0.46600002 26013.59159766  2368.92783112
0.46700002 26082.29156955  2014.07465046
0.46800002 26149.87801538  2391.53720725
0.46900002 26214.78036276  2402.58473412
0.47000002 26277.82575895  2784.79271679
0.47100002 26339.05391804  2237.76612694
0.47200002 26398.30511230  2060.25582014
0.47300002 26455.18579550  2445.25293898
0.47400002 26509.33424627  2644.30621640
0.47500002 26561.74850867  2086.15982675
0.47600002 26612.53353580  2284.95223769
0.47700002 26659.68505767  2102.64946016
