# SAXS profile: number of points = 501, q_min = 0, q_max = 0.5, delta_q = 0.001
#    q    intensity    error
0.00000000 1664650.74656090 349.57665678
0.00100000 1664569.45150429 749.05627097
0.00200000 1664325.50667134 973.63045223
0.00300000 1663919.13049223 1397.69211940
0.00400000 1663350.17627980 1621.76648350
0.00500000 1662619.18833471 1795.62879447
0.00600000 1661726.05510688 2093.77491468
0.00700000 1660671.31805287 1992.80566448
0.00800000 1659454.83452824 2912.34335756
0.00900000 1658077.79353679 3730.67519494
0.01000000 1656539.58745305 4099.93565598
0.01100000 1654841.48156688 3276.58627616
0.01200000 1652983.42553724 3545.64960323
0.01300000 1650966.54304896 4507.13886131
0.01400000 1648790.83974105 3709.77955388
0.01500000 1646457.76821890 3951.49881968
0.01600000 1643966.72557384 4611.32687138
0.01700000 1641319.96414215 4431.56410198
0.01800000 1638517.35383314 6070.70706912
0.01900000 1635559.62465510 5397.34700490
0.02000000 1632448.01349440 6170.65377014
0.02100000 1629184.36407809 6989.20123877
0.02200000 1625767.23487767 6730.67665818
0.02300000 1622200.11757666 7591.89689583
0.02400000 1618482.02929677 8497.03104125
0.02500000 1614616.11296931 6297.00312817
0.02600000 1610601.90963222 10436.70085177
0.02700000 1606441.66243504 8096.46634950
0.02800000 1602135.26466615 8363.14646509
0.02900000 1597685.25441836 7189.58397499
0.03000000 1593092.86816712 8148.67039523
0.03100000 1588358.42715611 10673.76912162
0.03200000 1583483.45790586 10189.71652094
0.03300000 1578471.81910620 8855.22731342
0.03400000 1573321.53538951 9085.93228610
0.03500000 1568035.72438279 10160.87196321
0.03600000 1562615.96143147 13876.03037877
0.03700000 1557063.51705827 10650.31494923
0.03800000 1551380.37431773 11798.24829270
0.03900000 1545568.33736038 13910.11568042
0.04000000 1539627.34132816 11362.45030553
0.04100000 1533561.44604223 19322.87511607
0.04200000 1527371.21896646 10836.69930131
0.04300000 1521057.84297241 14054.57512145
0.04400000 1514624.62623553 12268.46004228
0.04500000 1508072.94800352 13527.41497214
0.04600000 1501402.82658891 15877.33562927
0.04700000 1494618.64102564 15065.75660222
0.04800000 1487720.80581104 15308.64780408
0.04900000 1480712.51911230 12215.87885130
0.05000000 1473593.87188935 15782.19110285
0.05100000 1466369.48186743 16012.75548793
0.05200000 1459037.39054692 16239.08691355
0.05300000 1451603.76594345 12933.79015750
0.05400000 1444068.48992683 13104.92215722
0.05500000 1436433.93180863 13272.65014907
0.05600000 1428701.55909455 14658.47868034
0.05700000 1420876.20421347 14833.94826442
0.05800000 1412956.67540295 16256.06730955
0.05900000 1404945.50573055 17702.31419901
0.06000000 1396847.03383538 17893.61133940
0.06100000 1388662.19248168 19371.83849039
0.06200000 1380392.80242591 13044.71259268
0.06300000 1372042.89096584 19757.41855367
0.06400000 1363610.47077313 14624.72298299
0.06500000 1355101.85463022 17440.16168490
0.06600000 1346518.02637272 14885.75747803
0.06700000 1337860.40595787 15010.79445734
0.06800000 1329132.38408435 19259.12914688
0.06900000 1320336.54430448 15249.88780070
0.07000000 1311473.22216784 18157.34761119
0.07100000 1302545.98832941 19694.49626599
0.07200000 1293556.85940559 16997.33792886
0.07300000 1284508.69886605 14258.04722548
0.07400000 1275403.70239191 15783.12155676
0.07500000 1266243.71034390 17322.21476944
0.07600000 1257029.63140468 15970.56221571
0.07700000 1247766.63099473 16058.75729387
0.07800000 1238455.36062997 16143.26638287
0.07900000 1229097.16820187 16224.08338123
0.08000000 1219696.96293973 19265.11443338
0.08100000 1210255.09245763 25306.43517062
0.08200000 1200773.61344884 17939.55862674
0.08300000 1191255.73810523 19512.76990594
0.08400000 1181703.46519373 15066.71988843
0.08500000 1172118.62337372 21168.46333189
0.08600000 1162503.82634780 21238.94590457
0.08700000 1152862.30481530 16739.56145197
0.08800000 1143193.54274223 16787.79796359
0.08900000 1133503.07354002 15302.29221153
0.09000000 1123791.02938250 19941.67275316
0.09100000 1114059.50112809 19986.22838921
0.09200000 1104310.52521027 18486.15906062
0.09300000 1094549.64071231 16976.46572521
0.09400000 1084773.19942016 23187.02822734
0.09500000 1074986.94010319 21671.73773111
0.09600000 1065192.12352308 18598.25535098
0.09700000 1055393.14932448 17065.70802688
0.09800000 1045589.67421282 20185.10960974
0.09900000 1035784.87429822 20197.80599857
0.10000000 1025978.79519516 15543.57947818
0.10100000 1016174.60621216 20211.71386815
0.10200000 1006374.91006189 23322.73963770
0.10300000 996580.53556581 20210.65421200
0.10400000 986795.33261415 21758.83810779
0.10500000 977021.21788863 17088.10190486
0.10600001 967255.86883087 17076.90316774
0.10700001 957506.66488240 26369.73479176
0.10800001 947772.07767836 18595.28903918
0.10900001 938055.66104020 17025.71104921
0.11000001 928357.91603016 20094.30803830
0.11100001 918681.57872612 16977.23637403
0.11200001 909027.74038343 20030.42720232
0.11300001 899398.53611336 16917.68726079
0.11400001 889795.77358246 16883.87559869
0.11500001 880221.82255919 16847.44647710
0.11600001 870676.79658979 15280.37849973
0.11700001 861164.26522715 18291.12985484
0.11800001 851682.80079965 19763.30032337
0.11900001 842235.83976197 19708.31957872
0.12000001 832823.87106698 16627.32936908
0.12100001 823452.03852341 15069.17301486
0.12200001 814118.00261913 21028.66899834
0.12300001 804825.16381689 16466.72362751
0.12400001 795573.01058434 17900.39358157
0.12500001 786363.41293645 16348.49612530
0.12600001 777200.50904801 16286.23743456
0.12700001 768082.71928014 14747.18890516
0.12800001 759011.65162848 16155.56376631
0.12900001 749989.74927745 19012.24104027
0.13000001 741017.72398675 20385.39854774
0.13100001 732095.86169446 15945.04861932
0.13200001 723226.26720835 17314.03765316
0.13300001 714410.55835201 20103.51405977
0.13400001 705648.13476188 20005.12556365
0.13500001 696942.01540224 21326.42667681
0.13600001 688291.99841007 14144.40123425
0.13700001 679699.81063327 16883.74409225
0.13800001 671164.37629446 16792.53348675
0.13900001 662690.32064745 18091.44660683
0.14000001 654274.97181041 13837.91630639
0.14100001 645922.13209944 15133.95626885
0.14200001 637630.59015543 17780.32984510
0.14300001 629402.97383136 19033.14682641
0.14400001 621235.95742804 21619.01233826
0.14500001 613136.08777637 13427.68095571
0.14600001 605100.30528211 16010.95483307
0.14700001 597131.41565682 17233.21346886
0.14800001 589226.56300249 13169.21430441
0.14900001 581389.74806906 17005.65093336
0.15000001 573620.17814253 14291.74741275
0.15100001 565918.96171497 14193.24822952
0.15200001 558287.47886916 14093.96806910
0.15300001 550724.63149107 15266.08750532
0.15400001 543229.78324124 22734.16750149
0.15500001 535806.51793443 13791.66042250
0.15600001 528451.85405346 16178.55427539
0.15700001 521170.96135143 14822.10284039
0.15800001 513957.89030796 13483.68588864
0.15900001 506818.60900610 13380.01190931
0.16000001 499748.61560675 13275.82260024
0.16100001 492752.82024836 17960.84114588
0.16200001 485828.78419634 16629.92006807
0.16300001 478976.63247813 11782.82571520
0.16400001 472197.45281116 14024.26501057
0.16500001 465490.11421826 13908.84526950
0.16600001 458856.45263933 18390.96749008
0.16700001 452294.52261245 11397.82250798
0.16800001 445805.65696313 18081.87830019
0.16900001 439390.99916658 12324.91810858
0.17000001 433047.67940466 11107.67350123
0.17100001 426778.25974847 13213.05554575
0.17200001 420581.19271414 16371.12369949
0.17300001 414456.98118181 11899.06049166
0.17400001 408406.41109369 10720.66879750
0.17500001 402427.13027587 13811.29976334
0.17600001 396519.43418041 13685.86891711
0.17700001 390686.72049951 12517.60311602
0.17800001 384924.09860965 14469.29755015
0.17900001 379233.21302610 13311.08640595
0.18000001 373615.33834357 10143.65691516
0.18100001 368069.23334344 13062.77770840
0.18200001 362592.19460358 13934.41869685
0.18300001 357186.74578698 11830.02557931
0.18400001 351851.89799259 14645.83594582
0.18500001 346587.50011555 9669.79171004
0.18600001 341393.34344852 10533.69210975
0.18700001 336267.79989509 14224.12860758
0.18800001 331209.97910992 10328.78368654
0.18900001 326224.44969438 13016.35615780
0.19000001 321303.18901315 10125.87048018
0.19100001 316452.43337091 11847.97966522
0.19200001 311667.59656273 11729.61055088
0.19300001 306951.59736346 11611.97947696
0.19400001 302300.07879949 11494.96103953
0.19500001 297715.67035338 13129.26168301
0.19600001 293195.40619020 9530.31712858
0.19700001 288741.92025025 11148.32606770
0.19800001 284351.63387247 10185.47600666
0.19900001 280025.64529264 10921.00068254
0.20000001 275761.78435982 8314.21819139
0.20100001 271562.23008559 10696.83674863
0.20200001 267423.68322376 9771.66184684
0.20300001 263347.24903766 12087.63930215
0.20400001 259332.15012457 7974.46399325
0.20500001 255376.76612022 9469.37093533
0.20600001 251480.89737510 10931.87512562
0.20700001 247644.82241658 10044.47447201
0.20800001 243866.46941432 12996.86410180
0.20900001 240148.62021701 9834.08646276
0.21000001 236485.08767763 8981.70405458
0.21100001 232879.69281770 8146.13203986
0.21200001 229329.33147735 8059.77973579
0.21300001 225834.15716955 9424.05982421
0.21400001 222394.01098902 7889.42791282
0.21500001 219008.96631325 9934.24718164
0.21600001 215675.83771811 11232.39815941
0.21700001 212395.75546286 9028.94399161
0.21800001 209167.97418200 9619.63558745
0.21900001 205990.77555629 7477.46550624
0.22000001 202863.60561001 8069.91461273
0.22100001 199788.06325276 7983.53138507
0.22200001 196761.17356514 7239.82772366
0.22300001 193782.38510863 6511.08844753
0.22400001 190851.21174768 9661.84305160
0.22500001 187969.11095521 6372.15316270
0.22600001 185131.84108694 6934.11343581
0.22700001 182341.39602883 7483.29124690
0.22800001 179595.62093648 7402.93184509
0.22900001 176893.62181116 9154.24536164
0.23000001 174236.40404876 13885.77087735
0.23100001 171623.26983357 7764.23709446
0.23200001 169050.98616144 6499.16547035
0.23300001 166521.69310539 8182.87638620
0.23400001 164032.48955337 7516.78918929
0.23500001 161583.81318101 6864.08070857
0.23600001 159175.28358674 7922.15423881
0.23700001 156806.06403859 5597.97675095
0.23800001 154475.14394438 7753.10784128
0.23900001 152182.30445121 5478.56321938
0.24000001 149926.02009512 8129.73882420
0.24100001 147707.69736831 6434.14760171
0.24200001 145525.23706351 9017.47174118
0.24300001 143377.53952247 6297.14183370
0.24400001 141264.62956629 6229.77045856
0.24500001 139185.57743338 5649.54285527
0.24600001 137140.30003562 6605.36286368
0.24700001 135128.55252864 5529.46063105
0.24800001 133148.75865064 5470.41700795
0.24900001 131199.55893408 6887.97716989
0.25000001 129282.94319446 7788.00486647
0.25100001 127396.18069248 7223.36378699
0.25200001 125541.19872002 4764.28871682
0.25300001 123713.99354130 5656.20405231
0.25400001 121917.11473933 5129.66284535
0.25500001 120146.86386056 5075.00376958
0.25600001 118406.00998755 4564.55190098
0.25700001 116691.48985381 5870.74913231
0.25800001 115004.00056092 6701.85844978
0.25900001 113343.84533542 5304.49221268
0.26000001 111708.38876717 5248.06035260
0.26100001 110098.13997260 5624.91423735
0.26200001 108514.00744451 5137.05335549
0.26300001 106952.81820738 4235.33180142
0.26400001 105416.45162576 4190.30415040
0.26500001 103903.56347843 6218.62856844
0.26600001 102413.29031920 4101.65247137
0.26700001 100945.96804882 4058.02810759
0.26800001 99501.00583042  4817.83893029
0.26900001 98077.00331277  4369.33070435
0.27000001 96675.07860465  5894.76319687
0.27100001 95293.51588137  3887.97563195
0.27200001 93933.36253657  3846.57137791
0.27300001 92592.98925504  5708.35805772
0.27400001 91271.19873746  4894.41826392
0.27500001 89970.59563713  4097.26111922
0.27600001 88686.96654450  4053.43799775
0.27700001 87424.00709097  4374.69752187
0.27800001 86178.19895885  3606.55779712
0.27900001 84950.78627134  3924.72651148
0.28000001 83740.66115729  4235.60284180
0.28100001 82548.27593148  5237.68835575
0.28200001 81373.15318322  4836.00672257
0.28300001 80214.66819280  4100.57403210
0.28400001 79071.88679613  4394.42031669
0.28500001 77945.95538925  4012.65797336
0.28600001 76835.73813873  3307.77868344
0.28700001 75741.70134818  3599.24581843
0.28800001 74661.50234100  3883.89153562
0.28900001 73598.21269249  4161.97912476
0.29000001 72548.75426223  3483.42860079
0.29100001 71514.61302388  4072.04225833
0.29200001 70494.40286837  3408.05206799
0.29300001 69488.72949964  3677.34373919
0.29400001 68496.27851886  3334.05651473
0.29500001 67518.79685525  3897.18513897
0.29600001 66553.62979298  3261.46078239
0.29700001 65602.20922941  3225.66078051
0.29800001 64664.26196195  4060.26920080
0.29900001 63739.62580332  3155.11162662
0.30000001 62826.70951229  2836.62606876
0.30100001 61927.50433067  3927.44251058
0.30200001 61039.85944831  2774.26174326
0.30300001 60165.28004385  3566.59796985
0.30400001 59302.50477865  2713.08972207
0.30500001 58452.42989985  4292.74665507
0.30600001 57612.87602193  3714.30229298
0.30700001 56785.95792454  2885.86251835
0.30800001 55970.40511805  2853.65124005
0.30900001 55166.59316665  3847.87005555
0.31000001 54374.01216197  3043.85734494
0.31100001 53592.15993637  3009.73584452
0.31200001 52822.41026221  2976.01473507
0.31300001 52062.91333687  3678.24500140
0.31400001 51315.61402128  2667.12916504
0.31500001 50577.79269448  3116.60373340
0.31600002 49852.00333837  2607.50915807
0.31700002 49135.99954066  2812.54474688
0.31800002 48430.33870637  2317.39181682
0.31900002 47735.96633638  2749.59179117
0.32000002 47052.06081224  3851.44662015
0.32100002 46377.97005442  2912.07287760
0.32200002 45715.28217076  2436.39607866
0.32300002 45061.12619172  3065.95917126
0.32400002 44418.24024124  2815.00610858
0.32500002 43785.00639076  2569.30429667
0.32600002 43162.07231462  2540.51969674
0.32700002 42549.18131335  2512.10378370
0.32800002 41947.12140319  2691.11770105
0.32900002 41352.79468083  2251.65977700
0.33000002 40769.74078757  3238.74836153
0.33100002 40195.38633235  2602.24943438
0.33200002 39632.28940988  2771.48612968
0.33300002 39078.00322823  2740.93127623
0.33400002 38533.92977167  2129.96306899
0.33500002 37999.11434431  2298.18654438
0.33600002 37473.33526952  2083.70490634
0.33700002 36957.17530778  2248.47465221
0.33800002 36451.20546463  2594.96143992
0.33900002 35953.78201553  2933.82875141
0.34000002 35465.98057120  2358.31048977
0.34100002 34987.55130578  2153.83376039
0.34200002 34519.14365549  2131.21203022
0.34300002 34059.20910590  2108.94632772
0.34400002 33609.28106083  2782.84860363
0.34500002 33168.00371250  1721.41947421
0.34600002 32736.57961292  1874.33295451
0.34700002 32313.08882306  2698.78930632
0.34800002 31899.62781898  2003.93471450
0.34900002 31494.62878633  2314.85532543
0.35000002 31098.97861033  1801.09743152
0.35100002 30713.09633056  1783.81671937
0.35200002 30334.45506195  1606.20947161
0.35300002 29966.04380706  2386.79550228
0.35400002 29605.75610104  2049.45856316
0.35500002 29254.79793788  1718.42691226
0.35600002 28911.98983663  1703.06084199
0.35700002 28577.97132829  1841.56455962
0.35800002 28252.83773385  1825.69846084
0.35900002 27936.92672120  1961.17234872
0.36000002 27629.15940464  1795.34286315
0.36100002 27329.34371637  2077.57680773
0.36200002 27039.56996330  1619.53511966
0.36300002 26756.70707107  2045.28278539
0.36400002 26482.90519390  2174.90869207
0.36500002 26216.45887421  1583.21202641
0.36600002 25959.39512820  1571.97124645
0.36700002 25709.82283445  1703.01874522
0.36800002 25469.33917252  2255.56478396
0.36900002 25236.63232103  1960.88642423
0.37000002 25011.32723562  1948.63259723
0.37100002 24793.96319874  1936.90449684
0.37200002 24585.19012541  1925.75803375
0.37300002 24384.10162848  2325.51188247
0.37400002 24190.36083913  1360.70786166
0.37500002 24004.69474521  2030.79727165
0.37600002 23826.71395907  1616.88088586
0.37700002 23656.07860469  1475.42969247
0.37800002 23492.91821830  2003.35869597
0.37900002 23337.97151529  1995.39665908
0.38000002 23189.63470625  1590.34522349
0.38100002 23047.81628918  1452.70392953
0.38200002 22914.42188693  1711.36367970
0.38300002 22787.23800478  1312.54497126
0.38400002 22667.49126111  1570.85721881
0.38500002 22554.06864717  1958.82095480
0.38600002 22448.47141131  1303.13382716
0.38700002 22348.64245518  1690.89836827
0.38800002 22255.58835235  1558.33637026
0.38900002 22169.10081123  2075.02793424
0.39000002 22089.55715183  1813.77362367
0.39100002 22015.51195471  1423.96338069
0.39200002 21948.56727873  1423.25491262
0.39300002 21886.98366236  1810.92911402
0.39400002 21832.77028442  1811.02838089
0.39500002 21783.23031740  1293.92394216
0.39600002 21739.76647905  1682.98410171
0.39700002 21701.49466053  2461.60065597
0.39800002 21669.97745397  1815.72749689
0.39900002 21643.03628584  1818.01513415
0.40000002 21621.78956774  1430.60577453
0.40100002 21605.56487949  2084.50499834
0.40200002 21595.03799856  1697.04614152
0.40300002 21589.22801204  1831.63019132
0.40400002 21588.43921233  1573.79729315
0.40500002 21592.05549826  1840.93873901
0.40600002 21601.38605050  1318.76468087
0.40700002 21614.61547405  1719.65888859
0.40800002 21632.30855986  1857.99907024
0.40900002 21654.02583198  1464.89491694
0.41000002 21680.73401745  1470.27904706
0.41100002 21711.23059399  1475.92952571
0.41200002 21744.89209398  1751.22496777
0.41300002 21783.92579138  2299.72915476
0.41400002 21825.77911262  1494.52029555
0.41500002 21871.24731256  1774.19566606
0.41600002 21919.50193916  1645.27789351
0.41700002 21972.43740500  1515.43907963
0.41800002 22029.03574244  1661.42995442
0.41900002 22086.88232157  1669.76838263
0.42000002 22148.44729107  1818.27686652
0.42100002 22213.63167370  1687.34754189
0.42200002 22281.15040210  1837.86077800
0.42300002 22351.02346366  1990.13522351
0.42400002 22423.34658226  1572.43725359
0.42500002 22498.63204239  2156.49398345
0.42600002 22574.87794116  1590.51310071
0.42700002 22654.58693921  2327.07928067
0.42800002 22735.44712900  2340.84174733
0.42900002 22819.20623408  1913.39053340
0.43000002 22904.49944735  2813.47432294
0.43100002 22990.00326320  2085.65319487
0.43200002 23078.41726176  1798.73192662
0.43300002 23167.49150237  1508.20376827
0.43400002 23258.39617975  2124.65459170
0.43500002 23349.89016539  1679.79117810
0.43600002 23443.27664836  1997.71891426
0.43700002 23536.67846489  1546.35984842
0.43800002 23630.63572894  2178.50841109
0.43900002 23726.34238472  2505.50187456
0.44000002 23821.89061479  1890.98176662
0.44100002 23918.35258037  2220.10159172
0.44200002 24015.07359433  2234.12240236
0.44300002 24112.10621769  1605.86635020
0.44400002 24209.13284419  1777.55566332
0.44500002 24305.64247465  1788.65231448
0.44600002 24402.11759003  1799.77826815
0.44700002 24499.48188740  1811.00178694
0.44800002 24595.44087514  2650.40483431
0.44900002 24691.62324507  2500.02697204
0.45000002 24787.60559985  1844.56975813
0.45100002 24882.07693196  2193.10636472
0.45200002 24976.42252813  2376.00718771
0.45300002 25069.60086245  1877.96388961
0.45400002 25162.12762682  2404.24140869
0.45500002 25254.11100709  2072.85752970
0.45600002 25344.51370950  2258.57644626
0.45700002 25434.10466381  2096.78768786
0.45800002 25522.07963234  1757.19526597
0.45900002 25608.77486204  2297.10721399
0.46000002 25694.64245534  1776.78461000
0.46100002 25778.08309575  1786.42124320
0.46200002 25860.75531375  1975.63249583
0.46300002 25941.61191924  1805.53627515
0.46400002 26020.24175969  2177.89433851
0.46500002 26098.25518938  1824.26812420
0.46600002 26173.32217533  2566.81782739
0.46700002 26246.59389779  2395.26427264
0.46800002 26318.62201079  2221.81817546
0.46900002 26387.87146926  2046.37952943
0.47000002 26455.16142029  2242.86869152
0.47100002 26520.57576376  2253.18822368
0.47200002 26583.83607833  2263.34791099
0.47300002 26644.65496557  1894.43505784
0.47400002 26702.71373167  3805.13688712
0.47500002 26758.82583894  2101.63828100
0.47600002 26813.14883243  2494.02515686
0.47700002 26863.91400335  3274.44263307
