# SAXS profile: number of points = 501, q_min = 0, q_max = 0.5, delta_q = 0.001
#    q    intensity    error
0.00000000 1664650.74656090 274.66737318
0.00100000 1664569.43438671 649.18209483
0.00200000 1664325.43636068 898.73576409
0.00300000 1663918.97128622 1198.02170200
0.00400000 1663349.90952308 1497.01497545
0.00500000 1662618.77404433 1945.26404263
0.00600000 1661725.43396160 2093.77413203
0.00700000 1660670.48667163 2789.92653356
0.00800000 1659453.72101235 2688.31514154
0.00900000 1658076.37856024 2984.53760899
0.01000000 1656537.83869876 3553.27381744
0.01100000 1654839.41276802 4170.19550174
0.01200000 1652980.93504839 3545.64426113
0.01300000 1650963.65694661 5893.94051525
0.01400000 1648787.49378282 4822.70363311
0.01500000 1646453.94065745 3951.48963353
0.01600000 1643962.34223835 5030.52499213
0.01700000 1641315.03208490 4431.55078542
0.01800000 1638511.84006241 5136.73484974
0.01900000 1635553.49477367 4906.66070572
0.02000000 1632441.15735049 7199.06582957
0.02100000 1629176.79166161 5913.91202186
0.02200000 1625759.00775781 8413.30324738
0.02300000 1622191.09508418 8759.83231219
0.02400000 1618472.35623917 6676.19877390
0.02500000 1614605.46658458 7556.35392872
0.02600000 1610590.41227509 9784.33720209
0.02700000 1606429.29173583 8771.10433460
0.02800000 1602121.97838132 9060.00020323
0.02900000 1597670.90003872 8627.42325633
0.03000000 1593077.61101343 9630.15460123
0.03100000 1588342.26817991 7624.04323807
0.03200000 1583466.29258190 11757.23776394
0.03300000 1578453.45741336 8050.11300392
0.03400000 1573302.07135429 9911.80350687
0.03500000 1568015.18905469 11007.46713547
0.03600000 1562594.19238189 10406.87780220
0.03700000 1557040.71581418 10650.15898871
0.03800000 1551356.27614248 11798.06502607
0.03900000 1545543.12284041 12055.23691643
0.04000000 1539600.82786337 9468.54553012
0.04100000 1533533.55698578 16424.14515685
0.04200000 1527342.02745274 11821.62784092
0.04300000 1521027.25009846 12046.53637996
0.04400000 1514592.64673753 14312.90117639
0.04500000 1508039.66660287 13527.11643796
0.04600000 1501368.10468792 16935.43300815
0.04700000 1494582.41782740 12913.19269059
0.04800000 1487682.84221295 19682.04491825
0.04900000 1480673.26187397 15547.06997335
0.05000000 1473553.21616994 16909.02394294
0.05100000 1466327.18886728 14868.55838775
0.05200000 1458993.48979493 16238.59829816
0.05300000 1451558.32308869 14109.14755816
0.05400000 1444021.32669338 13104.49415086
0.05500000 1436385.25426281 16891.89137813
0.05600000 1428651.10899595 17100.95457268
0.05700000 1420824.01305313 16069.52033773
0.05800000 1412902.90047762 16255.44862900
0.05900000 1404890.18206562 16437.21589788
0.06000000 1396789.82492545 20449.00399226
0.06100000 1388603.06209729 19371.01362149
0.06200000 1380332.03638734 14348.55218895
0.06300000 1371980.14692347 17122.31303416
0.06400000 1363545.87689259 15953.48750574
0.06500000 1355035.52088513 14756.33751271
0.06600000 1346449.97130691 23004.09883611
0.06700000 1337790.32369901 17739.10052242
0.06800000 1329060.45568482 16506.93163228
0.06900000 1320262.59228773 18021.58522848
0.07000000 1311397.31663233 18156.29669901
0.07100000 1302468.16046824 15473.32247110
0.07200000 1293477.24047161 19829.00702536
0.07300000 1284427.22700551 19960.00004290
0.07400000 1275320.11733536 15782.08719164
0.07500000 1266158.09647659 14434.20297640
0.07600000 1256941.98054381 17421.21666705
0.07700000 1247676.98383758 17517.38567444
0.07800000 1238363.46225658 14674.60771592
0.07900000 1229003.51545205 25071.67289118
0.08000000 1219601.03541342 17781.78393049
0.08100000 1210157.29365124 17861.92249234
0.08200000 1200673.56171657 16443.22519931
0.08300000 1191153.85303907 15008.53925267
0.08400000 1181599.21359015 19585.00788455
0.08500000 1172012.44256100 22678.44182820
0.08600000 1162395.38392719 16686.18651972
0.08700000 1152751.72321419 18259.58815314
0.08800000 1143080.84257098 21364.18195099
0.08900000 1133388.48294617 16830.81976229
0.09000000 1123673.75180789 16871.96217596
0.09100000 1113940.12022344 15372.37438130
0.09200000 1104189.31222199 18484.12995510
0.09300000 1094426.28212076 21603.97582428
0.09400000 1084647.67617050 18547.47613420
0.09500000 1074859.13621004 15477.97228893
0.09600000 1065062.25413267 17046.32217870
0.09700000 1055261.08851410 15512.33873044
0.09800000 1045455.52428187 18630.01831864
0.09900000 1035648.18516102 20195.14056027
0.10000000 1025840.12463424 17095.62648099
0.10100000 1016033.57727860 17099.84590984
0.10200000 1006231.76386205 17100.90963120
0.10300000 996435.49237327 18653.27329469
0.10400000 986647.72807592 23309.55367239
0.10500000 976871.54944470 20191.93587704
0.10600001 967103.88729921 18626.42174582
0.10700001 957352.49560882 15509.11115869
0.10800001 947615.70658268 26338.97980402
0.10900001 937897.27488376 17022.83634033
0.11000001 928197.35063576 21636.28126173
0.11100001 918518.75411929 21603.56211384
0.11200001 908862.80526402 16945.74780190
0.11300001 899231.17653870 15376.85384277
0.11400001 889626.51634783 15346.05812956
0.11500001 880050.22196395 22969.31187484
0.11600001 870503.14203170 15277.33086209
0.11700001 860988.35718499 16763.44410386
0.11800001 851504.85446760 18239.23484173
0.11900001 842055.60363330 19704.10205311
0.12000001 832641.73286868 15112.44816344
0.12100001 823267.66982777 18078.95888108
0.12200001 813931.20955274 15017.03152372
0.12300001 804636.30790648 16462.85963540
0.12400001 795382.23668457 16404.75940457
0.12500001 786170.76070474 20802.07930845
0.12600001 777005.42565513 20722.73567875
0.12700001 767885.51313273 16217.74280165
0.12800001 758812.61459508 16151.32726286
0.12900001 749788.59775608 14620.87834536
0.13000001 740814.50617205 18924.10745215
0.13100001 731890.47472102 15940.57529082
0.13200001 723018.92789530 14424.22829147
0.13300001 714201.00967459 18662.07326258
0.13400001 705436.57787000 18570.61878795
0.13500001 696728.40255414 21319.89012335
0.13600001 688076.75217367 22623.96467821
0.13700001 679482.52437026 15471.81780946
0.13800001 670945.34981820 15388.13232372
0.13900001 662468.97421166 15303.03402595
0.14000001 654051.92989482 17983.15866055
0.14100001 645697.16347068 19254.69032280
0.14200001 637403.76960171 17774.00495366
0.14300001 629174.07892168 20385.24111859
0.14400001 621005.19531586 17558.92272581
0.14500001 612903.37396992 13422.58452311
0.14600001 604865.80414856 16004.74993278
0.14700001 596895.22338811 15901.28950123
0.14800001 588988.64255332 13163.89678212
0.14900001 581150.20575724 15691.05629576
0.15000001 573378.83334348 19480.54678199
0.15100001 565675.69092203 15476.88763390
0.15200001 558042.31187932 19210.60749294
0.15300001 550477.94678288 13987.64528782
0.15400001 542981.41863795 15149.18229490
0.15500001 535556.72944801 15038.43367261
0.15600001 528200.34183670 13683.03050105
0.15700001 520917.75210856 14814.90156918
0.15800001 513703.18753658 13477.00376112
0.15900001 506562.35185090 15804.74612374
0.16000001 499490.71199642 14475.24151692
0.16100001 492493.59347201 19148.15181807
0.16200001 485567.92152554 13059.34986591
0.16300001 478714.32347299 12954.01020471
0.16400001 471933.87311355 18688.58225758
0.16500001 465224.96614616 13900.92264473
0.16600001 458589.72130054 12636.44036704
0.16700001 452026.45428212 12530.17390431
0.16800001 445536.49706546 13553.22088067
0.16900001 439120.36683291 11197.56988297
0.17000001 432775.87117495 12210.77178179
0.17100001 426505.05938686 11003.83105180
0.17200001 420306.91149183 15269.75081558
0.17300001 414181.42972930 11891.14940908
0.17400001 408129.68211456 14998.76652604
0.17500001 402149.28768084 12740.09003541
0.17600001 396240.40717972 11572.20163823
0.17700001 390406.55398781 12508.62658056
0.17800001 384642.98149908 12393.19744926
0.17900001 378951.01829422 11254.84577494
0.18000001 373332.08353065 12163.15985596
0.18100001 367785.03583527 13052.69153836
0.18200001 362306.94480869 10939.85871527
0.18300001 356900.64175596 11820.54981335
0.18400001 351564.88065487 10731.51848895
0.18500001 346299.63912236 10627.93642675
0.18600001 341104.63093134 13395.17948951
0.18700001 335978.35721556 12316.96715744
0.18800001 330919.92407020 11257.89634876
0.18900001 325933.70242351 10218.02205375
0.19000001 321011.58282083 11956.07696707
0.19100001 316160.35188146 10926.50227730
0.19200001 311374.78675332 9014.30050245
0.19300001 306658.16373506 12493.25418091
0.19400001 302006.21834250 12367.15522552
0.19500001 297421.08745476 13116.27057657
0.19600001 292900.31487345 12982.80707029
0.19700001 288446.36577858 10280.22896217
0.19800001 284055.84305414 11022.78751064
0.19900001 279729.58241905 12587.83180376
0.20000001 275465.30954719 9966.33537044
0.20100001 271265.33841526 8219.34014245
0.20200001 267126.63734055 8947.40714061
0.20300001 263049.87268656 9659.19178159
0.20400001 259034.58823051 7965.31396457
0.20500001 255079.10920704 12611.11175528
0.20600001 251183.17329744 11698.85684931
0.20700001 247346.88783524 7717.22326525
0.20800001 243568.69494733 9163.05473706
0.20900001 239850.78926370 8310.83024085
0.21000001 236187.18296342 9717.92210242
0.21100001 232581.85966846 8135.71383581
0.21200001 229031.60694928 8049.31620676
0.21300001 225536.55371495 10859.58557477
0.21400001 222096.72790132 7878.88179479
0.21500001 218711.97773547 7794.89525502
0.21600001 215378.99922692 9113.76278317
0.21700001 212099.37832145 7629.21499893
0.21800001 208871.85920986 7547.58498940
0.21900001 205694.97119031 8824.31468129
0.22000001 202568.28030731 8729.68045260
0.22100001 199493.22494990 9300.37458692
0.22200001 196466.78198311 6571.81416808
0.22300001 193488.72031099 10401.95409578
0.22400001 190557.96518900 8360.73111802
0.22500001 187676.66631547 8270.91107563
0.22600001 184839.95228508 6293.80067293
0.22700001 182050.31401013 7471.34524029
0.22800001 179305.16285993 9238.69895326
0.22900001 176604.18314676 7920.69798871
0.23000001 173947.69884333 7835.47446495
0.23100001 171335.40517976 8943.70857336
0.23200001 168764.04382795 7077.96433289
0.23300001 166235.59729608 7001.84368926
0.23400001 163747.51654110 8658.15034660
0.23500001 161299.72070674 9136.01661293
0.23600001 158892.42417251 9037.80151439
0.23700001 156524.46505275 6146.71603335
0.23800001 154194.53378191 6633.44915705
0.23900001 151902.87564507 7655.90529463
0.24000001 149647.91817770 6491.72699761
0.24100001 147430.90674245 6957.26481826
0.24200001 145249.81194934 6353.22707518
0.24300001 143103.33375825 8380.13162129
0.24400001 140992.00378968 6217.74766125
0.24500001 138914.25924737 5638.53004958
0.24600001 136870.36384614 7606.57083058
0.24700001 134860.15255314 5518.47770353
0.24800001 132882.06759594 6948.40364330
0.24900001 130934.43426877 5401.04566910
0.25000001 129019.43981785 7286.37320842
0.25100001 127134.42635560 5286.24969795
0.25200001 125281.11445576 7131.62777779
0.25300001 123455.78010830 6114.76507806
0.25400001 121660.50708643 4653.51461622
0.25500001 119892.09383230 5064.24228308
0.25600001 118153.10971184 5010.28285438
0.25700001 116440.56721599 6308.75023025
0.25800001 114754.92289740 4904.05186205
0.25900001 113096.66826411 4851.84729809
0.26000001 111463.33443200 5672.92667433
0.26100001 109855.13187927 6044.22964199
0.26200001 108273.09055393 4271.37362446
0.26300001 106713.94199033 5071.04676333
0.26400001 105179.78350733 5435.16556992
0.26500001 103669.00181633 5377.31137866
0.26600001 102180.92380395 5729.28466879
0.26700001 100715.85039249 4858.53285284
0.26800001 99273.17836634  5207.37481762
0.26900001 97851.42248781  7133.36903692
0.27000001 96451.83166406  4704.92057122
0.27100001 95072.73033391  4654.76109742
0.27200001 93714.87456034  5372.67401280
0.27300001 92376.95485647  6074.70883884
0.27400001 91057.56263443  3756.12463643
0.27500001 89759.53101172  3716.04475975
0.27600001 88478.26775887  5146.78107911
0.27700001 87217.92313672  4728.08383701
0.27800001 85974.61360146  4317.64529941
0.27900001 84749.86255917  4271.39327514
0.28000001 83542.33729345  4225.57162029
0.28100001 82352.46441977  5225.26411474
0.28200001 81179.92677345  3790.69686010
0.28300001 80024.14788170  3749.93174722
0.28400001 78884.02784476  4383.98005497
0.28500001 77760.87700807  4670.31849416
0.28600001 76653.29336419  4289.90176618
0.28700001 75562.02525705  4243.56353929
0.28800001 74484.59450196  5166.25171919
0.28900001 73424.05986302  3513.34143074
0.29000001 72377.42018779  3475.20199481
0.29100001 71346.06124555  4062.44491962
0.29200001 70328.75289912  3400.04371985
0.29300001 69325.90464369  3974.45430136
0.29400001 68336.23938545  3628.65448314
0.29500001 67361.65208624  3289.94324363
0.29600001 66399.35459893  3253.90052615
0.29700001 65450.74486396  4095.90780748
0.29800001 64515.78118879  2893.53292329
0.29900001 63594.03373038  3434.07798401
0.30000001 62683.96379347  3962.25353896
0.30100001 61787.71615622  3358.78040926
0.30200001 60902.98155388  4152.06096400
0.30300001 60031.27121387  3011.16870664
0.30400001 59171.51945846  3248.51657206
0.30500001 58324.29443455  3747.91933780
0.30600001 57487.69047929  2912.03909909
0.30700001 56663.70035442  3665.00831244
0.30800001 55851.06636345  4141.91527761
0.30900001 55050.08401767  4351.70934762
0.31000001 54260.58528770  3290.63335057
0.31100001 53481.63462345  3754.41092832
0.31200001 52714.82063370  2969.95313512
0.31300001 51958.17252006  2691.95304572
0.31400001 51213.81167751  3871.76434614
0.31500001 50478.88599430  3828.31889507
0.31600002 49755.91631419  3075.66211259
0.31700002 49042.85596137  2807.21320815
0.31800002 48340.10481856  2544.38153760
0.31900002 47648.57575886  2973.27126813
0.32000002 46967.48354061  3844.52354725
0.32100002 46296.30608699  2459.72285887
0.32200002 45636.28980770  2211.07834588
0.32300002 44984.95431374  2404.89577149
0.32400002 44344.99920257  2161.81881349
0.32500002 43714.53013499  2351.40468730
0.32600002 43094.28051079  4016.17166238
0.32700002 42484.20581251  2090.22302495
0.32800002 41884.77569734  2687.11791211
0.32900002 41293.19962529  2861.61886954
0.33000002 40712.83540447  2021.39237355
0.33100002 40141.13952308  2598.73749579
0.33200002 39580.53648518  2767.86704748
0.33300002 39028.87293322  2150.88128921
0.33400002 38487.43153706  2320.79223159
0.33500002 37955.15272439  2104.23376669
0.33600002 37431.86370013  2081.39887961
0.33700002 36918.18399456  2620.45282403
0.33800002 36414.71793563  2036.85734419
0.33900002 35919.81213750  2015.10155634
0.34000002 35434.36704303  2174.96155210
0.34100002 34958.36363272  2869.38262286
0.34200002 34492.25735428  2484.47741489
0.34300002 34034.61319155  2283.04196101
0.34400002 33586.97686759  2433.37658930
0.34500002 33147.86285671  2064.44899649
0.34600002 32718.71877671  2554.51408947
0.34700002 32297.39967398  1685.92434283
0.34800002 31886.03087183  2170.00393376
0.34900002 31483.13900593  1983.43785131
0.35000002 31089.59810644  2127.92764318
0.35100002 30705.71126601  1945.51395796
0.35200002 30329.03276150  1927.10683294
0.35300002 29962.52223115  1909.21200700
0.35400002 29604.12331770  1576.41964133
0.35500002 29255.01206573  2030.88303379
0.35600002 28913.99486586  1858.01339808
0.35700002 28581.74735483  2302.25985848
0.35800002 28258.32207728  1673.88178753
0.35900002 27944.08194499  1508.98049650
0.36000002 27637.90189537  1795.91095023
0.36100002 27339.67960726  1781.45360759
0.36200002 27051.46210499  1620.24739952
0.36300002 26770.09683194  1900.14156313
0.36400002 26497.75564166  1595.82740911
0.36500002 26232.70832674  1728.21090643
0.36600002 25976.98527264  1859.04303910
0.36700002 25728.73379816  1420.22617293
0.36800002 25489.53004833  1410.84555500
0.36900002 25258.00845807  1542.00148941
0.37000002 25033.90505588  1950.39163529
0.37100002 24817.52351637  2354.19039228
0.37200002 24609.85480143  1927.69001791
0.37300002 24409.72996414  1780.20169061
0.37400002 24216.99533856  2043.30907848
0.37500002 24032.19279606  1490.95731170
0.37600002 23855.05558680  1483.90380307
0.37700002 23685.27123427  1611.54593112
0.37800002 23522.93601695  1872.19056628
0.37900002 23368.60127186  1465.21136916
0.38000002 23220.91685417  1327.07546108
0.38100002 23079.68670125  1983.69916595
0.38200002 22946.88279791  1450.12832711
0.38300002 22820.17708400  1577.33071477
0.38400002 22700.95396393  1442.07816888
0.38500002 22587.86982216  1438.62149713
0.38600002 22482.63545671  1827.16387013
0.38700002 22383.08536539  1432.96519298
0.38800002 22290.28002914  1950.95685198
0.38900002 22204.02203710  1298.93535071
0.39000002 22124.57024418  1427.36671693
0.39100002 22050.72923748  2333.84929306
0.39200002 21983.77090620  1555.13202758
0.39300002 21922.18910995  1554.72172534
0.39400002 21867.93322652  1425.24261556
0.39500002 21818.31735100  1296.00811205
0.39600002 21774.68228374  1815.35534800
0.39700002 21736.23031248  1427.41831225
0.39800002 21704.55287728  1558.82106150
0.39900002 21677.24978907  1560.76205876
0.40000002 21655.68956210  1823.62570443
0.40100002 21639.10238834  1565.80552301
0.40200002 21628.14209960  2353.35825336
0.40300002 21621.88388371  1441.31484798
0.40400002 21620.61519788  1970.17865325
0.40500002 21623.62013057  2238.69349819
0.40600002 21632.34575812  1716.85120244
0.40700002 21644.95085241  1987.00658240
0.40800002 21661.94434821  1594.75241848
0.40900002 21683.01646448  1333.50557575
0.41000002 21708.92337488  1739.86174632
0.41100002 21738.61903345  2149.51475188
0.41200002 21771.39921177  1618.48589409
0.41300002 21809.47720114  2166.98975738
0.41400002 21850.51099761  1632.23324886
0.41500002 21895.07938824  2049.37952785
0.41600002 21942.32861088  1372.49271964
0.41700002 21994.23879828  1379.03883800
0.41800002 22049.80061060  1385.83003404
0.41900002 22106.59277917  1810.53003440
0.42000002 22167.03000788  1819.80241473
0.42100002 22231.02136005  1547.94609065
0.42200002 22297.37910207  1556.24564817
0.42300002 22366.05002482  1991.47318858
0.42400002 22437.09387575  1573.40128259
0.42500002 22511.14266073  1726.15450102
0.42600002 22586.03140522  1735.96245607
0.42700002 22664.44001631  1746.06854160
0.42800002 22744.04388271  1756.29515185
0.42900002 22826.39728319  1766.76323344
0.43000002 22910.32977488  1629.26817915
0.43100002 22994.43042358  1639.04307826
0.43200002 23081.44844542  1499.14014757
0.43300002 23168.99894934  1809.96228369
0.43400002 23258.49112384  1669.37827952
0.43500002 23348.50627840  1526.99238297
0.43600002 23440.33856762  2304.77139888
0.43700002 23532.41458718  1700.68768281
0.43800002 23624.68911504  2955.80311870
0.43900002 23718.91010178  1721.99295499
0.44000002 23812.87870610  1575.22200106
0.44100002 23907.82786829  1743.59796906
0.44200002 24002.92670267  2073.49292147
0.44300002 24098.45402172  1925.94853669
0.44400002 24193.84105860  2422.40845079
0.44500002 24288.79195720  1787.41228484
0.44600002 24383.74354861  1634.93008242
0.44700002 24479.41481832  1645.01675375
0.44800002 24573.86354699  2151.56472482
0.44900002 24668.41692825  2497.67733235
0.45000002 24762.84844978  1842.72745472
0.45100002 24855.69474226  2190.78103841
0.45200002 24948.49738746  2542.87571673
0.45300002 25040.03720661  1705.22661459
0.45400002 25131.04138613  2058.23238707
0.45500002 25221.40196330  2070.17277126
0.45600002 25310.19530714  2082.01676464
0.45700002 25398.24077353  2268.31699099
0.45800002 25484.69894980  2281.00808761
0.45900002 25569.82209668  2117.18136995
0.46000002 25654.21164345  2660.98322883
0.46100002 25736.17325547  2318.57195847
0.46200002 25817.33034086  2510.21914801
0.46300002 25896.67641436  1802.40876387
0.46400002 25973.84650200  1811.67587938
0.46500002 26050.42806769  2185.11000988
0.46600002 26124.02035079  2378.98402600
0.46700002 26195.95824982  1838.95635630
0.46800002 26266.55069961  2032.63712223
0.46900002 26334.37730077  1856.57368770
0.47000002 26400.36329722  1865.18575535
0.47100002 26464.43817511  2061.05054276
0.47200002 26526.39462155  2823.07168140
0.47300002 26586.01881277  1890.26602718
0.47400002 26642.78724878  2467.78828589
0.47500002 26697.67394796  2096.83541126
0.47600002 26750.82444749  2105.42373793
0.47700002 26800.37408009  2882.38036893
