# SAXS profile: number of points = 501, q_min = 0, q_max = 0.5, delta_q = 0.001
#    q    intensity    error
0.00000000 1664650.74656090 249.69761198
0.00100000 1664569.43906612 649.18209665
0.00200000 1664325.45970211 823.84112864
0.00300000 1663919.02094179 1198.02173776
0.00400000 1663350.00872407 1372.26380934
0.00500000 1662618.91363657 1496.35708150
0.00600000 1661725.64844870 2442.73680267
0.00700000 1660670.77396006 1992.80501157
0.00800000 1659454.08958958 3136.36836174
0.00900000 1658076.84496958 2984.53844853
0.01000000 1656538.43444812 3826.60394881
0.01100000 1654840.11424282 2978.71233533
0.01200000 1652981.78009156 4834.97191875
0.01300000 1650964.66268579 3813.72853901
0.01400000 1648788.62860454 4080.75203670
0.01500000 1646455.24947595 5532.08988458
0.01600000 1643963.84280364 5868.95118117
0.01700000 1641316.69626507 4874.71080658
0.01800000 1638513.74259812 6070.69368949
0.01900000 1635555.58813293 5397.33368438
0.02000000 1632443.48118944 6684.85635786
0.02100000 1629179.35986712 7526.80898384
0.02200000 1625761.82808622 6730.65427407
0.02300000 1622194.15472712 7007.87906741
0.02400000 1618475.69585280 6069.28413619
0.02500000 1614609.02838216 6926.67304810
0.02600000 1610594.28219482 6522.90714124
0.02700000 1606433.46923166 10120.53131969
0.02800000 1602126.51039471 6969.25063982
0.02900000 1597675.74928717 7908.49532208
0.03000000 1593082.82754154 8889.40258629
0.03100000 1588347.76862518 9148.88356825
0.03200000 1583472.14773974 8622.00624156
0.03300000 1578459.73147940 8855.15950183
0.03400000 1573308.66501113 9085.85795966
0.03500000 1568022.24312246 10160.78460464
0.03600000 1562601.55939740 9539.68296099
0.03700000 1557048.55492098 13312.76576026
0.03800000 1551364.51360777 10890.57938954
0.03900000 1545551.77030231 10200.64215639
0.04000000 1539609.82911612 12309.18115418
0.04100000 1533543.08761502 10627.45408993
0.04200000 1527352.00315923 10836.56296515
0.04300000 1521037.67707323 11042.73404813
0.04400000 1514603.59428796 15335.36210437
0.04500000 1508051.03714862 12486.66316778
0.04600000 1501380.00977940 12701.67547319
0.04700000 1494594.84930625 11837.19175703
0.04800000 1487695.75936865 14214.93364216
0.04900000 1480686.67839505 12215.66566537
0.05000000 1473567.18705782 13527.34740711
0.05100000 1466341.68928423 12581.21228014
0.05200000 1459008.51728133 12759.03007821
0.05300000 1451573.92768088 16460.84910727
0.05400000 1444037.53445185 16678.63430071
0.05500000 1436401.99198490 14478.93275464
0.05600000 1428668.35188936 13436.62647653
0.05700000 1420841.90724916 16069.72272110
0.05800000 1412921.30082637 16255.66032502
0.05900000 1404909.22271479 20230.69375198
0.06000000 1396809.47195767 16615.04944517
0.06100000 1388623.29243614 15497.03666778
0.06200000 1380352.94785830 14348.76956370
0.06300000 1372001.66269680 15805.45989326
0.06400000 1363568.02549136 15953.74664435
0.06500000 1355058.29932496 16098.09334901
0.06600000 1346473.38883193 23004.49892454
0.06700000 1337814.42112519 13645.70773408
0.06800000 1329085.23342270 28887.66890065
0.06900000 1320287.91110040 18021.93083029
0.07000000 1311423.39205568 18156.65771326
0.07100000 1302494.92820239 14066.94588345
0.07200000 1293504.71396423 22662.20365030
0.07300000 1284455.33300998 18534.69132379
0.07400000 1275348.97381048 17217.21195331
0.07500000 1266187.53540253 18764.90015422
0.07600000 1256972.19854802 18873.43844600
0.07700000 1247707.92477316 17517.82008520
0.07800000 1238395.08883025 20544.97548718
0.07900000 1229035.77039934 19172.95891751
0.08000000 1219634.14974793 16300.41117605
0.08100000 1210190.98197620 14885.34977670
0.08200000 1200708.03564353 14948.81574524
0.08300000 1191189.09396831 18010.77994608
0.08400000 1181635.19574444 27118.52901524
0.08500000 1172049.13225059 18143.32141898
0.08600000 1162432.82031216 15169.74901732
0.08700000 1152789.80025167 19781.87390123
0.08800000 1143119.71085656 21364.90839929
0.08900000 1133428.12180799 15301.28036310
0.09000000 1123714.12884846 21474.17801105
0.09100000 1113981.16576204 19984.82305268
0.09200000 1104231.08343861 15404.02433775
0.09300000 1094468.86312417 18518.41403428
0.09400000 1084690.94176246 15456.84664655
0.09500000 1074903.24708543 21670.05047979
0.09600000 1065107.08522959 20146.50146416
0.09700000 1055306.57378278 18615.60883670
0.09800000 1045501.77185621 20183.41265466
0.09900000 1035695.31175477 18642.51648820
0.10000000 1025887.88954587 20204.86293478
0.10100000 1016082.21640834 20209.87623487
0.10200000 1006281.02089322 17101.74675448
0.10300000 996485.56345345 21763.24572958
0.10400000 986698.60343239 21756.70522923
0.10500000 976923.14262002 18639.69443818
0.10600001 967156.12739997 24836.57052028
0.10700001 957405.48445966 26366.94828279
0.10800001 947669.37776163 17043.83456115
0.10900001 937951.69521532 23214.30554918
0.11000001 928252.52092937 17000.94572105
0.11100001 918574.64307486 23148.08209514
0.11200001 908919.44714929 18487.42242535
0.11300001 899288.53899233 16915.61821485
0.11400001 889684.58678582 16881.76582913
0.11500001 880108.98171570 16845.28670325
0.11600001 870562.61730178 18334.04958375
0.11700001 861048.55410901 16764.61613803
0.11800001 851565.69259028 18240.53799438
0.11900001 842117.19439574 16673.92123440
0.12000001 832703.86227591 16624.93339345
0.12100001 823330.52658756 18080.33921559
0.12200001 813994.83035940 18021.84639319
0.12300001 804700.55728785 16464.17417781
0.12400001 795447.06734852 19389.02318018
0.12500001 786236.19013417 22289.79704061
0.12600001 777071.66508123 19244.18069259
0.12700001 767952.35398983 19168.09165891
0.12800001 758879.97970311 14684.32829932
0.12900001 749856.58481512 23395.52654891
0.13000001 740883.20502518 20381.69793093
0.13100001 731959.63121145 15942.08151926
0.13200001 723088.84166447 21638.43460685
0.13300001 714271.35253906 14356.85486286
0.13400001 705507.56728463 17143.83469327
0.13500001 696799.93040893 15636.19117559
0.13600001 688148.83858162 21212.18894945
0.13700001 679555.24545303 15473.47366859
0.13800001 671018.61795744 19587.03438182
0.13900001 662542.73313040 18087.41746743
0.14000001 654126.17072169 17985.19991219
0.14100001 645771.98089476 22007.91014685
0.14200001 637479.01367049 19143.49568343
0.14300001 629249.87221204 14950.97766896
0.14400001 621081.40606118 16210.22546283
0.14500001 612979.99389759 17451.54124949
0.14600001 604942.97564740 21342.38918765
0.14700001 596972.65490081 18553.91098963
0.14800001 589066.55748998 18431.89345345
0.14900001 581228.65125145 14385.40979719
0.15000001 573457.71533415 14287.69965169
0.15100001 565754.87405022 14189.13291069
0.15200001 558121.78455773 15370.67467202
0.15300001 550557.85044581 12717.88694544
0.15400001 543061.69021995 12626.18489346
0.15500001 535637.26737762 21307.65150185
0.15600001 528281.28050672 14929.22969170
0.15700001 520998.97184025 14817.21145846
0.15800001 513784.73178170 17155.27300390
0.15900001 506644.13790284 17023.24383704
0.16000001 499572.67300652 13271.14868485
0.16100001 492575.84641174 13166.55299610
0.16200001 485650.41215934 11874.15313783
0.16300001 478797.00356743 12956.24752817
0.16400001 472016.70339529 11682.41396056
0.16500001 465308.07686279 13903.40599306
0.16600001 458672.92424405 12638.73302426
0.16700001 452109.79179017 11393.16729104
0.16800001 445619.96346127 11296.46660712
0.16900001 439203.99961447 14559.61327470
0.17000001 432859.62670171 14433.70493392
0.17100001 426588.93009351 16508.99237420
0.17200001 420390.79158079 10909.14155668
0.17300001 414265.31314030 18380.95281207
0.17400001 408213.55257007 10715.60626102
0.17500001 402233.23796744 13804.64537900
0.17600001 396324.29111917 14731.37459665
0.17700001 390490.50677174 11468.70672556
0.17800001 384726.81656160 17560.85637139
0.17900001 379034.89975384 12280.73133209
0.18000001 373415.89618239 12165.89047228
0.18100001 367868.63492378 11047.09562859
0.18200001 362390.58185194 12931.90852426
0.18300001 356984.05275188 10838.03635353
0.18400001 351648.13863822 10734.05993902
0.18500001 346382.69194610 9664.07756185
0.18600001 341187.51809136 10527.34136806
0.18700001 336061.01547749 11372.30530104
0.18800001 331002.35142628 9383.91710629
0.18900001 326015.90064193 12078.88968948
0.19000001 321093.54125781 11039.19647003
0.19100001 316241.94341934 10018.54524090
0.19200001 311456.05857771 9918.31865406
0.19300001 306739.18640064 9818.72182064
0.19400001 302086.84959383 8836.04076816
0.19500001 297501.29330295 8746.53843643
0.19600001 292980.26020116 11254.83722749
0.19700001 288525.94821846 9426.14317375
0.19800001 284134.96282134 9329.57194514
0.19900001 279808.24474489 11751.94683468
0.20000001 275543.55912411 9138.40257024
0.20100001 271343.07102679 9043.86498476
0.20200001 267203.77528813 9763.62641049
0.20300001 263126.59187008 11272.34372850
0.20400001 259110.77221331 9561.18794659
0.20500001 255154.72765027 9461.13774847
0.20600001 251258.17405046 10922.19334224
0.20700001 247421.25387258 9263.45218286
0.20800001 243642.44385734 9165.82917118
0.20900001 239923.97731382 8313.36620691
0.21000001 236259.70107733 12711.95381739
0.21100001 232653.75709110 8878.06779029
0.21200001 229102.73858143 8051.81612809
0.21300001 225607.04365297 9414.58237672
0.21400001 222166.50774130 7164.87021339
0.21500001 218780.91055529 7088.50183712
0.21600001 215447.18593370 8415.36748044
0.21700001 212166.79314338 10406.78169571
0.21800001 208938.47430855 12354.53256999
0.21900001 205760.76673984 8148.12674815
0.22000001 202633.28209165 9404.21106653
0.22100001 199557.36110445 6645.26043899
0.22200001 196530.03395208 8546.10893050
0.22300001 193551.03418594 9754.97258424
0.22400001 190619.42274183 9006.76815045
0.22500001 187737.21930432 7000.72123890
0.22600001 184899.49077644 9443.74193798
0.22700001 182108.96372354 6850.93953925
0.22800001 179362.81002880 6777.22409743
0.22900001 176660.86084503 7923.23998360
0.23000001 174003.40622047 7235.06197281
0.23100001 171390.04583776 7157.24865267
0.23200001 168817.66723441 7080.21329866
0.23300001 166288.16803872 6420.38647162
0.23400001 163799.03206024 6928.69938384
0.23500001 161350.12682742 8567.69213976
0.23600001 158941.77303695 5650.38029871
0.23700001 156572.66225667 6707.57316833
0.23800001 154241.64986614 6082.51975017
0.23900001 151948.82512709 7111.20535230
0.24000001 149692.73248155 9199.36730979
0.24100001 147474.43906292 7494.65134768
0.24200001 145292.18295199 5295.90031911
0.24300001 143144.53311486 7334.72622376
0.24400001 141031.99629227 6219.51133069
0.24500001 138953.04401838 5127.36756683
0.24600001 136907.97109155 5072.44056889
0.24700001 134896.44681240 5519.96286469
0.24800001 132917.10220291 4964.45400213
0.24900001 130968.23413191 4911.30901229
0.25000001 129051.94069077 8259.96985468
0.25100001 127165.54964583 6248.91540523
0.25200001 125311.00748982 5706.66355107
0.25300001 123484.35946804 4704.75431832
0.25400001 121687.80269961 5585.47040817
0.25500001 119918.08862621 5986.31126744
0.25600001 118177.74529341 5922.47798559
0.25700001 116463.77829457 4957.86327657
0.25800001 114776.86148091 6242.71379131
0.25900001 113117.19871603 7940.82772558
0.26000001 111482.57709322 5673.90602962
0.26100001 109872.92238600 5613.40787031
0.26200001 108289.55511356 5126.42778164
0.26300001 106728.98472670 6339.70199275
0.26400001 105193.45971736 5854.01631027
0.26500001 103681.25571909 6619.01167831
0.26600001 102191.77838657 4502.05900986
0.26700001 100725.29129583 4454.07259187
0.26800001 99281.21022825  4406.59672450
0.26900001 97858.05855036  4359.57671472
0.27000001 96456.96925637  3920.97598582
0.27100001 95076.52045661  4654.94666184
0.27200001 93717.26447603  4605.26659429
0.27300001 92377.86753428  4556.07664240
0.27400001 91057.04614964  4507.32399772
0.27500001 89757.65445557  4459.16048438
0.27600001 88474.91141631  4043.74601766
0.27700001 87213.13167550  5455.18164448
0.27800001 85968.42297886  3957.55653913
0.27900001 84742.25402878  4982.84477272
0.28000001 83533.29780889  4929.30013700
0.28100001 82341.96551889  3831.37183693
0.28200001 81168.02542489  3790.14112660
0.28300001 80010.80126976  4090.15235450
0.28400001 78869.29669446  3371.66259327
0.28500001 77744.70187614  5002.87180252
0.28600001 76635.72020660  4618.83507547
0.28700001 75543.09905779  3263.46203376
0.28800001 74464.22150573  3873.62898608
0.28900001 73402.29458959  3512.29996236
0.29000001 72354.27397307  3789.91705010
0.29100001 71321.55034714  4373.43767430
0.29200001 70302.83119729  4016.75245059
0.29300001 69298.63460124  3667.28391669
0.29400001 68307.62110789  3324.87361481
0.29500001 67331.64533614  3288.47771388
0.29600001 66368.04044275  3548.03561002
0.29700001 65418.10757897  4386.28432081
0.29800001 64481.77742825  4048.81099639
0.29900001 63558.69914213  4004.19823551
0.30000001 62647.34756800  3111.38066426
0.30100001 61749.86137914  3636.44950877
0.30200001 60863.79554202  3042.88560218
0.30300001 59990.87644193  3556.25932384
0.30400001 59129.86678746  3516.74899367
0.30500001 58281.38555103  3477.65044047
0.30600001 57443.52214070  3703.38404774
0.30700001 56618.35923524  2877.34515256
0.30800001 55804.52930926  3362.50207272
0.30900001 55002.33143630  3069.13023945
0.31000001 54211.60952681  3034.76604499
0.31100001 53431.55806203  2750.65673926
0.31200001 52663.60658084  2967.06773524
0.31300001 51905.82593257  2689.24096889
0.31400001 51160.38459293  2659.06111512
0.31500001 50424.27794957  3107.14415437
0.31600002 49700.27485759  4017.52190833
0.31700002 48986.12477383  3972.28504599
0.31800002 48282.41532823  3234.43915598
0.31900002 47589.89126731  2284.31488899
0.32000002 46907.79408652  2936.19350987
0.32100002 46235.61055166  3126.45213354
0.32200002 45574.69558461  2870.52233732
0.32300002 44922.34463348  3056.51647359
0.32400002 44281.45102221  2158.72083955
0.32500002 43650.14163384  3201.73804045
0.32600002 43029.07938487  2321.63408815
0.32700002 42418.08123377  2295.66666508
0.32800002 41817.81856687  2682.82227720
0.32900002 41225.44832571  2448.79174651
0.33000002 40644.29348888  2623.38604747
0.33100002 40071.89804466  2195.13867884
0.33200002 39510.54714858  2170.90711588
0.33300002 38958.13778111  2146.98307479
0.33400002 38416.06311783  2509.52944201
0.33500002 37883.05085122  2100.23643865
0.33600002 37359.14012566  2266.20554734
0.33700002 36844.90548243  2988.85887428
0.33800002 36340.86593929  2402.31305668
0.33900002 35845.36915267  1828.11391336
0.34000002 35359.41185987  1989.49740251
0.34100002 34882.84305037  1789.48993323
0.34200002 34416.28464929  2479.00510069
0.34300002 33958.20900229  2453.14113450
0.34400002 33510.15036301  2080.98043610
0.34500002 33070.67787151  2231.27874166
0.34600002 32641.13635612  1868.86835058
0.34700002 32219.53540539  2018.23179338
0.34800002 31807.79918144  2331.19371242
0.34900002 31404.61821020  1813.61678754
0.35000002 31010.85275324  1795.99362227
0.35100002 30626.68859926  1940.50708156
0.35200002 30249.88659668  2722.94367097
0.35300002 29883.19689023  1904.15739603
0.35400002 29524.66645800  1886.62627602
0.35500002 29175.43682664  1869.56208040
0.35600002 28834.31019410  1852.89286083
0.35700002 28501.98350672  1530.55658681
0.35800002 28178.62835059  2124.38689197
0.35900002 27864.35057207  1805.61000259
0.36000002 27558.24121390  1641.50671566
0.36100002 27260.08407845  1628.24489913
0.36200002 26971.95544909  2202.93456565
0.36300002 26690.72594886  1748.77644700
0.36400002 26418.53702388  1735.69796468
0.36500002 26153.73377040  1579.42405721
0.36600002 25898.19466238  2566.25223065
0.36700002 25650.19015187  1557.47961980
0.36800002 25411.27858966  1969.12007119
0.36900002 25180.05387323  1816.74097301
0.37000002 24956.33525059  1527.70213473
0.37100002 24740.35916373  1794.66573875
0.37200002 24533.08338875  1372.62608062
0.37300002 24333.34414627  1774.63087265
0.37400002 24141.10327522  2036.90568534
0.37500002 23956.77039881  1756.51048885
0.37600002 23780.21275196  1882.67953276
0.37700002 23610.98139697  1606.49125035
0.37800002 23449.19178597  1599.70393942
0.37900002 23295.57320639  1460.63250923
0.38000002 23148.45669492  1455.22779906
0.38100002 23007.90545200  1318.35304485
0.38200002 22875.81603956  1708.48040185
0.38300002 22749.87584931  1572.47149320
0.38400002 22631.38859873  1699.05157954
0.38500002 22519.09335172  1695.01223688
0.38600002 22414.75245338  1821.64701819
0.38700002 22316.00257967  1818.30797633
0.38800002 22224.09690869  1426.45372766
0.38900002 22138.72816757  1424.62722508
0.39000002 22060.23742776  1423.21628508
0.39100002 21987.35641836  1551.42794238
0.39200002 21921.39694527  1679.94633449
0.39300002 21860.83701386  1808.76574022
0.39400002 21807.67273211  1292.10467059
0.39500002 21759.11543917  1421.74067015
0.39600002 21716.55874552  1551.86536148
0.39700002 21679.24224477  1811.95115266
0.39800002 21648.70823146  1554.81029885
0.39900002 21622.60851715  1427.09222975
0.40000002 21602.25306535  1949.06337517
0.40100002 21586.91913239  1952.53692803
0.40200002 21577.21202139  1304.34252849
0.40300002 21572.21816903  1960.91472447
0.40400002 21572.27251849  1834.72186463
0.40500002 21576.59219982  1445.41597995
0.40600002 21586.69802671  1449.65477467
0.40700002 21600.65808877  1586.35240520
0.40800002 21619.07077263  1591.59606569
0.40900002 21641.58932043  1597.14936752
0.41000002 21668.89977554  1870.24282824
0.41100002 21700.06181278  1609.27666029
0.41200002 21734.32287069  1481.08550220
0.41300002 21773.91514818  1757.80825320
0.41400002 21816.46834049  1765.49778411
0.41500002 21862.63342236  2046.34258530
0.41600002 21911.37596096  1918.77928382
0.41700002 21964.86249022  1928.07572075
0.41800002 22022.02595510  1799.30971592
0.41900002 22080.46344054  1808.39004147
0.42000002 22142.55804857  1957.62364984
0.42100002 22208.15488312  1546.35389779
0.42200002 22276.22761159  1978.79739250
0.42300002 22346.53581505  1705.48769422
0.42400002 22419.25997346  1429.22789103
0.42500002 22495.06622808  2012.40872012
0.42600002 22571.69065828  2024.00359724
0.42700002 22651.85640095  1599.67417484
0.42800002 22733.17603841  1462.87994739
0.42900002 22817.27299900  2501.91410290
0.43000002 22903.05472635  1628.75081405
0.43100002 22988.92494585  2085.55536992
0.43200002 23077.72519766  2098.45765166
0.43300002 23167.11387489  1658.99710320
0.43400002 23258.42531828  2124.65725351
0.43500002 23350.23179102  1985.23680095
0.43600002 23443.90179251  1690.42261886
0.43700002 23537.83710343  2010.36676227
0.43800002 23631.99527376  1711.78365878
0.43900002 23728.02700119  1879.25982755
0.44000002 23823.91709251  1891.14262842
0.44100002 23920.72569456  1744.53860758
0.44200002 24017.66608715  2234.36358197
0.44300002 24115.06018531  2248.48831824
0.44400002 24212.35597108  1616.17483766
0.44500002 24309.19875873  2927.31385326
0.44600002 24406.04180918  1800.06769894
0.44700002 24503.58289604  1811.30493352
0.44800002 24599.92597718  1822.48560239
0.44900002 24696.36411096  2667.20745039
0.45000002 24792.66633893  2683.55833170
0.45100002 24887.42096207  2193.57738756
0.45200002 24982.10656678  1867.28764383
0.45300002 25075.56700559  2049.17543281
0.45400002 25168.43104098  2748.39279993
0.45500002 25260.68000956  2073.39671345
0.45600002 25351.33145628  2259.18400980
0.45700002 25441.31329740  2272.16379828
0.45800002 25529.60729789  1933.48490034
0.45900002 25616.59767957  2297.80892076
0.46000002 25702.80883313  2488.28904107
0.46100002 25786.62180008  1965.71427298
0.46200002 25869.63205673  2515.30444409
0.46300002 25950.81419839  1986.79442919
0.46400002 26029.81635589  3086.48562068
0.46500002 26108.18875373  2007.45872842
0.46600002 26183.62319284  2017.57918075
0.46700002 26257.32490656  2580.57001413
0.46800002 26329.72206827  2407.98484588
0.46900002 26399.30592570  2791.72673396
0.47000002 26467.03877534  2056.88601591
0.47100002 26532.85126009  2066.37855408
0.47200002 26596.55172205  2075.72797753
0.47300002 26657.89275393  3032.60202342
0.47400002 26716.32849804  2474.60004442
0.47500002 26772.92503340  3058.53910078
0.47600002 26827.79901245  1919.52911032
0.47700002 26878.98386144  2119.94555763
