# SAXS profile: number of points = 501, q_min = 0, q_max = 0.5, delta_q = 0.001
#    q    intensity    error
0.00000000 1646666.22097350 271.69992646
0.00100000 1646585.35991655 543.37318168
0.00200000 1646342.70612735 814.93966534
0.00300000 1645938.49178229 1086.31944327
0.00400000 1645372.58743515 1604.23833371
0.00500000 1644645.48367566 2368.28959023
0.00600000 1643757.09263609 2071.13402104
0.00700000 1642707.98797242 2562.62456774
0.00800000 1641497.95401430 2437.62456463
0.00900000 1640128.23872388 3936.30794121
0.01000000 1638598.24810084 3785.16211655
0.01100000 1636909.23888614 2946.43675828
0.01200000 1635061.07237847 4463.71692330
0.01300000 1633054.99748106 3429.41564596
0.01400000 1630890.90983508 3669.50470980
0.01500000 1628570.34827930 4299.42591091
0.01600000 1626092.64244106 7463.76556246
0.01700000 1623460.05565059 5260.01081627
0.01800000 1620672.50545116 5080.80853321
0.01900000 1617730.65430749 4853.19218191
0.02000000 1614635.74270021 6103.32338349
0.02100000 1611389.61637379 6381.10317015
0.02200000 1607990.95156718 6657.08284193
0.02300000 1604443.04664346 9819.19189241
0.02400000 1600745.20830941 6603.07428536
0.02500000 1596899.99306822 6850.70128314
0.02600000 1592907.55107015 7741.53105229
0.02700000 1588769.95116032 10009.25115074
0.02800000 1584486.99214433 8271.02247830
0.02900000 1580061.05584058 7821.30258552
0.03000000 1575493.78600332 8791.25572999
0.03100000 1570785.24292612 8293.74646427
0.03200000 1565936.93798420 7751.38820004
0.03300000 1560952.64268345 8756.94472915
0.03400000 1555830.74853362 8984.92298735
0.03500000 1550574.08832290 12559.65069540
0.03600000 1545184.03725204 8575.77180307
0.03700000 1539662.42853702 9653.68387339
0.03800000 1534010.69632733 8973.96298883
0.03900000 1528230.97299181 9169.38626259
0.04000000 1522322.96587582 10298.51534137
0.04100000 1516290.86653896 10507.89619233
0.04200000 1510135.16130876 10714.40946656
0.04300000 1503857.08392556 12903.09437902
0.04400000 1497459.95066103 11118.64065003
0.04500000 1490945.21162506 13373.77916969
0.04600000 1484312.76130019 11510.84599899
0.04700000 1477566.86361455 10638.48191280
0.04800000 1470707.93589880 18376.49651408
0.04900000 1463739.65954791 14271.46234489
0.05000000 1456661.66740316 13372.15472945
0.05100000 1449478.51283510 14697.71280483
0.05200000 1442188.49259763 20637.71829082
0.05300000 1434797.64952843 17432.79225445
0.05400000 1427305.77521576 11775.27319466
0.05500000 1419715.50479592 13118.17187627
0.05600000 1412027.77714365 13280.12186374
0.05700000 1404248.00123301 12216.95818100
0.05800000 1396374.93840540 16065.29441648
0.05900000 1388410.77950304 21242.68591855
0.06000000 1380359.88518492 15156.35224742
0.06100000 1372223.15018334 16590.17866100
0.06200000 1364002.78001608 24490.67105997
0.06300000 1355702.49171275 19522.11679343
0.06400000 1347320.36253596 15763.64897888
0.06500000 1338862.67354058 15905.68930570
0.06600000 1330330.56419762 16043.78735489
0.06700000 1321724.85690365 16177.91300561
0.06800000 1313049.68593724 19026.09083982
0.06900000 1304307.19002183 13695.22613642
0.07000000 1295497.94898503 24834.69684501
0.07100000 1286625.45460364 16674.66667267
0.07200000 1277691.79463316 16788.87096798
0.07300000 1268699.53309225 18307.33512032
0.07400000 1259650.90688767 17005.28803992
0.07500000 1250547.82839158 18533.11968546
0.07600000 1241391.43447912 15771.87891445
0.07700000 1232186.61180224 17299.90084087
0.07800000 1222933.75264783 14491.76564849
0.07900000 1213635.01293221 26214.51750889
0.08000000 1204294.67863468 16095.39913500
0.08100000 1194913.21477683 16167.17655447
0.08200000 1185492.40100829 17711.25730217
0.08300000 1176036.26341436 20745.28066025
0.08400000 1166545.67588130 16360.80387219
0.08500000 1157023.48894812 22388.40556217
0.08600000 1147471.40180455 19466.85324561
0.08700000 1137893.15035913 16522.20931906
0.08800000 1128288.33857028 24100.24004370
0.08900000 1118662.54246608 24163.11205220
0.09000000 1109014.63076063 18165.66050520
0.09100000 1099348.47532839 19722.31257397
0.09200000 1089665.45574247 18241.00058621
0.09300000 1079970.86401615 16750.34888803
0.09400000 1070261.09554531 19826.58772678
0.09500000 1060541.92987342 21380.52631119
0.09600000 1050814.52422542 25991.89847854
0.09700000 1041083.29710836 19895.10274306
0.09800000 1031348.10455050 16847.07207994
0.09900000 1021611.85245913 16856.59635821
0.10000000 1011875.01771335 26060.84230678
0.10100000 1002140.11958608 21465.84237111
0.10200000 992410.21244129 16866.01235375
0.10300000 982686.30288449 22994.86056919
0.10400000 972971.36313753 16856.72965938
0.10500000 963268.08191916 19910.75219006
0.10600001 953573.96971495 26018.26698792
0.10700001 943896.09702200 16820.22924045
0.10800001 934233.35918228 15274.71614148
0.10900001 924589.40617166 16781.29851184
0.11000001 914963.94539567 19804.39553027
0.11100001 905360.17023024 15210.05157586
0.11200001 895779.47498640 18220.15537898
0.11300001 886223.34651307 18185.30392663
0.11400001 876694.47669420 16635.27847853
0.11500001 867194.02098811 16598.09434328
0.11600001 857723.34427338 16558.34994095
0.11700001 848284.88709386 25524.89345475
0.11800001 838878.16468261 16471.37353932
0.11900001 829505.98446394 17917.33010836
0.12000001 820169.11028016 19351.89106863
0.12100001 810872.36678255 16322.86151227
0.12200001 801613.53247400 20705.67851927
0.12300001 792396.27737796 25055.57147117
0.12400001 783220.13767045 17622.45392791
0.12500001 774086.64543955 16093.26211701
0.12600001 764999.71380675 14573.24523476
0.12700001 755958.14071736 15965.83668436
0.12800001 746963.56130250 14453.74559240
0.12900001 738018.25152460 17269.62789963
0.13000001 729122.99488095 22923.62803956
0.13100001 720277.96498298 15687.65481681
0.13200001 711485.24537114 17032.95757712
0.13300001 702746.35261611 18362.76305953
0.13400001 694061.18585483 19676.63554665
0.13500001 685432.23811100 13982.81831673
0.13600001 676859.86945372 22255.15355699
0.13700001 668345.06848076 15218.21792690
0.13800001 659887.42532081 16510.38416009
0.13900001 651490.29758837 16417.55627345
0.14000001 643152.88713322 14962.95262482
0.14100001 634877.56402239 16227.47130175
0.14200001 626663.88648061 14786.13509890
0.14300001 618513.58985791 21375.83067374
0.14400001 610424.48830705 18587.42654572
0.14500001 602402.05673627 17150.38736430
0.14600001 594444.32308758 18350.49711939
0.14700001 586553.13294550 20834.36826512
0.14800001 578725.85625387 19401.78524626
0.14900001 570967.04286995 14131.43497776
0.15000001 563275.14139199 17861.45557630
0.15100001 555651.22094137 17736.38780934
0.15200001 548097.09893726 16352.47771842
0.15300001 540611.84971590 13736.94774951
0.15400001 533194.58922350 16115.80721980
0.15500001 525848.67459233 13535.34552278
0.15600001 518571.48854523 13433.59504476
0.15700001 511367.88521080 14543.30334179
0.15800001 504232.12678085 13228.53047047
0.15900001 497169.92551360 15511.70240819
0.16000001 490176.59428712 13021.54184189
0.16100001 483258.05065777 12917.48830384
0.16200001 476410.55278569 15142.71013512
0.16300001 469635.10025029 15018.93121502
0.16400001 462932.40846367 11457.57765038
0.16500001 456301.31318566 15906.66452863
0.16600001 449743.54947148 14645.89938002
0.16700001 443257.86244070 13404.11839308
0.16800001 436845.28497221 13288.83419631
0.16900001 430506.21995987 14271.28186553
0.17000001 424238.51547601 13058.06212295
0.17100001 418044.26511097 15099.75956884
0.17200001 411922.69429054 11758.33386379
0.17300001 405873.24032313 11652.62127997
0.17400001 399897.69155758 16795.70383861
0.17500001 393993.02424424 14561.98286379
0.17600001 388159.52395377 13397.32660201
0.17700001 382400.96257791 14294.14865628
0.17800001 376712.42759900 11126.20207465
0.17900001 371095.48966141 16031.32591059
0.18000001 365550.93995474 11909.65018628
0.18100001 360078.07071772 10813.14497443
0.18200001 354674.13260453 9735.80539989
0.18300001 349341.36258273 9641.82206276
0.18400001 344079.23107300 13367.47875868
0.18500001 338887.02872832 10400.44340301
0.18600001 333764.83325535 10298.31441662
0.18700001 328711.21928568 16685.38227924
0.18800001 323724.99242814 11930.88515963
0.18900001 318810.67390154 11811.93602614
0.19000001 313960.11358698 14391.93228683
0.19100001 309180.20140512 9794.82924332
0.19200001 304465.67316767 9695.70982016
0.19300001 299819.53037574 12214.64824468
0.19400001 295237.88656466 12089.99202612
0.19500001 290722.56867026 9401.96831509
0.19600001 286271.58405840 9305.25827955
0.19700001 281886.86327926 10046.44828204
0.19800001 277565.07750052 11599.44513692
0.19900001 273307.40109539 8199.22242036
0.20000001 269111.27129162 8925.07573420
0.20100001 264979.10406662 10437.52740249
0.20200001 260907.68111613 9533.56711857
0.20300001 256897.96743842 9433.29381020
0.20400001 252949.55973720 10889.47906139
0.20500001 249060.16678483 8465.55546916
0.20600001 245230.06912433 7614.39400623
0.20700001 241459.27905761 8286.88284897
0.20800001 237746.14902589 7453.34212428
0.20900001 234092.96281490 7373.92867724
0.21000001 230493.67693746 8024.63774192
0.21100001 226952.26683586 7938.79066921
0.21200001 223465.36593586 8567.66253501
0.21300001 220033.35866172 9181.99249104
0.21400001 216656.23190674 6987.16380932
0.21500001 213333.60928929 10368.01390163
0.21600001 210062.38044856 11623.80237168
0.21700001 206844.16745340 8792.94597417
0.21800001 203677.46360158 10036.20749349
0.21900001 200561.22064928 7942.22471323
0.22000001 197494.60408283 6546.94643490
0.22100001 194479.17772825 8419.00400194
0.22200001 191511.90747409 9609.11041187
0.22300001 188592.49011053 8237.72035755
0.22400001 185720.20565783 9402.08585602
0.22500001 182896.68624664 8680.27713973
0.22600001 180117.37333974 6132.99685224
0.22700001 177384.63541906 8493.17674550
0.22800001 174696.11074007 9001.21753155
0.22900001 172051.12321915 7122.91683812
0.23000001 169450.19330067 8220.02926576
0.23100001 166893.17381913 6969.45926829
0.23200001 164376.34702772 6319.44896035
0.23300001 161902.17880402 6819.32009374
0.23400001 159468.02093111 6745.49760442
0.23500001 157073.45959906 7228.52095263
0.23600001 154718.96923202 8250.38942452
0.23700001 152403.46979566 6528.96495485
0.23800001 150125.49356262 6458.39903854
0.23900001 147885.28490938 8518.19281369
0.24000001 145681.39365400 5793.02089266
0.24100001 143514.73896911 5209.58527100
0.24200001 141383.77565047 8760.84607259
0.24300001 139286.91379473 7137.06180044
0.24400001 137224.77379056 6051.61281043
0.24500001 135195.71112512 4988.72197651
0.24600001 133200.15126882 6909.09217315
0.24700001 131237.52351566 6346.64693745
0.24800001 129306.70056600 5312.56604407
0.24900001 127406.01133909 6688.81591173
0.25000001 125537.38873640 4726.48290953
0.25100001 123698.05914088 5143.36554241
0.25200001 121890.21655306 6013.45411814
0.25300001 120109.93370074 6406.66416670
0.25400001 118359.16425620 5885.40972109
0.25500001 116634.89788300 4926.65831967
0.25600001 114939.37765298 6203.27850542
0.25700001 113269.82954937 5698.60539425
0.25800001 111626.96804577 4336.70791377
0.25900001 110010.75947852 6006.58775173
0.26000001 108419.25469948 5093.53682678
0.26100001 106852.14087945 4619.21826878
0.26200001 105311.09850814 4985.42763927
0.26300001 103792.15097777 5343.22018516
0.26400001 102298.02470489 6506.15467909
0.26500001 100826.67579098 4022.98455442
0.26600001 99377.60556693  5174.09527868
0.26700001 97950.98516983  4331.39276917
0.26800001 96546.38997461  4674.77642379
0.26900001 95162.33290397  5010.29706449
0.27000001 93799.91913114  4194.26358243
0.27100001 92457.53698543  4903.94799378
0.27200001 91136.10854188  5598.03573210
0.27300001 89833.92755455  4430.60951666
0.27400001 88550.05879635  4748.49712768
0.27500001 87287.05423871  3975.05263815
0.27600001 86040.33876242  5362.46436715
0.27700001 84814.01523697  4597.76798359
0.27800001 83604.46878659  3498.84718431
0.27900001 82412.97141270  4499.74845210
0.28000001 81238.38198264  4109.03755516
0.28100001 80080.88886599  4064.90611123
0.28200001 78940.44731320  3686.12436175
0.28300001 77816.17031166  4309.45971583
0.28400001 76707.32940494  4263.01003345
0.28500001 75614.83540210  3568.26425152
0.28600001 74537.68082096  3529.73204235
0.28700001 73476.37918947  4126.43365060
0.28800001 72428.48299949  4081.70735264
0.28900001 71396.99315341  3416.34628410
0.29000001 70379.24427219  3993.67040526
0.29100001 69376.21165924  3646.41385741
0.29200001 68386.88216797  4508.40542033
0.29300001 67411.54522907  2972.84928532
0.29400001 66449.07830808  3822.48341061
0.29500001 65501.35686043  4071.56453518
0.29600001 64565.42704683  3451.66789332
0.29700001 63642.91193129  2844.83829800
0.29800001 62733.58766260  3657.68200182
0.29900001 61837.11042303  3339.20412092
0.30000001 60952.06374910  3852.78013197
0.30100001 60080.37835600  2993.80539521
0.30200001 59219.79386502  3229.84771030
0.30300001 58371.95899405  4258.81832982
0.30400001 57535.68870325  3685.16103590
0.30500001 56711.65252041  2863.37147131
0.30600001 55897.80905879  3088.91307483
0.30700001 55096.35426941  2799.99685653
0.30800001 54305.81408953  2768.78206244
0.30900001 53526.54567913  2986.78139030
0.31000001 52758.40874124  2953.41586116
0.31100001 52000.66121084  2920.35727187
0.31200001 51254.65328225  3609.60912830
0.31300001 50518.48150465  2617.36265068
0.31400001 49794.28461046  2588.05806516
0.31500001 49079.26950046  3489.53622670
0.31600002 48375.82338416  2760.32461300
0.31700002 47681.97538691  2956.75943374
0.31800002 46998.16369170  2473.74846304
0.31900002 46325.20007795  3780.13650535
0.32000002 45662.42928711  3078.10450399
0.32100002 45009.34254793  2608.74161760
0.32200002 44367.04435963  2149.58340101
0.32300002 43733.05180188  2125.42641821
0.32400002 43110.15250145  2101.62003396
0.32500002 42496.73230970  2493.70837001
0.32600002 41893.18661120  2465.83308070
0.32700002 41299.34769160  2438.31360317
0.32800002 40715.99232230  4018.66863251
0.32900002 40140.22209218  1986.94108765
0.33000002 39575.47155988  2750.89115839
0.33100002 39019.09908809  2331.78147192
0.33200002 38473.54555242  2498.27979875
0.33300002 37936.66019865  2660.87747234
0.33400002 37409.88268995  3195.73938013
0.33500002 36891.84966799  2045.28424245
0.33600002 36382.63127993  2942.62735727
0.33700002 35882.82631400  2001.18531830
0.33800002 35392.96922510  1799.73257033
0.33900002 34911.49612526  1958.53502538
0.34000002 34439.24286301  2642.35103380
0.34100002 33976.07854256  2614.45936767
0.34200002 33522.80349342  2069.69798570
0.34300002 33077.80651242  2389.54085562
0.34400002 32642.49094000  1858.17388476
0.34500002 32215.53322937  1839.18487917
0.34600002 31798.20213027  1986.11579912
0.34700002 31388.66266292  1966.18592233
0.34800002 30988.83020774  2433.39800731
0.34900002 30597.32456701  1766.99557743
0.35000002 30214.95647652  1749.89928722
0.35100002 29842.01074662  1733.22406625
0.35200002 29476.16188805  2028.99169966
0.35300002 29120.32267500  1700.91812801
0.35400002 28772.49014811  1532.13517295
0.35500002 28433.72394930  1822.03311697
0.35600002 28102.77511038  1655.39404628
0.35700002 27780.50179734  2088.53822405
0.35800002 27466.94635915  1774.91415780
0.35900002 27162.35988777  1613.44425376
0.36000002 26865.70224630  2036.68898376
0.36100002 26576.86614907  1443.12390025
0.36200002 26297.83997307  1718.30094523
0.36300002 26025.57289326  1847.29525146
0.36400002 25762.22892740  2256.77136094
0.36500002 25506.01523101  1960.39242351
0.36600002 25258.96309306  2085.75897621
0.36700002 25019.26404334  1381.06344061
0.36800002 24788.49304516  1920.86041706
0.36900002 24565.32581332  1636.05077667
0.37000002 24349.47298496  1626.05788296
0.37100002 24141.21061999  1616.49553969
0.37200002 23941.53139809  1607.43449421
0.37300002 23749.24363775  1732.03242055
0.37400002 23564.25101394  1855.68485525
0.37500002 23387.16767604  1714.74721524
0.37600002 23217.62744692  1444.25258375
0.37700002 23055.24929212  1568.67923615
0.37800002 22900.32340883  1952.82517120
0.37900002 22753.35583459  1556.32961281
0.38000002 22612.81121036  1809.25111065
0.38100002 22478.69587834  1416.83226833
0.38200002 22352.94735178  1412.59457482
0.38300002 22233.10036321  1664.81463407
0.38400002 22120.77747783  1532.96995184
0.38500002 22014.51010637  1274.64019554
0.38600002 21916.03188062  1653.89342422
0.38700002 21823.12179072  1651.13747291
0.38800002 21736.95491641  1522.02165535
0.38900002 21657.16552411  2153.80521341
0.39000002 21584.21620414  2025.46294455
0.39100002 21516.81503723  1265.18878413
0.39200002 21456.04291441  1770.76730562
0.39300002 21400.84297028  1644.22684330
0.39400002 21352.75864222  1644.69631234
0.39500002 21309.34628669  1898.66284410
0.39600002 21271.88494550  1520.08897022
0.39700002 21239.47321603  1521.59593329
0.39800002 21213.77866833  1777.50259883
0.39900002 21192.49480354  2034.47959753
0.40000002 21176.93406914  1528.55117353
0.40100002 21166.22535449  1914.48517402
0.40200002 21161.17359226  1279.19300426
0.40300002 21160.69042670  1410.57169068
0.40400002 21165.21897125  1414.36582477
0.40500002 21173.99764376  1418.44616936
0.40600002 21188.46211222  1810.97794254
0.40700002 21206.77246275  1297.85453621
0.40800002 21229.47027521  1562.91367571
0.40900002 21256.13875615  1699.42837408
0.41000002 21287.63050503  1443.62073110
0.41100002 21322.88304750  1713.08050521
0.41200002 21361.25565717  1587.99582080
0.41300002 21404.89003509  1595.09248099
0.41400002 21451.41851963  1468.88595273
0.41500002 21501.54816796  1744.20567003
0.41600002 21554.29145109  1483.04309356
0.41700002 21611.72292763  1761.57161930
0.41800002 21672.63670748  1906.97539425
0.41900002 21734.92838043  1369.30055285
0.42000002 21800.77621783  1789.73480841
0.42100002 21870.13342503  1522.81746254
0.42200002 21942.00452263  1531.44227822
0.42300002 22016.00313753  1680.26143908
0.42400002 22092.49166487  1549.23605141
0.42500002 22171.86285211  1700.13852406
0.42600002 22252.11914332  1852.82278827
0.42700002 22335.91544803  1577.36242369
0.42800002 22420.84777505  3029.84140766
0.42900002 22508.58450406  1887.34490010
0.43000002 22597.84045917  1607.04550041
0.43100002 22687.29650292  2058.19163628
0.43200002 22779.62691195  1479.53683804
0.43300002 22872.53220772  1786.80230074
0.43400002 22967.32658339  1798.34175670
0.43500002 23062.64158035  1960.78588008
0.43600002 23159.76244558  1973.55925032
0.43700002 23257.17751379  1833.59596208
0.43800002 23354.78498658  1691.70393067
0.43900002 23454.30842217  1702.78287214
0.44000002 23553.63499455  1869.68763447
0.44100002 23653.88309731  2038.72828077
0.44200002 23754.31856709  1894.16945231
0.44300002 23855.17366066  1747.63010520
0.44400002 23955.87141954  2238.67629025
0.44500002 24056.16389281  1609.35744070
0.44600002 24156.43086196  1943.62651926
0.44700002 24257.38080632  2445.14410116
0.44800002 24357.15115802  2132.59047071
0.44900002 24456.98158903  1981.01560260
0.45000002 24556.71253729  2491.89252282
0.45100002 24654.87170480  2005.92045697
0.45200002 24752.94956440  2018.35560314
0.45300002 24849.90411210  2030.73426028
0.45400002 24946.13788046  2043.08878924
0.45500002 25041.79429554  2055.43057319
0.45600002 25135.87473557  1723.06429479
0.45700002 25229.28265212  1906.57698038
0.45800002 25320.97616498  2092.01914990
0.45900002 25411.48308304  3857.46331483
0.46000002 25501.09645693  1763.40090357
0.46100002 25588.38683652  1773.27529181
0.46200002 25674.81352815  1961.42747244
0.46300002 25759.45619422  1972.14405970
0.46400002 25841.90068105  2162.96718952
0.46500002 25923.73272757  2355.68970460
0.46600002 26002.60619899  2914.37224091
0.46700002 26079.80632469  3478.52473246
0.46800002 26155.64435846  2024.05463461
0.46900002 26228.76081828  2403.86604293
0.47000002 26299.98695691  2229.71299989
0.47100002 26369.24951604  1866.94295422
0.47200002 26436.43882419  2063.23196582
0.47300002 26501.24560937  2261.08638256
0.47400002 26563.21124830  2081.89178026
0.47500002 26623.28903982  2471.17380580
0.47600002 26681.67594987  2290.88880564
0.47700002 26736.37052648  2875.49678642
