# SAXS profile: number of points = 501, q_min = 0, q_max = 0.5, delta_q = 0.001
#    q    intensity    error
0.00000000 1682732.95097188 277.65093691
0.00100000 1682651.11469557 706.71348496
0.00200000 1682405.55155365 1135.62378326
0.00300000 1681996.47140704 1412.87708631
0.00400000 1681423.74750100 1639.38821611
0.00500000 1680687.89531072 1663.88108222
0.00600000 1679788.82451071 1940.15617130
0.00700000 1678727.08404746 2820.26161841
0.00800000 1677502.46857966 2491.09127101
0.00900000 1676116.26619038 3017.00940811
0.01000000 1674567.83054823 3315.64444765
0.01100000 1672858.45090030 4516.71801409
0.01200000 1670988.00056025 3910.11209275
0.01300000 1668957.71417576 4906.73589609
0.01400000 1666767.49690365 4125.24973771
0.01500000 1664418.83058398 5991.90805692
0.01600000 1661911.15699351 5085.44836774
0.01700000 1659246.71025576 4927.96295052
0.01800000 1656425.38510650 6609.13758397
0.01900000 1653447.90406350 7440.51590402
0.02000000 1650315.39000953 5718.34308506
0.02100000 1647029.85184174 5978.71863325
0.02200000 1643589.89629419 6237.42393982
0.02300000 1639998.71069791 6494.39518998
0.02400000 1636255.82224248 7976.74749715
0.02500000 1632363.76537317 7002.84087328
0.02600000 1628322.53219855 11211.00114696
0.02700000 1624134.26111184 6821.36420910
0.02800000 1619798.84581023 10569.18795361
0.02900000 1615318.69766046 7268.93447322
0.03000000 1610695.31922294 8238.70693652
0.03100000 1605928.90693561 8479.30501878
0.03200000 1601020.95115173 12680.08651714
0.03300000 1595975.25290900 10581.31641459
0.03400000 1590789.87312343 10021.97666310
0.03500000 1585468.16639773 13698.44559024
0.03600000 1580011.38164136 9645.96993070
0.03700000 1574421.26391337 13461.30242901
0.03800000 1568699.17226659 11929.95775720
0.03900000 1562847.45916809 13127.91926497
0.04000000 1556865.59028319 10532.19620632
0.04100000 1550758.09096517 10746.75406868
0.04200000 1544525.27946216 13947.06392059
0.04300000 1538168.35215461 16243.05855272
0.04400000 1531690.79521046 16542.26135653
0.04500000 1525093.79761174 10523.14769248
0.04600000 1518377.54534930 12845.47463080
0.04700000 1511546.28023860 11971.44709626
0.04800000 1504600.19342136 13270.57432343
0.04900000 1497543.26894270 16847.36255981
0.05000000 1490375.17461346 14821.78180172
0.05100000 1483100.20196683 15038.63674850
0.05200000 1475716.63358738 16424.72689724
0.05300000 1468230.80176316 13081.93705356
0.05400000 1460642.51159280 16870.42179563
0.05500000 1452954.22402749 14645.77926141
0.05600000 1445167.08769793 12356.17917641
0.05700000 1437286.26014627 12504.39104696
0.05800000 1429310.39808667 22768.91570466
0.05900000 1421242.66205568 14070.30301152
0.06000000 1413086.19512361 15515.68714733
0.06100000 1404842.69074402 13065.03763447
0.06200000 1396514.24818679 17156.17834091
0.06300000 1388104.00106981 14658.37893665
0.06400000 1379610.82034800 18831.68857845
0.06500000 1371040.94047048 14930.63654015
0.06600000 1362394.88288043 16430.48305630
0.06700000 1353674.45948548 17949.72417281
0.06800000 1344882.91664201 16703.44660657
0.06900000 1336022.62712267 14028.23824157
0.07000000 1327094.42592071 14133.55629791
0.07100000 1318101.67303261 15659.04860906
0.07200000 1309046.44304033 17200.87106736
0.07300000 1299931.74166197 14429.24300854
0.07400000 1290759.13801087 15973.14508145
0.07500000 1281530.97545045 18992.28994639
0.07600000 1272248.27638058 17633.36193730
0.07700000 1262916.14729867 14776.11961622
0.07800000 1253534.81054633 19310.70466207
0.07900000 1244106.38759268 16422.20508649
0.08000000 1234635.18997886 22501.22739292
0.08100000 1225121.98261822 16575.90120254
0.08200000 1215568.49362384 21187.35983808
0.08300000 1205978.28179625 21273.45788929
0.08400000 1196352.71250620 18304.19736052
0.08500000 1186694.38901631 21431.70167175
0.08600000 1177005.53785163 15359.92299014
0.08700000 1167289.51103672 20030.68894999
0.08800000 1157545.83304693 20089.20887599
0.08900000 1147780.06718384 17044.53479826
0.09000000 1137991.68531599 21747.02212797
0.09100000 1128184.13746044 23353.41274260
0.09200000 1118358.76795751 17161.21610066
0.09300000 1108520.71551684 23445.21423492
0.09400000 1098666.66689812 15656.00073909
0.09500000 1088802.70315784 23518.13949362
0.09600000 1078929.74595314 18838.11424988
0.09700000 1069052.21341580 23572.60241403
0.09800000 1059170.00029139 20447.27781701
0.09900000 1049285.62623029 22034.99918698
0.10000000 1039400.21560839 18896.29680840
0.10100000 1029516.08153262 20477.07582476
0.10200000 1019636.18254153 17328.71773737
0.10300000 1009761.64574042 18902.73889746
0.10400000 999895.53197910 17323.19090651
0.10500000 990040.53418095 18889.97428093
0.10600001 980193.73171455 25171.37621483
0.10700001 970363.34999939 17291.87571070
0.10800001 960547.00030282 23557.41629108
0.10900001 950748.90860412 18824.82927636
0.11000001 940969.10484500 18800.56359974
0.11100001 931210.46434469 15644.33653742
0.11200001 921474.17951152 17180.88688582
0.11300001 911762.27286929 23386.70340016
0.11400001 902076.94645355 17116.91086490
0.11500001 892420.04100401 23292.16416699
0.11600001 882792.08372115 21690.20251845
0.11700001 873196.43838494 29365.59760586
0.11800001 863631.77045144 23123.74174293
0.11900001 854101.39606721 21523.35619468
0.12000001 844606.08996234 18395.52150590
0.12100001 835150.98359943 15283.26371984
0.12200001 825732.97382179 16758.25149322
0.12300001 816356.82183871 16702.66136176
0.12400001 807020.92141691 19671.13588639
0.12500001 797727.94866352 19600.17662223
0.12600001 788481.18971653 22530.85105788
0.12700001 779279.76843378 16458.38948495
0.12800001 770125.21624827 17882.30836406
0.12900001 761019.51888908 22259.82197666
0.13000001 751963.96550521 17731.31114238
0.13100001 742958.24346757 19123.74608830
0.13200001 734005.49931634 16107.75144182
0.13300001 725106.06177513 26234.33855179
0.13400001 716259.97988139 14504.26527641
0.13500001 707470.63366598 17318.88192870
0.13600001 698737.79910910 20102.68742823
0.13700001 690062.43429889 17141.15167625
0.13800001 681444.17036740 18470.54510880
0.13900001 672886.97180675 18369.81519661
0.14000001 664389.01879753 22482.92545642
0.14100001 655953.62850742 18163.35683001
0.14200001 647579.49925952 22224.92946283
0.14300001 639269.60563162 19331.51378612
0.14400001 631020.38343283 13724.69398706
0.14500001 622838.54342494 13640.16474444
0.14600001 614720.95732535 18976.43684783
0.14700001 606670.57995997 18855.32251468
0.14800001 598684.61138024 17394.78220432
0.14900001 590766.93308883 18609.15927029
0.15000001 582916.33454839 14523.36116053
0.15100001 575134.40097422 13113.06496095
0.15200001 567422.20702339 16929.04234537
0.15300001 559779.47785609 18103.26916814
0.15400001 552204.71128109 14122.63615748
0.15500001 544701.97752453 12746.02687560
0.15600001 537267.92894574 13917.92635619
0.15700001 529907.95564400 16326.46488395
0.15800001 522616.15482833 13710.83546906
0.15900001 515398.39543850 16080.43069669
0.16000001 508250.13310937 18411.36194095
0.16100001 501176.70089242 17050.03216919
0.16200001 494174.90640277 14499.09243830
0.16300001 487245.46446048 13184.86289073
0.16400001 480389.68926046 14267.57444460
0.16500001 473605.85651636 15330.62229921
0.16600001 466895.96711175 12865.31898118
0.16700001 460258.20123279 11598.50721869
0.16800001 453693.97464332 13801.37136030
0.16900001 447204.38915845 18245.93993920
0.17000001 440786.56772786 13567.41119531
0.17100001 434442.74139565 11208.62325729
0.17200001 428171.77784538 14444.37560772
0.17300001 421974.24002892 13216.23382184
0.17400001 415850.40992994 14190.89590904
0.17500001 409798.63744777 15146.15835539
0.17600001 403818.48823085 10721.38136889
0.17700001 397914.05438779 12749.16690474
0.17800001 392080.01395297 13685.55353343
0.17900001 386317.99324682 10430.58631034
0.18000001 380629.87426755 12400.92188939
0.18100001 375013.62685453 11261.65974640
0.18200001 369466.76920206 13184.42228178
0.18300001 363992.30577543 10046.18811398
0.18400001 358588.55257595 12936.08264529
0.18500001 353255.94299048 12812.59365756
0.18600001 347993.98819772 12689.60137913
0.18700001 342801.00421492 11600.38653069
0.18800001 337676.32484903 12445.06154029
0.18900001 332624.37573441 13271.71321886
0.19000001 327637.22474559 14080.21039871
0.19100001 322721.13456040 10223.80602595
0.19200001 317871.14685704 12883.31819087
0.19300001 313090.73083924 10022.03476773
0.19400001 308375.34195702 11725.97293201
0.19500001 303727.20585615 12501.41238379
0.19600001 299144.00172348 9723.67623553
0.19700001 294628.12695048 14000.72925433
0.19800001 290175.97246923 11260.27914382
0.19900001 285788.58434700 8573.65793560
0.20000001 281463.76448119 9334.74619019
0.20100001 277203.71651269 9239.20030803
0.20200001 273005.11091019 11638.20842816
0.20300001 268869.27615130 10695.62031082
0.20400001 264795.21909233 9770.94404634
0.20500001 260781.45589524 9669.77684166
0.20600001 256827.81805387 8771.95454026
0.20700001 252934.18787605 7891.54703476
0.20800001 249099.28508342 9371.11554781
0.20900001 245325.06828882 10046.06202132
0.21000001 241605.63313319 9176.18238018
0.21100001 237945.10384352 9079.98559191
0.21200001 234339.89713481 9733.30808763
0.21300001 230790.50687111 11112.56343120
0.21400001 227296.83123545 9529.42010006
0.21500001 223858.58353551 7978.32029440
0.21600001 220472.70866932 8611.66440777
0.21700001 217140.84598019 9940.70839897
0.21800001 213861.43852120 10538.02288138
0.21900001 210632.93563695 8341.06464560
0.22000001 207455.32758212 7564.85887797
0.22100001 204329.81194565 7484.60136547
0.22200001 201253.47330843 8751.50770063
0.22300001 198225.83588105 7326.42724060
0.22400001 195246.00209524 6589.55288231
0.22500001 192316.26461954 9779.28251834
0.22600001 189431.42030313 8385.18221624
0.22700001 186594.38011261 8934.13934228
0.22800001 183801.89470924 6944.95492002
0.22900001 181054.47694037 6871.01772482
0.23000001 178351.86473054 11123.80632931
0.23100001 175693.89170247 6725.56249244
0.23200001 173077.43611417 6653.96234610
0.23300001 170504.23173198 7181.63858020
0.23400001 167971.88857226 7697.31215787
0.23500001 165480.37288729 6443.80602500
0.23600001 163029.79886356 6375.28058609
0.23700001 160618.82807206 6880.91092006
0.23800001 158246.55723399 5673.13934517
0.23900001 155913.00645316 6174.15534758
0.24000001 153616.68566510 5553.24344946
0.24100001 151358.45156323 6593.17446196
0.24200001 149136.81445595 6523.24457287
0.24300001 146950.26355505 5378.37990053
0.24400001 144799.16501363 5853.50652257
0.24500001 142682.21179387 6844.46602353
0.24600001 140599.51536624 7813.81843611
0.24700001 138550.97184061 6700.32531518
0.24800001 136534.91260800 5099.57922715
0.24900001 134549.80358779 5550.17966056
0.25000001 132597.66489122 6989.22324706
0.25100001 130675.90775191 5433.50450138
0.25200001 128786.52159964 5864.93847112
0.25300001 126925.34686816 7253.78391670
0.25400001 125094.60019441 5263.35555220
0.25500001 123291.18014522 5207.81969573
0.25600001 121517.70088537 5621.40910892
0.25700001 119770.92848369 5098.64866678
0.25800001 118051.48384270 5962.19047357
0.25900001 116359.87894921 5445.64259248
0.26000001 114693.64311418 4939.28197442
0.26100001 113052.76123474 5331.56847210
0.26200001 111438.46337602 5715.12186466
0.26300001 109847.55476621 4784.95971203
0.26400001 108281.88944213 4734.62583989
0.26500001 106740.04654346 4684.82086447
0.26600001 105221.27049281 4214.11208265
0.26700001 103725.74374961 4586.75260565
0.26800001 102253.17339887 4538.50731607
0.26900001 100801.76775264 4082.47178717
0.27000001 99372.71806005  6059.25177045
0.27100001 97964.77387592  4796.35555594
0.27200001 96578.42895858  5536.84159422
0.27300001 95212.24954854  4695.86836996
0.27400001 93864.76997662  5807.88291716
0.27500001 92539.27901774  4980.46423244
0.27600001 91230.85558402  4927.83489759
0.27700001 89943.50816597  4500.77336163
0.27800001 88673.58738902  4453.18776943
0.27900001 87422.57387303  4406.09793173
0.28000001 86189.02572968  3996.15436709
0.28100001 84973.38452157  3953.81176892
0.28200001 83775.51135490  4978.77887547
0.28300001 82594.66956906  3870.38639919
0.28400001 81429.80532518  4177.34921090
0.28500001 80282.09490412  4477.33264472
0.28600001 79150.33163942  3748.16413219
0.28700001 78035.12814557  4045.34123454
0.28800001 76934.01708330  5002.63469763
0.28900001 75850.17218746  3959.37917560
0.29000001 74780.35743257  4569.82785901
0.29100001 73726.20380963  5166.73260754
0.29200001 72686.29075431  4152.93141883
0.29300001 71661.05433767  4424.35370424
0.29400001 70649.29235171  4064.10073491
0.29500001 69652.91926446  3711.10771408
0.29600001 68669.03507507  3365.12622315
0.29700001 67698.95664730  4236.60090754
0.29800001 66742.92606212  3592.10445071
0.29900001 65800.27046317  2961.01231101
0.30000001 64869.42130738  2928.85451068
0.30100001 63952.79505178  4055.88645419
0.30200001 63047.76233331  3438.62512045
0.30300001 62156.05448966  3117.74784080
0.30400001 61276.50970785  2803.40045185
0.30500001 60409.69549450  3881.92721626
0.30600001 59553.53686535  3016.68455273
0.30700001 58710.39898712  2983.66261778
0.30800001 57878.77443914  2950.94945449
0.30900001 57058.94426006  3183.88924045
0.31000001 56250.85653201  3148.92309775
0.31100001 55453.37247120  2854.73974998
0.31200001 54668.24765760  2566.67434905
0.31300001 53893.47184162  2792.22090832
0.31400001 53131.16993343  2761.49268804
0.31500001 52378.22345323  3724.09186385
0.31600002 51637.72333912  2455.37386103
0.31700002 50907.21929240  2671.10192274
0.31800002 50187.20132982  4322.62385521
0.31900002 49478.44459981  3562.44817986
0.32000002 48780.39862527  3053.40919653
0.32100002 48092.30100486  3019.71572308
0.32200002 47415.65083730  3445.93258777
0.32300002 46747.65166065  2726.32317394
0.32400002 46091.33360714  2921.03840567
0.32500002 45444.45289010  2444.45723671
0.32600002 44807.98079373  2197.83156200
0.32700002 44181.81227050  3477.99242663
0.32800002 43566.44077539  2365.00434948
0.32900002 42959.02488717  2977.06056565
0.33000002 42362.95064605  2944.64883885
0.33100002 41775.57741047  2704.55100963
0.33200002 41199.52279256  2263.70788703
0.33300002 40632.41094454  2239.25227319
0.33400002 40075.61194983  2215.17955543
0.33500002 39528.19241250  2191.44309113
0.33600002 38989.80322515  2759.30850491
0.33700002 38461.09122710  2144.97515931
0.33800002 37942.70436456  1929.38660831
0.33900002 37432.95895493  1909.08099711
0.34000002 36932.75044146  3211.48746673
0.34100002 36442.17105277  2617.27684896
0.34200002 35961.46320215  2220.26084325
0.34300002 35489.30886990  2563.74779418
0.34400002 35027.17681570  1993.92213467
0.34500002 34573.79680617  2871.00822276
0.34600002 34130.40132919  2131.78496798
0.34700002 33694.85577386  1934.75871017
0.34800002 33269.41681100  2089.98486305
0.34900002 32852.39657932  2069.70108252
0.35000002 32444.88107255  1708.22306937
0.35100002 32047.02162029  1861.29110386
0.35200002 31656.46205697  2346.69364343
0.35300002 31276.19549948  1660.76605968
0.35400002 30903.94801824  2962.14355785
0.35500002 30541.10251617  2120.16343709
0.35600002 30186.52188083  1778.13715561
0.35700002 29840.57097634  1762.68261106
0.35800002 29503.73871936  2700.91988899
0.35900002 29175.93725379  1890.60082359
0.36000002 28856.37027434  2500.11603899
0.36100002 28544.75428218  1549.98023094
0.36200002 28243.19093837  1691.62600138
0.36300002 27948.47538384  1678.58551106
0.36400002 27662.81381459  2120.35477932
0.36500002 27384.70008114  2104.78814794
0.36600002 27115.75563965  1791.26690240
0.36700002 26854.36412093  1630.59706666
0.36800002 26602.05140317  1914.15069939
0.36900002 26357.42430238  1609.12082988
0.37000002 26120.27649086  2471.10887447
0.37100002 25891.00805619  2167.07747696
0.37200002 25670.39083766  2010.76180956
0.37300002 25457.24760970  1713.78199027
0.37400002 25251.69205750  1420.40774552
0.37500002 25053.98857425  1554.34952478
0.37600002 24864.08639808  2952.73472008
0.37700002 24681.55816833  2239.11106310
0.37800002 24506.42687505  1671.82852061
0.37900002 24339.47658211  2497.23041562
0.38000002 24179.02731133  1520.01462393
0.38100002 24025.13483744  1514.30432054
0.38200002 23879.69750224  2606.58850434
0.38300002 23740.52536034  1367.45432554
0.38400002 23608.71233756  2045.10480313
0.38500002 23483.05034678  1631.60241539
0.38600002 23365.38219720  2305.81285137
0.38700002 23253.43129505  1488.68474204
0.38800002 23148.12589836  1890.97049422
0.38900002 23049.46349125  1752.91178155
0.39000002 22957.65825517  1885.05340864
0.39100002 22871.45179037  1882.77800058
0.39200002 22792.30488734  1477.96708044
0.39300002 22718.39728083  1745.45454578
0.39400002 22651.97938268  1476.34282621
0.39500002 22590.08145070  1341.85090175
0.39600002 22534.28290839  1476.10827185
0.39700002 22483.72984907  1744.96235626
0.39800002 22439.93814620  1611.63643402
0.39900002 22400.56615015  2016.05104903
0.40000002 22366.99254075  1345.37466507
0.40100002 22338.36795367  1616.40438171
0.40200002 22315.44657637  1753.65945229
0.40300002 22297.26925201  2026.82187104
0.40400002 22284.17045487  1353.76341927
0.40500002 22275.30906582  2034.84957957
0.40600002 22272.21069923  2175.54964418
0.40700002 22273.04216169  1772.04331835
0.40800002 22278.29015643  1503.45048244
0.40900002 22287.75837112  1781.90636620
0.41000002 22301.95823484  1512.40736936
0.41100002 22320.10608438  1379.38262137
0.41200002 22341.22607639  1799.25072731
0.41300002 22367.90771921  1527.95184870
0.41400002 22397.38695039  1673.08488447
0.41500002 22430.56125952  2099.50063337
0.41600002 22466.34368360  1545.79685040
0.41700002 22506.92573136  1411.18431022
0.41800002 22551.25998917  1700.81610897
0.41900002 22596.74874187  1708.31428583
0.42000002 22646.02236889  1430.09638036
0.42100002 22698.93748318  1867.89565400
0.42200002 22754.17724949  2021.25366085
0.42300002 22811.75874345  1740.99350980
0.42400002 22871.81864782  1603.88635868
0.42500002 22935.01975442  1465.54783175
0.42600002 22999.09300491  2062.32876748
0.42700002 23066.60290565  1925.13876973
0.42800002 23135.41244763  2084.26940617
0.42900002 23207.04832588  1796.22562554
0.43000002 23280.39427491  1655.58531731
0.43100002 23353.91120267  1816.00022118
0.43200002 23430.37970443  1521.80323392
0.43300002 23507.51252746  1836.40696567
0.43400002 23586.63153062  2154.63889243
0.43500002 23666.30704709  1702.55420965
0.43600002 23747.87221407  1556.67309740
0.43700002 23829.70190967  1722.17263862
0.43800002 23911.94673765  2204.44247421
0.43900002 23996.07877701  1742.11540177
0.44000002 24080.07082711  1752.18643677
0.44100002 24165.08781400  2243.00355719
0.44200002 24250.35220892  1772.57957871
0.44300002 24336.02278632  1782.85711382
0.44400002 24421.76071547  1793.16786551
0.44500002 24507.10782029  1803.47814996
0.44600002 24592.45263268  1978.70883260
0.44700002 24678.75163127  1824.25340704
0.44800002 24763.70876429  2334.97021004
0.44900002 24848.96712712  2683.68857691
0.45000002 24934.20767394  1855.47915199
0.45100002 25017.93547771  2035.45932693
0.45200002 25101.64322263  1705.65673781
0.45300002 25184.15301819  2058.04908218
0.45400002 25266.29052655  1896.86685118
0.45500002 25347.86033751  1907.17310218
0.45600002 25427.87146142  2091.69680555
0.45700002 25507.34817234  2102.82588299
0.45800002 25585.18337524  2994.61793008
0.45900002 25661.87969087  1770.66978259
0.46000002 25737.76116833  1957.74289605
0.46100002 25811.47416415  2683.10286653
0.46200002 25884.35412563  2516.73587092
0.46300002 25955.67372746  1806.51497705
0.46400002 26024.84742454  3811.98970718
0.46500002 26093.48204594  1823.93448146
0.46600002 26159.25393747  2015.70140769
0.46700002 26223.40755535  1840.88329764
0.46800002 26286.39906788  2588.94756690
0.46900002 26346.60911884  2600.41044328
0.47000002 26405.14983550  2798.28588645
0.47100002 26461.82973442  2060.84739739
0.47200002 26516.54094412  1881.34866916
0.47300002 26569.03260725  2266.86996949
0.47400002 26618.65823027  1896.57948880
0.47500002 26666.59082772  2665.59254548
0.47600002 26712.91418086  2675.83274033
0.47700002 26755.69408997  3644.92837864
