# SAXS profile: number of points = 501, q_min = 0, q_max = 0.5, delta_q = 0.001
#    q    intensity    error
0.00000000 1682732.95097188 252.40994265
0.00100000 1682651.10967564 807.67255183
0.00200000 1682405.52766639 984.20726485
0.00300000 1681996.41857322 1211.03746451
0.00400000 1681423.64508365 2269.92200712
0.00500000 1680687.75251767 1966.40474828
0.00600000 1679788.60576232 2116.53372943
0.00700000 1678726.78576503 3626.05000795
0.00800000 1677502.08459297 2491.09070079
0.00900000 1676115.78357204 2765.59116112
0.01000000 1674567.21346075 3315.64322582
0.01100000 1672857.72266522 3312.25843509
0.01200000 1670987.12308888 4235.95254275
0.01300000 1668956.66991012 5607.69465822
0.01400000 1666766.32184254 3750.22439040
0.01500000 1664417.47336673 5592.44295954
0.01600000 1661909.60607237 4661.65665343
0.01700000 1659244.98597678 5375.95399572
0.01800000 1656423.41392476 8969.53319001
0.01900000 1653445.73060930 5456.37115722
0.02000000 1650312.97390549 6758.03193385
0.02100000 1647027.18122888 8152.78491672
0.02200000 1643586.97481997 8505.56298112
0.02300000 1639995.54300694 7084.78106828
0.02400000 1636252.36110787 6135.94663394
0.02500000 1632360.06942994 8276.06592998
0.02600000 1628318.52215927 9232.56644292
0.02700000 1624129.92645472 6821.34600354
0.02800000 1619794.15625507 10569.15735426
0.02900000 1615313.67248054 7995.80304590
0.03000000 1610689.91883632 8238.67931354
0.03100000 1605923.20772080 9250.11810210
0.03200000 1601014.87598473 11095.03360159
0.03300000 1595968.74623783 10581.27327536
0.03400000 1590783.04015128 9186.77248075
0.03500000 1585460.85883188 10273.78683965
0.03600000 1580003.75557204 11399.72762328
0.03700000 1574413.13061216 9871.57078547
0.03800000 1568690.63386474 9176.84063281
0.03900000 1562838.48864697 9377.03136613
0.04000000 1556856.24778503 10532.13300431
0.04100000 1550748.21130497 14654.57127631
0.04200000 1544514.94149035 11954.54620174
0.04300000 1538157.54767033 11167.02431444
0.04400000 1531679.42772346 16542.13858766
0.04500000 1525082.00625342 12627.67959852
0.04600000 1518365.19327505 11774.92262123
0.04700000 1511533.39418644 15236.25732201
0.04800000 1504586.79454454 12164.58479989
0.04900000 1497529.36328338 12354.61782216
0.05000000 1490360.70514186 12541.38591777
0.05100000 1483085.18580048 13881.67798576
0.05200000 1475701.04809540 14078.18865489
0.05300000 1468214.64344320 14271.04699955
0.05400000 1460625.71686604 18075.24408914
0.05500000 1452936.87942630 20747.93960608
0.05600000 1445149.20507468 12356.02627997
0.05700000 1437267.71728314 15005.07566885
0.05800000 1429291.31027874 20238.76589854
0.05900000 1421222.90100436 17907.40938904
0.06000000 1413065.83391265 16808.41887966
0.06100000 1404821.74202325 18290.77993590
0.06200000 1396492.55634346 15836.22632918
0.06300000 1388081.71169160 15990.70206634
0.06400000 1379587.86493262 13450.98231215
0.06500000 1371017.32689971 19002.30103972
0.06600000 1362370.59602999 19168.55518301
0.06700000 1353649.47325407 16568.67032803
0.06800000 1344857.22119071 15311.20017996
0.06900000 1335996.37624077 15430.75886803
0.07000000 1327067.40220497 15546.59534485
0.07100000 1318073.93092789 18505.75885700
0.07200000 1309017.97076512 15767.12219651
0.07300000 1299902.58658795 20200.48714208
0.07400000 1290729.23431410 20328.98639315
0.07500000 1281500.43195667 14609.10560907
0.07600000 1272216.93881611 14694.10633219
0.07700000 1262884.08684309 19208.46786154
0.07800000 1253502.02185505 19310.19955225
0.07900000 1244072.93853010 19407.53875136
0.08000000 1234600.88378082 18000.48172995
0.08100000 1225087.06937679 18082.28599239
0.08200000 1215532.76001046 15133.38357227
0.08300000 1205941.73392838 21272.81318487
0.08400000 1196315.42147718 18303.62680775
0.08500000 1186656.37329376 18369.44152094
0.08600000 1176966.69043358 23039.12404696
0.08700000 1167250.03265328 21570.78161635
0.08800000 1157505.56052710 20088.50994638
0.08900000 1147738.96424917 30988.95349027
0.09000000 1137949.85937933 21746.22283428
0.09100000 1128141.56225306 23352.53143577
0.09200000 1118315.47321272 24960.80253493
0.09300000 1108476.58155931 17192.47258790
0.09400000 1098621.81873281 20351.97014852
0.09500000 1088756.96778579 23517.15160954
0.09600000 1078883.24499043 17267.52714778
0.09700000 1069005.05465495 22000.12505909
0.09800000 1059122.05508182 18873.55590895
0.09900000 1049236.77525479 17312.40760578
0.10000000 1039350.69584121 18895.39653899
0.10100000 1029465.70875487 18900.99130169
0.10200000 1019585.11391221 17327.84982598
0.10300000 1009709.70626497 20476.91380630
0.10400000 999842.75457420 18897.02895046
0.10500000 989987.04998947 20463.03328606
0.10600001 980139.56475015 23596.86113168
0.10700001 970308.40775362 20434.69602890
0.10800001 960491.34737209 20415.24454917
0.10900001 950692.44960785 23529.63923523
0.11000001 940911.82642178 20366.03744152
0.11100001 931152.55073519 25029.38174198
0.11200001 921415.43459318 17179.79158676
0.11300001 911702.76940810 17149.12989996
0.11400001 902016.73388810 21783.70514907
0.11500001 892359.11042525 18632.45910304
0.11600001 882730.39383462 15491.91914134
0.11700001 873134.01515924 16999.92007576
0.11800001 863568.69865879 15414.70199707
0.11900001 854037.52432678 19984.47901055
0.12000001 844541.62425668 19926.96056299
0.12100001 835085.79275943 16810.27780015
0.12200001 825666.97432538 21326.97895157
0.12300001 816290.18256473 25811.09678877
0.12400001 806953.72278910 21182.53622128
0.12500001 797660.08933251 21106.08695827
0.12600001 788412.48183861 18023.11018414
0.12700001 779210.45978262 16456.92568616
0.12800001 770055.29635427 17880.68482405
0.12900001 760948.98341500 14838.50587596
0.13000001 751892.71631500 20684.56960079
0.13100001 742886.53700459 23534.64660167
0.13200001 733932.97040476 17570.35613976
0.13300001 725033.09591479 14573.16591491
0.13400001 716186.33149913 18853.60606558
0.13500001 707396.40766872 20203.24235557
0.13600001 698663.02901303 18664.78370014
0.13700001 689987.01134298 14282.73180828
0.13800001 681368.15201135 15627.17930329
0.13900001 672810.43058153 18367.72562106
0.14000001 664311.98293209 16860.23892196
0.14100001 655875.98260317 18161.20681482
0.14200001 647501.44347825 18055.57860299
0.14300001 639190.97853974 16567.83094522
0.14400001 630941.31708748 19212.16401155
0.14500001 622759.03029469 16366.10808817
0.14600001 614640.89380496 17618.68205207
0.14700001 606590.18575826 14812.93303504
0.14800001 598603.77226869 20068.19241210
0.14900001 590685.51368041 15948.50962183
0.15000001 582834.47874469 15841.44187973
0.15100001 575052.22951310 15733.42974186
0.15200001 567339.74393912 18228.62683292
0.15300001 559696.56110354 14221.89028876
0.15400001 552121.40181790 12836.82319805
0.15500001 544618.41126744 16567.29285262
0.15600001 537183.90787485 15180.81795300
0.15700001 529823.61991407 12556.82038461
0.15800001 522531.54574372 13708.61574962
0.15900001 515313.44938794 14841.02804288
0.16000001 508165.04410394 18408.27959158
0.16100001 501091.30374649 12176.51925582
0.16200001 494089.30223821 15704.62921299
0.16300001 487159.64726689 15579.36625506
0.16400001 480303.66452497 16642.52276148
0.16500001 473519.55598562 12969.70125076
0.16600001 466809.57278057 11693.58035024
0.16700001 460171.61148636 12755.95767267
0.16800001 453607.28582186 14948.62881008
0.16900001 447117.49641550 15962.09537573
0.17000001 440699.54661978 16955.91585685
0.17100001 434355.64528629 14568.28903084
0.17200001 428084.64322952 11108.79701640
0.17300001 421887.07206134 17618.00496128
0.17400001 415763.27702408 10913.78653730
0.17500001 409711.44008860 16224.57379376
0.17600001 403731.26840202 11790.97225056
0.17700001 397826.82272437 11684.17433527
0.17800001 391992.95353946 10525.01129965
0.17900001 386230.89556710 15642.35200931
0.18000001 380542.75720346 14464.43088453
0.18100001 374926.76151906 12282.60128755
0.18200001 369379.84958923 10139.47735019
0.18300001 363905.60686953 16070.07235850
0.18400001 358501.94369397 10943.27234823
0.18500001 353169.59670482 12809.46187763
0.18600001 347907.78967092 10734.69535744
0.18700001 342715.04194316 9664.56463940
0.18800001 337590.56997604 13398.97035540
0.18900001 332538.97056086 11372.83333052
0.19000001 327551.95221978 10322.80026195
0.19100001 322636.27360963 12079.50265470
0.19200001 317786.60400339 13799.88393091
0.19300001 313006.41049819 10930.18437108
0.19400001 308291.43766533 10821.02997339
0.19500001 303643.79962227 11605.26656997
0.19600001 299060.78095189 9720.97114422
0.19700001 294545.33491195 9622.79654632
0.19800001 290093.66073937 11257.08503699
0.19900001 285706.70443452 10285.44184573
0.20000001 281382.33912805 11877.14909592
0.20100001 277122.79422086 8396.82106175
0.20200001 272924.78247365 11634.78402675
0.20300001 268789.42523014 9047.45248087
0.20400001 264715.83496069 8954.01354076
0.20500001 260702.70811823 11277.99968627
0.20600001 256749.66791659 10363.70083532
0.20700001 252856.69040884 12622.60658187
0.20800001 249022.43981669 8587.53924301
0.20900001 245248.78314087 8497.87073754
0.21000001 241530.02518127 8408.86822419
0.21100001 237870.14524896 10589.97936711
0.21200001 234265.68576315 8233.26791537
0.21300001 230717.03755600 10368.42415794
0.21400001 227224.06161864 10259.16686710
0.21500001 223786.64976996 9425.89413394
0.21600001 220401.56271789 11478.51392904
0.21700001 217070.52249186 7098.20642108
0.21800001 213791.91740564 9129.98426448
0.21900001 210564.24424131 11117.79262161
0.22000001 207387.53456617 8249.87651512
0.22100001 204262.88476538 8162.34526117
0.22200001 201187.39276542 8748.63418808
0.22300001 198160.71960361 7989.84059222
0.22400001 195181.79036084 9881.07860426
0.22500001 192252.99215120 7169.11441633
0.22600001 189369.22854605 7737.62704429
0.22700001 186533.08881125 6379.43193902
0.22800001 183741.63215518 6311.52536300
0.22900001 180995.21888322 6868.76888145
0.23000001 178293.57291881 6795.65985318
0.23100001 175636.73555404 8557.02216088
0.23200001 173021.32994031 9675.35322784
0.23300001 170449.23394718 8375.87575230
0.23400001 167917.97226553 7102.93056277
0.23500001 165427.56987963 7612.97712593
0.23600001 162978.12952483 6952.64733437
0.23700001 160568.35481930 6878.74864581
0.23800001 158197.24040042 6238.50847026
0.23900001 155864.85495858 7294.47555709
0.24000001 153569.67292617 6661.85272665
0.24100001 151312.78081869 6591.18504423
0.24200001 149092.28041978 5977.85526620
0.24300001 146907.07190681 5914.47899474
0.24400001 144757.16544880 6383.79129827
0.24500001 142641.49767186 6316.16581569
0.24600001 140560.04006482 6249.29967691
0.24700001 138512.82942921 8244.28399763
0.24800001 136498.09115916 7137.48552436
0.24900001 134514.22608332 7566.42557514
0.25000001 132563.44837326 5989.21688084
0.25100001 130643.10351977 5432.14050134
0.25200001 128755.01077484 5863.50346809
0.25300001 126895.21167676 8219.00324915
0.25400001 125065.83577930 5740.52213386
0.25500001 123263.76158584 5206.66153572
0.25600001 121491.65019178 6556.90467107
0.25700001 119746.39426960 6024.44138074
0.25800001 118028.26177197 5502.47782415
0.25900001 116338.09692713 5444.62319380
0.26000001 114673.19269137 5387.34684755
0.26100001 113033.88851122 4442.23202868
0.26200001 111420.97736820 5274.66931819
0.26300001 109831.53873125 5654.12788142
0.26400001 108267.28821477 5164.34989221
0.26500001 106726.95422608 5961.76794517
0.26600001 105209.61043038 5056.37411655
0.26700001 103715.59689338 4169.36719241
0.26800001 102244.49534126 6188.34837337
0.26900001 100794.50956343 4898.61339659
0.27000001 99367.06435164  4039.27135704
0.27100001 97960.55601092  5595.50722414
0.27200001 96575.62246964  4350.24912001
0.27300001 95210.97739528  5478.43989859
0.27400001 93865.05978511  3871.93389937
0.27500001 92540.97744663  4214.31631236
0.27600001 91234.02782951  4169.85143929
0.27700001 89948.22587872  3750.84119666
0.27800001 88679.79740315  4824.62460605
0.27900001 87430.28195822  4406.48641924
0.28000001 86198.18221163  4359.90426261
0.28100001 84984.12704147  3594.82874399
0.28200001 83787.76086973  4979.50686417
0.28300001 82608.41180183  4574.85406211
0.28400001 81445.01293727  3829.95191465
0.28500001 80298.82596344  5167.22969532
0.28600001 79168.53798097  4430.66743782
0.28700001 78054.81864083  4046.36198987
0.28800001 76955.14544485  3669.60628423
0.28900001 75872.79863689  3960.56027631
0.29000001 74804.50971353  3591.73870391
0.29100001 73751.74054236  4522.45694413
0.29200001 72713.32138819  3515.32568891
0.29300001 71689.55277907  3161.50942721
0.29400001 70679.25465519  4691.33574981
0.29500001 69684.24794286  3712.77690615
0.29600001 68701.82326954  3366.73300870
0.29700001 67733.10383229  3633.20386155
0.29800001 66778.54156179  3594.02127699
0.29900001 65837.27560815  2962.67754262
0.30000001 64907.84593349  4102.82513568
0.30100001 63992.60479147  3478.63816114
0.30200001 63088.92234098  3440.86998737
0.30300001 62198.61116662  3119.88248382
0.30400001 61320.35730072  4208.10971898
0.30500001 60454.88557043  3329.85525486
0.30600001 59600.10805381  2744.58510581
0.30700001 58758.22309917  2714.63003570
0.30800001 57927.84614881  2953.45137572
0.30900001 57109.35053618  3186.70191079
0.31000001 56302.53949002  2889.16495072
0.31100001 55506.28728047  3117.23324126
0.31200001 54722.45396630  2826.14126890
0.31300001 53948.87528590  3303.28979015
0.31400001 53187.71971915  2764.43186329
0.31500001 52436.04481089  3479.65609840
0.31600002 51696.71339767  2949.81460614
0.31700002 50967.36203064  2917.37194077
0.31800002 50248.47042719  3125.70625092
0.31900002 49540.80605579  3329.14232458
0.32000002 48843.87913231  2822.19946989
0.32100002 48156.83002645  2558.57250045
0.32200002 47481.20033776  2530.51069182
0.32300002 46814.31915469  2730.21122238
0.32400002 46158.97038326  2250.24991274
0.32500002 45513.11178174  2670.70952582
0.32600002 44877.55933095  2201.24438942
0.32700002 44252.42562904  2177.21944405
0.32800002 43637.96565761  2799.59381933
0.32900002 43031.49138748  2769.07660191
0.33000002 42436.25369387  3160.44014351
0.33100002 41849.76244304  2500.94192203
0.33200002 41274.51705788  2886.32711454
0.33300002 40708.27714143  2243.43325950
0.33400002 40152.21923882  2421.17893476
0.33500002 39605.63621613  1996.12415982
0.33600002 39067.95940880  2764.83961829
0.33700002 38539.93570354  2540.16728252
0.33800002 38022.30690183  2126.77783727
0.33900002 37513.17328759  2295.80631392
0.34000002 37013.66523515  2839.87359966
0.34100002 36523.67988672  2623.13081369
0.34200002 36043.54766760  2039.88467685
0.34300002 35571.91170240  2936.81716924
0.34400002 35110.40100889  1998.65967209
0.34500002 34657.47687190  1798.72313484
0.34600002 34214.57838860  1958.95577842
0.34700002 33779.46687808  1763.28825455
0.34800002 33354.43425321  1746.10471585
0.34900002 32937.85612218  2248.00878681
0.35000002 32530.68817770  2055.28897641
0.35100002 32133.16185954  2205.62033450
0.35200002 31742.95568407  2016.94749969
0.35300002 31362.94544662  1831.90973030
0.35400002 30990.92836521  1815.29371497
0.35500002 30628.32999386  2289.77405879
0.35600002 30273.95012306  1945.40412705
0.35700002 29928.23162993  2089.28994904
0.35800002 29591.42070192  2071.54750436
0.35900002 29263.77458858  2844.43902474
0.36000002 28944.25897491  1880.79803728
0.36100002 28632.68943095  1865.70613169
0.36200002 28331.17113286  2005.42204363
0.36300002 28036.46560368  1683.87020392
0.36400002 27750.80242656  1975.16345627
0.36500002 27472.50403120  2262.36081413
0.36600002 27203.53130721  2096.57625716
0.36700002 26941.93974319  2528.23174526
0.36800002 26689.50873823  2511.34944368
0.36900002 26444.72570841  2495.05998878
0.37000002 26207.33642931  1895.96984379
0.37100002 25977.75300781  1449.55868650
0.37200002 25756.87918854  1873.42669652
0.37300002 25543.46154500  2149.48239083
0.37400002 25337.58784405  2137.85907561
0.37500002 25139.50161251  2835.73591622
0.37600002 24949.11715941  1693.04717064
0.37700002 24766.17395878  2387.21162097
0.37800002 24590.55156473  1537.77021495
0.37900002 24423.10522935  1809.75218323
0.38000002 24262.15299206  1663.89853102
0.38100002 24107.73855623  1795.78553013
0.38200002 23961.71338201  1651.92059881
0.38300002 23821.89466329  1783.78355689
0.38400002 23689.45780014  2052.09937915
0.38500002 23563.14517299  1500.73678716
0.38600002 23444.75374356  1360.96801929
0.38700002 23332.05568741  1765.30341694
0.38800002 23225.98975503  1355.23656641
0.38900002 23126.57285260  1352.90457597
0.39000002 23033.96231860  1350.94195399
0.39100002 22946.91096439  1888.98980008
0.39200002 22866.86239076  1482.80176198
0.39300002 22792.09318159  1481.71404793
0.39400002 22724.72410647  1885.01595394
0.39500002 22661.85064017  1480.72539098
0.39600002 22605.09454391  1749.97347703
0.39700002 22553.51221012  1346.44474274
0.39800002 22508.72065837  2155.43519237
0.39900002 22468.26105735  1348.09572731
0.40000002 22433.62248398  1619.25894761
0.40100002 22403.92669253  1756.24389664
0.40200002 22379.86113695  1488.14893681
0.40300002 22360.52254703  1355.04773055
0.40400002 22346.19748024  1764.79102962
0.40500002 22336.14701906  1768.35284328
0.40600002 22331.81641942  1772.36469410
0.40700002 22331.40727395  1640.01862790
0.40800002 22335.38704264  1918.38648399
0.40900002 22343.48912564  1374.12464634
0.41000002 22356.45768125  1929.58595390
0.41100002 22373.19809364  1935.72919078
0.41200002 22393.02348260  2080.87180572
0.41300002 22418.27467203  2088.26238465
0.41400002 22446.40035974  2095.93273290
0.41500002 22478.05227884  1683.15663439
0.41600002 22512.45628111  1548.96962782
0.41700002 22551.57761830  1696.78078040
0.41800002 22594.45139878  1846.07973901
0.41900002 22638.43555384  1854.08795971
0.42000002 22686.20480206  1719.16068136
0.42100002 22737.55709587  1583.21617561
0.42200002 22791.23777237  1590.71451570
0.42300002 22847.29308471  1743.70549085
0.42400002 22905.78420753  2044.34133739
0.42500002 22967.33735649  1761.13551195
0.42600002 23029.81129541  2212.58922505
0.42700002 23095.71373161  2075.84284856
0.42800002 23162.90328918  1937.69276648
0.42900002 23232.87957903  2097.92912540
0.43000002 23304.59904389  2259.96359937
0.43100002 23376.40758943  1666.27041193
0.43200002 23451.22019305  1675.47250609
0.43300002 23526.63957394  1991.05960150
0.43400002 23604.02216477  2464.26003078
0.43500002 23682.02927594  2013.44622445
0.43600002 23761.87066815  2647.90418339
0.43700002 23841.97669931  2036.34332639
0.43800002 23922.46859124  2205.41248394
0.43900002 24004.85950143  2059.61704283
0.44000002 24087.06370101  1912.03120720
0.44100002 24170.34715792  2403.74113877
0.44200002 24253.86143249  1772.83608542
0.44300002 24337.78270319  1782.98604533
0.44400002 24421.76559188  2771.25998187
0.44500002 24505.30341884  1967.28585170
0.44600002 24588.85315648  2143.28748696
0.44700002 24673.41087535  1823.85861834
0.44800002 24756.57979623  1667.35572830
0.44900002 24840.10213576  2179.71906571
0.45000002 24923.49553132  2023.28946312
0.45100002 25005.46703937  2203.98196930
0.45200002 25087.40658839  1875.15829432
0.45300002 25168.10745553  2228.13265864
0.45400002 25248.51435607  1723.21118647
0.45500002 25328.28443838  2252.19115900
0.45600002 25406.54265516  2264.10415602
0.45700002 25484.20050002  2451.07052026
0.45800002 25560.30623206  2639.74075122
0.45900002 25635.21241214  2122.59568832
0.46000002 25709.41254733  2311.14775048
0.46100002 25781.33234124  2143.97569911
0.46200002 25852.50256956  1795.45638855
0.46300002 25922.07822519  1984.59440298
0.46400002 25989.52842210  1994.04666269
0.46500002 26056.46775295  2003.48190048
0.46600002 26120.53469063  2378.66660434
0.46700002 26182.96476725  2021.84863515
0.46800002 26244.26962195  1846.28445541
0.46900002 26302.78961498  2225.21610689
0.47000002 26359.73673156  2793.47323253
0.47100002 26414.76123051  2431.21473889
0.47200002 26467.83827117  2816.83982152
0.47300002 26518.69885906  3016.76732519
0.47400002 26566.76919831  1892.88239510
0.47500002 26613.08206475  2090.19156444
0.47600002 26657.79091757  2479.57453972
0.47700002 26699.00979546  2105.75100238
