# SAXS profile: number of points = 501, q_min = 0, q_max = 0.5, delta_q = 0.001
#    q    intensity    error
0.00000000 1664650.74656090 299.63713438
0.00100000 1664569.35941841 649.18206559
0.00200000 1664325.13365215 823.84096724
0.00300000 1663918.28897640 1397.69141253
0.00400000 1663348.69878391 1372.26272864
0.00500000 1662616.87529830 2094.89734579
0.00600000 1661722.70875075 1919.28980675
0.00700000 1660666.77341873 2192.08023202
0.00800000 1659448.86815411 2912.33288657
0.00900000 1658070.25718405 2487.10549209
0.01000000 1656530.29535447 3279.93012643
0.01100000 1654830.29170680 4170.17251667
0.01200000 1652970.08868311 3545.62099568
0.01300000 1650950.93115046 4507.09624083
0.01400000 1648772.75042586 3709.73885291
0.01500000 1646436.99608238 5532.02855317
0.01600000 1643943.13514767 4192.05518203
0.01700000 1641293.35169861 5760.93992289
0.01800000 1638487.52940103 5136.65863581
0.01900000 1635526.48981517 5887.89562901
0.02000000 1632411.25886859 7713.14354706
0.02100000 1629143.86626473 6451.41000291
0.02200000 1625722.91894196 6730.49319020
0.02300000 1622151.66203406 6423.72087405
0.02400000 1618429.51223281 7889.84423189
0.02500000 1614559.10179358 6926.45886303
0.02600000 1610540.30225619 7827.22622697
0.02700000 1606375.40903961 8770.81013507
0.02800000 1602064.14211050 9756.57107289
0.02900000 1597609.00334213 7908.16492964
0.03000000 1593011.44401317 8148.25391066
0.03100000 1588271.83045242 8386.07565066
0.03200000 1583391.34169517 9405.34500286
0.03300000 1578373.95217962 8854.67827993
0.03400000 1573217.87038911 11563.15188089
0.03500000 1567926.16103818 9313.48182665
0.03600000 1562500.24593305 8671.87676569
0.03700000 1556941.78386317 9762.02543629
0.03800000 1551252.14512359 14519.72075032
0.03900000 1545433.72840454 10199.86307983
0.04000000 1539485.98184851 11361.40707252
0.04100000 1533413.32562288 18354.95835876
0.04200000 1527216.19678919 19701.08985257
0.04300000 1520895.67961539 10037.91195140
0.04400000 1514455.41730608 14311.60435820
0.04500000 1507896.51628272 10404.48644579
0.04600000 1501219.01586517 11641.95400923
0.04700000 1494427.28922996 18291.79087089
0.04800000 1487521.60895244 17493.25493521
0.04900000 1480505.68560545 16655.68973834
0.05000000 1473379.41369400 12398.48834358
0.05100000 1466147.06893654 13723.13720453
0.05200000 1458806.87948034 15076.76980203
0.05300000 1451365.04544272 15282.87464097
0.05400000 1443821.60556823 13102.68168156
0.05500000 1436178.90638097 12063.90337637
0.05600000 1428437.97921579 12213.14529221
0.05700000 1420603.99145068 14831.10636304
0.05800000 1412675.94864383 15002.61927511
0.05900000 1404656.49582656 16434.48176876
0.06000000 1396549.04052823 12778.42431783
0.06100000 1388355.36295555 14202.87602675
0.06200000 1380077.19770130 14345.90314068
0.06300000 1371718.17294156 15802.19409112
0.06400000 1363276.69627083 15950.33809231
0.06500000 1354759.21440751 18776.96359003
0.06600000 1346166.26789810 14881.86878791
0.06700000 1337499.39839646 15006.74395231
0.06800000 1328762.25674395 16503.22800126
0.06900000 1319956.99858252 19403.36878761
0.07000000 1311084.42987463 20944.57474805
0.07100000 1302147.87899588 18282.15707740
0.07200000 1293149.51295437 18407.98417926
0.07300000 1284092.24380221 17104.10948887
0.07400000 1274977.63723176 31555.69800032
0.07500000 1265808.12123281 17316.25591012
0.07600000 1256584.60380655 14513.55285437
0.07700000 1247312.23728780 18971.62001870
0.07800000 1237991.20270150 19071.25537199
0.07900000 1228623.71423395 17692.18231480
0.08000000 1219213.96122046 16294.79535612
0.08100000 1209762.65134940 16368.08944072
0.08200000 1200271.67323619 16437.72133631
0.08300000 1190744.50404482 18004.05774612
0.08400000 1181182.47511713 18072.09271757
0.08500000 1171588.34084810 18136.18836773
0.08600000 1161964.07468501 19712.72145257
0.08700000 1152313.03790234 18252.63937748
0.08800000 1142634.72802101 19830.42663612
0.08900000 1132935.19072667 18353.55095183
0.09000000 1123213.18249736 18398.23279357
0.09100000 1113472.63776434 23048.88468459
0.09200000 1103714.64827442 15396.82006687
0.09300000 1093944.53811537 26221.85181085
0.09400000 1084158.81025374 20084.04290385
0.09500000 1074363.49043664 15470.83498946
0.09600000 1064559.63248040 27880.81808528
0.09700000 1054751.69173532 18605.82071692
0.09800000 1044939.39428356 17069.08580817
0.09900000 1035125.19733129 17079.56655909
0.10000000 1025310.59009250 23300.18425559
0.10100000 1015497.46660245 20198.24556068
0.10200000 1005689.20706676 15537.89898003
0.10300000 995886.40987420 18642.99446983
0.10400000 986092.44972706 18637.14817663
0.10500000 976309.85486003 15523.32742264
0.10600001 966536.13103366 15512.90563303
0.10700001 956778.72972315 15499.81615090
0.10800001 947035.90673954 23226.05670584
0.10900001 937311.73088008 24745.03085988
0.11000001 927605.85070227 18533.56576940
0.11100001 917921.52571703 33926.38118753
0.11200001 908259.91754018 18474.00759247
0.11300001 898622.85768572 21513.03222585
0.11400001 889012.86726605 15335.47268240
0.11500001 879431.23672484 18362.52508747
0.11600001 869879.06391210 21372.92960680
0.11700001 860359.24761282 18274.03127991
0.11800001 850870.82150131 18225.65385496
0.11900001 841416.79454112 16660.05331663
0.12000001 831998.19574511 21141.07514973
0.12100001 822619.71287355 19570.12389117
0.12200001 813278.78581148 19506.49259666
0.12300001 803979.61110003 16449.42361811
0.12400001 794721.20015629 16391.12552553
0.12500001 785505.73577134 14846.05910563
0.12600001 776336.48027574 19225.97384002
0.12700001 767213.02103084 17676.58883758
0.12800001 758136.45648122 14669.94112430
0.12900001 749108.68783972 17529.14412163
0.13000001 740131.36591973 18906.65663358
0.13100001 731204.36070042 15925.63172675
0.13200001 722329.74952233 18733.62293697
0.13300001 713508.86765113 17209.83469907
0.13400001 704741.51908075 15698.11807762
0.13500001 696030.81846986 14199.02936624
0.13600001 687376.71271506 14125.59211233
0.13700001 678780.24978542 16860.90219972
0.13800001 670241.08196988 15371.97993986
0.13900001 661762.58325308 15286.71639404
0.14000001 653343.73326119 16581.86473218
0.14100001 644987.29433934 16485.87602084
0.14200001 636692.37019884 21851.28317585
0.14300001 628461.32693535 14932.24183230
0.14400001 620291.37200277 14840.47177519
0.14500001 612188.55326235 14747.62294377
0.14600001 604150.05645993 19982.26406006
0.14700001 596178.80041656 14558.68699300
0.14800001 588271.65060527 15777.44641359
0.14900001 580433.04817278 15671.69304007
0.15000001 572661.40643006 14267.85961440
0.15100001 564958.38619794 16745.36735704
0.15200001 557325.09219401 15348.73376328
0.15300001 549760.96446076 19049.21831748
0.15400001 542264.98630778 15129.19383195
0.15500001 534840.97077646 17521.39102952
0.15600001 527485.48613895 17391.19729878
0.15700001 520203.91572673 16027.48339999
0.15800001 512990.45701742 12234.82297733
0.15900001 505850.95300060 14568.50813406
0.16000001 498780.90888409 15659.22737357
0.16100001 491785.50195278 16730.54356619
0.16200001 484861.76890627 15411.33205219
0.16300001 478010.15616702 11759.05039683
0.16400001 471231.83738249 12829.28737840
0.16500001 464525.36730817 11566.68219205
0.16600001 457892.72256210 16058.29853841
0.16700001 451332.18044273 13648.28578099
0.16800001 444845.07917119 14659.87027627
0.16900001 438432.13863657 11180.02006313
0.17000001 432090.91785298 12191.44582290
0.17100001 425823.37232641 14282.11658225
0.17200001 419628.83525187 13067.24254682
0.17300001 413507.13057962 11871.79027958
0.17400001 407459.28382917 14974.12938789
0.17500001 401483.02227905 11659.06751761
0.17600001 395578.26056401 13653.38430820
0.17700001 389748.92445787 11446.92645197
0.17800001 383989.90197470 12372.15522599
0.17900001 378302.68719067 13278.42494758
0.18000001 372688.67164593 13154.04728708
0.18100001 367146.66919215 13030.03590512
0.18200001 361673.76524709 12906.32892251
0.18300001 356272.91621748 10816.44624732
0.18400001 350942.55186767 11686.38752927
0.18500001 345683.12413070 13502.38346643
0.18600001 340493.85417202 9550.85306074
0.18700001 335373.60705002 10403.28978219
0.18800001 330321.24022026 12173.98988349
0.18900001 325341.22698743 10199.44794795
0.19000001 320425.65665912 12852.27369585
0.19100001 315580.99775606 12724.22643074
0.19200001 310802.12823062 14396.35525989
0.19300001 306092.37153606 11579.47496237
0.19400001 301447.41416206 13226.00592134
0.19500001 296869.35622986 13091.93922840
0.19600001 292355.91558017 9503.02948501
0.19700001 287909.38589465 10261.09099820
0.19800001 283526.27331382 8463.25965838
0.19900001 279207.75522167 8376.23305251
0.20000001 274951.28079639 8289.78150780
0.20100001 270759.24253320 9844.80652380
0.20200001 266628.41027396 11366.36966719
0.20300001 262559.79500926 12051.49516053
0.20400001 258552.88212139 8745.55165112
0.20500001 254605.66446609 7867.31540387
0.20600001 250718.29955398 9341.76428295
0.20700001 246890.58473188 10784.18125085
0.20800001 243121.16026168 8384.03360794
0.20900001 239412.05125835 8295.62796825
0.21000001 235757.36914050 11938.75373765
0.21100001 232161.04297363 7382.72151557
0.21200001 228619.94066188 7304.40744946
0.21300001 225134.06315144 7949.48414569
0.21400001 221703.45066447 10724.90493293
0.21500001 218328.07613655 7073.83000126
0.21600001 215004.53770739 7698.23783657
0.21700001 211734.65506792 9000.84061249
0.21800001 208516.73213910 12329.59495434
0.21900001 205349.54810382 6776.53540783
0.22000001 202232.61183021 6704.01139915
0.22100001 199167.43408614 7958.73104240
0.22200001 196150.89708515 7217.37259952
0.22300001 193182.76891891 8438.22374538
0.22400001 190262.10052729 8989.88467501
0.22500001 187390.88902239 7623.06172590
0.22600001 184564.33216026 7541.29896868
0.22700001 181784.95498798 6217.04575459
0.22800001 179049.93308754 10455.62133709
0.22900001 176359.34949163 7909.71719876
0.23000001 173713.20415418 8426.82793204
0.23100001 171111.29671963 9527.47745193
0.23200001 168550.39238221 5890.83649236
0.23300001 166032.36809817 8741.60459380
0.23400001 163554.92161266 7494.90463737
0.23500001 161117.60411253 6844.27614641
0.23600001 158720.74696655 7899.53195015
0.23700001 156363.33968012 6140.38863967
0.23800001 154044.07115221 6074.72823321
0.23900001 151763.03145177 8195.20408603
0.24000001 149518.75791805 6486.12402528
0.24100001 147312.17281833 6951.66176412
0.24200001 145141.75661836 5290.41727899
0.24300001 143005.95865308 5757.42016772
0.24400001 140905.16682260 6213.91815082
0.24500001 138838.09896201 7172.37653166
0.24600001 136804.88427536 6589.20756283
0.24700001 134805.17829235 7020.65401758
0.24800001 132837.59641766 6449.92979918
0.24900001 130900.64352815 6381.40667389
0.25000001 128996.11980455 5342.37455444
0.25100001 127121.58874766 5285.71591019
0.25200001 125278.76010694 5229.76208808
0.25300001 123463.96689182 5174.37509724
0.25400001 121679.00590392 6050.48885483
0.25500001 119921.06488147 6446.95675305
0.25600001 118192.44753424 5467.58288162
0.25700001 116490.14237086 4508.16872305
0.25800001 114814.77945524 6244.77615004
0.25900001 113166.76615471 7061.60654217
0.26000001 111543.67073910 4803.62840767
0.26100001 109945.36031101 5617.10872407
0.26200001 108373.42767537 4702.86511650
0.26300001 106824.36641294 5922.34315416
0.26400001 105300.07207792 4604.24586947
0.26500001 103799.13585830 4555.74428839
0.26600001 102320.88687179 4507.74688444
0.26700001 100865.43142237 4054.79053505
0.26800001 99432.41047608  4012.09795257
0.26900001 98020.18361052  5160.76291131
0.27000001 96630.01185382  6284.81626838
0.27100001 95260.29449996  5052.60625938
0.27200001 93911.86841696  4230.26031303
0.27300001 92583.02952541  6468.77657907
0.27400001 91272.76156252  4518.00191116
0.27500001 89983.76307901  4097.86076455
0.27600001 88711.37794837  4054.55372102
0.27700001 87459.81328504  5470.61157988
0.27800001 86225.27310198  3969.38063511
0.27900001 85009.11461084  4998.53617569
0.28000001 83810.08366459  3885.85471302
0.28100001 82628.59134145  5592.30332667
0.28200001 81464.38181769  3458.16317183
0.28300001 80316.75837613  3763.64347564
0.28400001 79184.75169323  3385.14829511
0.28500001 78069.38326744  3684.09437076
0.28600001 76969.64127334  3644.89753502
0.28700001 75886.05065397  4589.58856079
0.28800001 74816.18335896  4540.59438298
0.28900001 73763.08968453  5454.78074037
0.29000001 72723.77020466  4126.71053560
0.29100001 71699.61363946  3768.53187127
0.29200001 70689.34581664  3417.47658527
0.29300001 69693.28317569  3380.82132689
0.29400001 68710.35875970  4560.65027856
0.29500001 67742.49080283  5113.20344784
0.29600001 66786.68172334  4760.55489859
0.29700001 65844.26330237  3826.21032163
0.29800001 64915.58703388  3493.75705955
0.29900001 63999.86236071  3167.99333682
0.30000001 63095.62471638  3133.64434988
0.30100001 62205.20835034  3663.26489317
0.30200001 61326.02356650  3344.72148366
0.30300001 60459.73908388  4135.44634911
0.30400001 59605.33644624  2999.63869866
0.30500001 58763.27558251  3236.68137232
0.30600001 57931.56967479  2667.74890982
0.30700001 57112.47702364  2902.45621975
0.30800001 56304.52087374  2609.71466605
0.30900001 55508.00674436  3613.57141014
0.31000001 54722.85996082  3063.38584564
0.31100001 53948.10839339  2777.24875158
0.31200001 53185.27705025  2996.45865088
0.31300001 52432.60803297  2963.49114633
0.31400001 51691.91875335  3175.17625976
0.31500001 50960.43647005  3140.18224396
0.31600002 50240.95505338  3583.43628885
0.31700002 49531.09264695  3071.42320046
0.31800002 48831.45813631  2570.24392070
0.31900002 48142.75422536  3928.44893080
0.32000002 47464.41280055  2971.03505993
0.32100002 46795.72709090  2712.28047061
0.32200002 46138.21222967  2682.47578605
0.32300002 45489.01015701  2652.91919798
0.32400002 44851.13287558  3279.73924683
0.32500002 44222.58720516  2811.23000175
0.32600002 43604.05223484  2780.41252241
0.32700002 42995.50064999  2961.53022501
0.32800002 42397.50377656  2301.54860150
0.32900002 41807.15087372  2276.39947287
0.33000002 41227.95197053  2456.36149472
0.33100002 40657.07861575  2227.19487204
0.33200002 40097.22929763  2002.85669826
0.33300002 39546.09064691  2971.88885285
0.33400002 39005.06298373  2156.00495852
0.33500002 38473.13824689  2132.95088542
0.33600002 37949.83336246  2302.03700078
0.33700002 37436.08053639  2277.61124769
0.33800002 36932.46360707  2441.42062236
0.33900002 36437.02315973  2601.60357681
0.34000002 35951.07497386  2022.78732920
0.34100002 35474.31882087  2547.76569837
0.34200002 35007.39371000  2341.46963918
0.34300002 34548.68960132  1960.98371464
0.34400002 34099.87563076  1941.13551221
0.34500002 33659.38551742  2096.30662931
0.34600002 33228.74355304  2075.46742062
0.34700002 32805.83724008  2226.20422055
0.34800002 32392.64828411  2374.05730518
0.34900002 31987.74432097  2519.03498458
0.35000002 31592.04189028  2661.31373488
0.35100002 31205.92011676  2306.74172428
0.35200002 30826.88596298  2448.42553357
0.35300002 30457.85100527  1617.31196498
0.35400002 30096.71053500  1923.17989428
0.35500002 29744.81825626  2064.88538115
0.35600002 29400.83752793  2519.06387871
0.35700002 29065.50768916  2185.14497157
0.35800002 28738.84507301  2011.86294463
0.35900002 28421.16781088  1841.69176138
0.36000002 28111.49755374  1826.68519756
0.36100002 27809.66208722  1963.08413972
0.36200002 27517.62403625  1798.00163969
0.36300002 27232.33371348  2230.32823678
0.36400002 26955.95968687  2066.17440787
0.36500002 26686.77203388  1758.12462487
0.36600002 26426.79830313  1891.23391015
0.36700002 26174.13788976  1733.77497594
0.36800002 25930.39841373  1435.24762019
0.36900002 25694.25894609  1426.03143906
0.37000002 25465.41315683  1558.86534024
0.37100002 25244.25837822  1408.62968423
0.37200002 25031.53380820  1540.56582120
0.37300002 24826.31222707  1671.30741830
0.37400002 24628.47676538  2078.02782552
0.37500002 24438.35234859  1791.82007908
0.37600002 24255.83607841  2331.83491186
0.37700002 24080.55659021  1501.90438568
0.37800002 23912.65534504  1767.26487699
0.37900002 23752.71324569  1489.29519106
0.38000002 23599.22232794  2023.04342990
0.38100002 23452.12144754  1343.80662260
0.38200002 23313.40634793  1875.09736139
0.38300002 23180.71166011  1602.25086585
0.38400002 23055.34517275  1730.88012084
0.38500002 22936.04852785  1726.39645448
0.38600002 22824.60423711  1589.96200648
0.38700002 22718.77653840  1454.45614289
0.38800002 22619.56789667  1451.83703423
0.38900002 22526.83218592  2108.51159249
0.39000002 22440.82757905  1842.61643981
0.39100002 22360.42480618  1577.75164907
0.39200002 22286.78971567  1576.56757918
0.39300002 22218.47029632  1707.04515374
0.39400002 22157.47016971  1444.11318673
0.39500002 22101.07423196  1969.20580736
0.39600002 22050.54631102  1444.42110454
0.39700002 22005.19939845  1576.45255959
0.39800002 21966.51402497  1709.10470469
0.39900002 21932.16484503  1315.92995305
0.40000002 21903.60468535  1449.25207267
0.40100002 21879.97104418  1583.23477977
0.40200002 21861.88641747  1453.70620621
0.40300002 21848.46571998  1721.22221097
0.40400002 21840.05205214  1990.17483755
0.40500002 21835.78760076  1728.73938626
0.40600002 21837.33562285  1999.75410441
0.40700002 21842.66829069  1871.47990782
0.40800002 21852.44504052  1608.77708011
0.40900002 21866.24195264  1479.25133819
0.41000002 21884.81788809  1888.87872142
0.41100002 21907.21196188  1624.63891607
0.41200002 21932.63540339  1358.72682762
0.41300002 21963.47200221  1500.32484356
0.41400002 21997.16215163  1643.18809059
0.41500002 22034.42484666  1512.44299314
0.41600002 22074.38654238  1933.05412111
0.41700002 22118.93389746  1525.54294319
0.41800002 22167.24211706  1811.17460300
0.41900002 22216.72583509  1959.51531151
0.42000002 22269.93299177  1546.98096858
0.42100002 22326.61832322  1837.25750888
0.42200002 22385.76976250  1562.41487461
0.42300002 22447.12030116  1855.92799444
0.42400002 22510.97020030  1865.59674375
0.42500002 22577.91827251  2019.82066437
0.42600002 22645.66305606  1595.50026622
0.42700002 22716.98751712  1895.95986802
0.42800002 22789.45922355  2053.10247874
0.42900002 22864.68537704  1917.20395972
0.43000002 22941.65003086  1928.13106821
0.43100002 23018.76299193  2088.26227759
0.43200002 23098.84839483  2250.40541151
0.43300002 23179.48727921  2112.57857074
0.43400002 23262.17306460  1821.42823727
0.43500002 23345.32213869  2290.17621033
0.43600002 23430.43426361  2150.21105427
0.43700002 23515.72997530  2626.47200541
0.43800002 23601.43102960  2642.06232181
0.43900002 23689.02740592  1876.17105946
0.44000002 23776.45319979  1730.09369907
0.44100002 23864.95765321  2531.59482782
0.44200002 23953.66851039  1750.89348274
0.44300002 24042.77707349  2241.74864057
0.44400002 24131.95768740  1932.96990237
0.44500002 24220.62975549  1944.43224892
0.44600002 24309.43725533  1792.94262974
0.44700002 24399.04903527  2131.50102474
0.44800002 24487.47036408  1649.23120718
0.44900002 24576.10548315  2488.33079810
0.45000002 24664.66495071  1668.56466299
0.45100002 24751.70430844  2013.79875797
0.45200002 24838.81564616  2025.35712377
0.45300002 24924.69002911  2036.84576571
0.45400002 25010.15443197  1706.94312088
0.45500002 25095.08688391  1716.50402421
0.45600002 25178.46335691  2243.77886839
0.45700002 25261.28216012  2256.08521664
0.45800002 25342.45672044  2093.79387348
0.45900002 25422.51557945  2806.64585299
0.46000002 25501.79881021  1939.79441843
0.46100002 25578.86430452  2127.13845638
0.46200002 25655.10426914  1781.74707594
0.46300002 25729.76714187  1790.79187795
0.46400002 25802.27249682  2519.59202873
0.46500002 25874.26020431  1989.47196140
0.46600002 25943.41899847  2544.27122177
0.46700002 26010.93305313  2008.56434556
0.46800002 26077.24312049  2201.44096857
0.46900002 26140.83725331  2948.68658193
0.47000002 26202.80576191  2406.59680927
0.47100002 26262.85960633  2045.35160308
0.47200002 26320.95956028  2614.46103704
0.47300002 26376.73784805  2062.92476487
0.47400002 26429.77915817  1883.12185427
0.47500002 26481.12087499  3025.20339215
0.47600002 26530.84848814  3037.25167888
0.47700002 26576.95110533  3048.90797532
