# SAXS profile: number of points = 501, q_min = 0, q_max = 0.5, delta_q = 0.001
#    q    intensity    error
0.00000000 1646666.22097350 321.09991309
0.00100000 1646585.35183432 740.96342592
0.00200000 1646342.67267426 814.93964878
0.00300000 1645938.41249353 987.56308268
0.00400000 1645372.43933563 1604.23818931
0.00500000 1644645.25208163 1776.21694255
0.00600000 1643756.77331117 2416.32255514
0.00700000 1642707.54201036 2759.74878527
0.00800000 1641497.37855964 2437.62371008
0.00900000 1640127.51615429 2952.22965528
0.01000000 1638597.36350074 3244.42291982
0.01100000 1636908.16119262 2946.43481843
0.01200000 1635059.78301605 3826.04006001
0.01300000 1633053.48878445 4115.29497324
0.01400000 1630889.16909203 5504.25118969
0.01500000 1628568.32430736 5081.13339810
0.01600000 1626090.34264052 5390.48972683
0.01700000 1623457.47572728 5260.00245731
0.01800000 1620669.61500695 5542.69033273
0.01900000 1617727.43512936 7279.77378656
0.02000000 1614632.19429975 8137.74662739
0.02100000 1611385.71848146 5849.33042329
0.02200000 1607986.67621185 6102.30971347
0.02300000 1604438.37051926 7508.77191582
0.02400000 1600740.12821530 6603.05332997
0.02500000 1596894.54077336 6850.67789279
0.02600000 1592901.64110271 6451.25194154
0.02700000 1588763.55914756 10009.21088106
0.02800000 1584480.15865480 6892.48900624
0.02900000 1580053.77096099 7821.26652536
0.03000000 1575486.02873661 9523.81348148
0.03100000 1570776.94825744 8293.70266842
0.03200000 1565928.13052440 9301.61352373
0.03300000 1560943.32831819 9552.97360970
0.03400000 1555820.93370684 10618.47836249
0.03500000 1550563.69450810 10047.65320439
0.03600000 1545173.08490791 9433.28211931
0.03700000 1539650.87311586 9653.61142089
0.03800000 1533998.56639782 12563.44884023
0.03900000 1528218.20054857 16504.75733026
0.04000000 1522309.61807059 9362.20458497
0.04100000 1516276.88148834 9552.54479630
0.04200000 1510120.50975974 10714.30551381
0.04300000 1503841.84588876 13895.49930101
0.04400000 1497444.09080131 13140.07250703
0.04500000 1490928.62520532 11316.14879111
0.04600000 1484295.51894012 11510.71228448
0.04700000 1477548.97416721 10638.35310877
0.04800000 1470689.42061090 12971.48129333
0.04900000 1463720.49899380 12075.69467879
0.05000000 1456641.72899462 12257.64072028
0.05100000 1449457.94590125 16958.65875705
0.05200000 1442167.14178292 12611.75224262
0.05300000 1434775.60088227 13946.01949071
0.05400000 1427283.09038266 14130.10325373
0.05500000 1419692.09195014 14310.49695443
0.05600000 1412003.65484731 12072.63181230
0.05700000 1404223.08101851 13438.41551263
0.05800000 1396349.30561525 18536.53789756
0.05900000 1388384.43147155 16244.09860691
0.06000000 1380332.76824830 17682.06358735
0.06100000 1372195.45884709 17865.98570909
0.06200000 1363974.20970041 12889.55688417
0.06300000 1355673.28763061 14315.91058672
0.06400000 1347290.37775475 18390.51451642
0.06500000 1338831.99267461 13254.43734749
0.06600000 1330298.99316262 17380.35715887
0.06700000 1321692.67380817 13481.26590375
0.06800000 1313016.78383486 16307.66921858
0.06900000 1304273.57944638 15064.36054790
0.07000000 1295463.50035276 13796.68692483
0.07100000 1286590.36396271 15284.69423978
0.07200000 1277655.87133337 16788.39893580
0.07300000 1268662.89326878 21123.23816267
0.07400000 1259613.53125544 19838.91404701
0.07500000 1250509.78371449 19958.13708357
0.07600000 1241352.79058176 17205.15048405
0.07700000 1232147.22091257 17299.34779275
0.07800000 1222893.79176467 17389.55053440
0.07900000 1213594.27699557 14563.13200701
0.08000000 1204253.29206325 16094.84600345
0.08100000 1194871.12537868 16166.60708488
0.08200000 1185449.71277165 14758.84961657
0.08300000 1175992.84783661 19262.76375160
0.08400000 1166501.65643196 17847.47618115
0.08500000 1156978.79383219 29850.05428219
0.08600000 1147426.05825378 20963.47506856
0.08700000 1137847.17474253 21027.41677664
0.08800000 1128241.74679803 19580.63643526
0.08900000 1118615.22017251 18121.56741796
0.09000000 1108966.95756764 15137.39968189
0.09100000 1099300.26891243 16687.37886608
0.09200000 1089616.60276381 22800.22848414
0.09300000 1079921.34019724 19794.95909602
0.09400000 1070211.14498394 19825.66239258
0.09500000 1060491.38955303 19852.39974555
0.09600000 1050763.46816963 16817.47009861
0.09700000 1041031.78277603 16833.48471888
0.09800000 1031295.99369902 15314.74622649
0.09900000 1021559.35718029 16855.73018607
0.10000000 1011821.96354961 19927.83450926
0.10100000 1002086.79095176 18398.31434718
0.10200000 992356.39263470 24531.05117978
0.10300000 982631.97130791 19927.77731554
0.10400000 972916.70382905 16855.78268682
0.10500000 963213.05684140 18378.10598921
0.10600001 953518.50504940 16834.36999876
0.10700001 943840.42103611 18348.25864837
0.10800001 934177.28496238 18328.55919353
0.10900001 924532.97661010 16780.27431525
0.11000001 914907.23097541 28943.09161425
0.11100001 905303.22937707 15209.09496948
0.11200001 895722.15982291 15182.49132375
0.11300001 886165.80644751 19699.46680479
0.11400001 876636.70064199 21170.77731732
0.11500001 867136.04897785 21123.43514776
0.11600001 857665.09857447 18062.42782657
0.11700001 848226.50620204 21019.05381358
0.11800001 838819.70152105 17967.51885282
0.11900001 829447.39302440 16423.05915544
0.12000001 820110.39841221 25304.50753498
0.12100001 810813.53487562 19289.25490337
0.12200001 801554.65425138 19225.28928795
0.12300001 792337.31618133 16211.22225285
0.12400001 783161.11832907 14684.27166056
0.12500001 774027.43105374 14629.11913625
0.12600001 764940.63461422 21858.17966413
0.12700001 755899.09800269 15964.58970217
0.12800001 746904.56281994 20233.64556039
0.12900001 737959.31396521 20146.29022079
0.13000001 729064.07503820 20056.55364966
0.13100001 720219.19741599 17112.40893724
0.13200001 711426.57228241 21289.44117914
0.13300001 702687.88891169 15536.42995627
0.13400001 694002.74169267 18269.62303639
0.13500001 685374.07257967 15379.79491382
0.13600001 676801.84247570 16689.93422239
0.13700001 668287.16202390 15216.89939681
0.13800001 659829.72278106 15133.19540560
0.13900001 651432.90999524 13680.09175503
0.14000001 643095.79928586 16321.77215562
0.14100001 634820.80938862 21634.69420432
0.14200001 626607.32535147 18817.01886781
0.14300001 618457.39441197 18702.15248915
0.14400001 610368.69497427 25223.48750960
0.14500001 602346.77472939 14510.53448772
0.14600001 594389.26923475 20970.05440785
0.14700001 586498.45909068 15624.31968728
0.14800001 578671.62265406 14226.64251414
0.14900001 570913.18259403 14130.10193587
0.15000001 563221.77275810 12756.97375488
0.15100001 555598.35010736 16467.93587422
0.15200001 548044.71675073 13835.38952722
0.15300001 540559.97150114 17481.71030329
0.15400001 533143.24938206 18593.37169964
0.15500001 525797.78199995 15994.76928328
0.15600001 518521.13368915 12211.17327468
0.15700001 511318.22195111 14541.89091862
0.15800001 504182.91767209 15632.19210024
0.15900001 497121.37015100 11930.91344677
0.16000001 490128.69844584 15387.59121404
0.16100001 483210.81057462 12916.22557636
0.16200001 476363.91866834 13976.51803351
0.16300001 469589.08005769 11551.89191476
0.16400001 462887.12548984 11456.45689673
0.16500001 456256.73366849 15905.11048658
0.16600001 449699.62573536 14644.46900348
0.16700001 443214.75311501 12285.91353642
0.16800001 436802.86238470 14394.83900956
0.16900001 430464.56427698 14269.90097958
0.17000001 424197.60812958 13056.80299477
0.17100001 418004.08290403 15098.30818746
0.17200001 411883.30360486 11757.20945661
0.17300001 405834.61674518 13769.96919644
0.17400001 399859.88888864 11545.95483693
0.17500001 393956.04749265 13520.57218849
0.17600001 388123.34295541 11335.14276636
0.17700001 382365.69008700 13271.91372976
0.17800001 376677.83516259 12136.56042217
0.17900001 371061.73185177 13024.26740318
0.18000001 365518.10966251 9923.81714609
0.18100001 360046.17836387 11795.11336036
0.18200001 354643.06406278 11681.94308206
0.18300001 349311.24668962 9640.99086407
0.18400001 344049.96499830 11456.86437567
0.18500001 338858.69016607 11344.98948272
0.18600001 333737.42022063 12169.73560329
0.18700001 328684.61547779 12049.57857270
0.18800001 323699.21115470 12847.62229773
0.18900001 318785.89940481 13628.09784345
0.19000001 313936.29172732 15290.26781103
0.19100001 309157.24234333 9794.10190021
0.19200001 304443.70084419 13220.46833384
0.19300001 299798.46639613 12213.79009811
0.19400001 295217.77943393 11225.65659343
0.19500001 290703.46090054 13674.69144696
0.19600001 286253.32194462 10996.42188215
0.19700001 281869.53287468 15068.74593959
0.19800001 277548.59803990 10770.27385593
0.19900001 273291.85782167 9018.63173434
0.20000001 269096.70664393 8113.26608876
0.20100001 264965.57107939 10436.99433809
0.20200001 260894.95842901 11121.95260349
0.20300001 256886.22667945 13363.22214347
0.20400001 252938.75001763 10111.22700987
0.20500001 249050.32853040 10004.35216994
0.20600001 245221.18866309 9136.94192147
0.20700001 241451.34384343 7533.28228401
0.20800001 237738.98816151 9689.05292053
0.20900001 234086.75202417 8111.10634106
0.21000001 230488.36416092 7294.95707054
0.21100001 226947.88438187 10103.72029032
0.21200001 223462.02542745 8567.53445991
0.21300001 220030.84931528 9181.88777601
0.21400001 216654.55718030 8384.53175927
0.21500001 213332.76929727 8294.37846242
0.21600001 210062.44277867 11623.80582071
0.21700001 206845.00560488 12174.89760553
0.21800001 203679.30118353 7359.95189625
0.21900001 200563.86122791 7280.46850680
0.22000001 197498.06605137 9820.59179875
0.22100001 194483.56529274 8419.19393961
0.22200001 191517.00525412 8968.74178013
0.22300001 188598.47027939 12673.81780206
0.22400001 185726.93261693 6895.11269945
0.22500001 182904.25707678 8060.59099054
0.22600001 180125.68542839 7359.93585464
0.22700001 177393.74143080 6673.55286821
0.22800001 174705.99509020 8401.61170120
0.22900001 172061.72007180 5936.12962320
0.23000001 169461.56256876 5871.84342070
0.23100001 166905.25619104 7550.79414718
0.23200001 164389.14109221 6894.48090347
0.23300001 161915.62018821 7956.53395235
0.23400001 159482.18616441 6183.92206100
0.23500001 157088.26781189 7229.20242662
0.23600001 154734.48867320 6600.97359901
0.23700001 152419.63925095 6529.65765435
0.23800001 150142.19945106 6997.37753638
0.23900001 147902.57780341 6921.84096860
0.24000001 145699.33146681 6320.43729799
0.24100001 143533.28523556 7294.36190070
0.24200001 141402.81765947 5669.54624224
0.24300001 139306.54411664 6628.20568260
0.24400001 137244.88291445 5548.12465426
0.24500001 135216.38164488 5488.43319059
0.24600001 133221.28624956 6910.18844465
0.24700001 131259.21094107 5371.12716579
0.24800001 129328.80605882 5313.47424829
0.24900001 127428.61767681 5734.28806673
0.25000001 125560.44340657 5200.08600969
0.25100001 123721.50272082 5144.34032651
0.25200001 121914.02696431 6014.62880483
0.25300001 120134.14537261 5492.53338629
0.25400001 118383.68002654 4528.17597525
0.25500001 116659.79278949 6271.63075709
0.25600001 114964.57069905 4875.07285115
0.25700001 113295.36403957 5261.43695493
0.25800001 111652.76438055 6506.56515213
0.25900001 110036.84950985 4291.43733393
0.26000001 108445.65426159 5519.34183479
0.26100001 106878.67522216 4620.36534847
0.26200001 105337.86154865 6648.92613556
0.26300001 103819.13801474 4111.23805992
0.26400001 102325.16071818 4474.16786411
0.26500001 100854.04196760 4426.48411141
0.26600001 99405.19416201  5175.53167895
0.26700001 97978.60227938  5514.23599722
0.26800001 96574.11901699  5065.79565275
0.26900001 95190.16974354  6168.32329128
0.27000001 93827.78543346  4195.50962420
0.27100001 92485.44358426  5660.10941521
0.27200001 91164.03674244  4106.48422940
0.27300001 89861.98822964  5909.32462563
0.27400001 88577.97811114  5480.76265500
0.27500001 87315.08713354  3614.84477840
0.27600001 86068.30991245  3933.75229072
0.27700001 84841.84063006  4953.06689039
0.27800001 83632.28074861  3850.01222647
0.27900001 82440.66116521  3808.75872609
0.28000001 81265.96791399  4452.96892260
0.28100001 80108.34505898  4405.15810329
0.28200001 78967.81808956  4357.83924753
0.28300001 77843.24799173  3316.12252140
0.28400001 76734.31408615  5576.66654016
0.28500001 75641.68311794  4218.53686716
0.28600001 74564.31296183  3530.99320744
0.28700001 73502.74696094  3492.85070091
0.28800001 72454.64857238  3455.00008071
0.28900001 71422.91056696  3417.58643240
0.29000001 70404.90748993  3073.17435740
0.29100001 69401.54576324  3647.74541798
0.29200001 68411.91201693  3307.37404301
0.29300001 67436.26093876  4163.51494744
0.29400001 66473.47285202  2941.45131294
0.29500001 65525.44742950  3491.19600431
0.29600001 64589.09332327  3165.18866814
0.29700001 63666.31048026  3984.23789846
0.29800001 62756.51350079  3377.55571650
0.29900001 61859.63776357  3618.78898048
0.30000001 60974.18453968  3028.28301852
0.30100001 60102.09713047  3539.41266757
0.30200001 59241.06600579  3500.25855066
0.30300001 58392.76773104  2928.98136805
0.30400001 57556.04914583  3686.46512231
0.30500001 56731.53334458  3645.56850531
0.30600001 55917.15577963  3089.98217467
0.30700001 55115.21881559  3055.58787580
0.30800001 54324.17846276  3273.30352824
0.30900001 53544.46786246  2738.79966083
0.31000001 52775.73740786  2954.38591997
0.31100001 52017.47188638  3164.74313940
0.31200001 51270.91583027  2888.60353464
0.31300001 50534.21880327  2856.19418199
0.31400001 49809.43320391  3059.54457941
0.31500001 49093.84302154  2559.75309634
0.31600002 48389.80718868  2531.02898484
0.31700002 47695.36275794  3185.09647578
0.31800002 47010.95718568  2924.31673020
0.31900002 46337.44970109  3336.29653645
0.32000002 45674.11588306  2639.05054068
0.32100002 45020.34219153  3914.06873546
0.32200002 44377.46956010  2365.09735219
0.32300002 43742.87911809  2763.67523354
0.32400002 43119.27390389  2522.47764282
0.32500002 42505.25371008  2702.05910630
0.32600002 41901.07506879  2260.77261239
0.32700002 41306.57393496  2032.28353383
0.32800002 40722.56507118  2210.62454957
0.32900002 40146.14241496  2185.95755801
0.33000002 39580.81000060  2554.74350247
0.33100002 39023.78766093  2720.73860456
0.33200002 38477.59406414  1921.95591452
0.33300002 37940.04811268  2280.95580055
0.33400002 37412.54265846  1879.98035762
0.33500002 36893.91809088  2045.39891582
0.33600002 36384.08140044  2207.05848227
0.33700002 35883.53462648  2183.15435006
0.33800002 35393.10544712  2159.68739666
0.33900002 34910.97692624  2136.55188907
0.34000002 34438.06729355  1761.50722549
0.34100002 33974.19618394  2265.73925081
0.34200002 33520.34023617  1897.08374551
0.34300002 33074.68118276  2047.98435583
0.34400002 32638.74304182  2026.86603889
0.34500002 32211.12001899  1838.93292898
0.34600002 31793.12606748  1985.79874822
0.34700002 31382.99353351  2129.65004205
0.34800002 30982.56964608  2432.90639668
0.34900002 30590.40662531  1766.59606628
0.35000002 30207.42279749  2703.71550554
0.35100002 29833.90155153  1575.23007653
0.35200002 29467.40555789  1716.32911801
0.35300002 29110.93606125  1700.36985587
0.35400002 28762.54146792  2144.24756799
0.35500002 28423.19034055  1821.35812329
0.35600002 28091.75303172  1654.74479071
0.35700002 27768.81099369  1938.54078729
0.35800002 27454.70822098  1626.27971850
0.35900002 27149.56755763  1612.68438931
0.36000002 26852.39137955  1890.27418070
0.36100002 26563.02588579  2307.79579827
0.36200002 26283.44369892  1717.36029263
0.36300002 26010.67750644  1704.21967095
0.36400002 25746.74309995  1691.56110179
0.36500002 25490.10898796  2239.05127956
0.36600002 25242.52912955  1806.48168273
0.36700002 25002.30746124  1518.14018096
0.36800002 24771.07337141  1508.18687366
0.36900002 24547.47262873  1362.38479543
0.37000002 24331.15695123  1624.83473817
0.37100002 24122.44994331  1346.03277060
0.37200002 23922.34762995  1739.99203729
0.37300002 23729.60753578  1597.47725498
0.37400002 23544.28585752  1456.80275644
0.37500002 23366.79336826  1581.46465008
0.37600002 23196.85284183  1442.96029938
0.37700002 23034.05873531  2089.64990746
0.37800002 22878.77237586  1690.85575254
0.37900002 22731.48858431  1425.26440175
0.38000002 22590.65254684  1807.47819590
0.38100002 22456.19072075  1415.41376818
0.38200002 22330.09521569  1411.15043401
0.38300002 22210.03104462  1663.08720341
0.38400002 22097.36073374  1403.73490711
0.38500002 21990.88464980  1527.92673785
0.38600002 21892.10044788  1779.17108769
0.38700002 21798.97719297  1522.44063928
0.38800002 21712.52731361  1647.00383740
0.38900002 21632.58777547  1645.15837827
0.39000002 21559.40909125  1264.45940311
0.39100002 21491.82780273  1263.71953467
0.39200002 21430.92096728  1642.35870614
0.39300002 21375.50938408  1894.93899667
0.39400002 21327.32691904  1642.73743377
0.39500002 21283.71975373  2022.80482123
0.39600002 21246.20187735  1771.29593444
0.39700002 21213.65251919  1266.45511540
0.39800002 21187.84571244  1268.09262597
0.39900002 21166.54233548  1396.99186033
0.40000002 21150.85527957  1526.66880641
0.40100002 21140.16877434  1402.22746124
0.40200002 21135.09177158  1788.66290137
0.40300002 21134.57327586  1408.83072132
0.40400002 21139.09620841  1669.46020216
0.40500002 21147.87324625  1674.27720423
0.40600002 21162.36963805  1291.96272762
0.40700002 21180.73313027  1555.51311479
0.40800002 21203.47229283  1560.99970416
0.40900002 21230.17280260  1436.22125815
0.41000002 21261.77693083  1310.78860989
0.41100002 21297.11467707  2105.85879905
0.41200002 21335.62174950  1850.43856201
0.41300002 21379.39837544  2788.08747425
0.41400002 21426.02783159  1600.52435486
0.41500002 21476.27234546  1340.11945786
0.41600002 21529.18957185  1346.65087153
0.41700002 21586.79321001  1488.84119824
0.41800002 21647.87884146  1496.62617462
0.41900002 21710.35682785  1504.52779946
0.42000002 21776.45844528  1787.73844078
0.42100002 21845.99521040  2074.27734352
0.42200002 21918.13813529  2225.12948893
0.42300002 21992.37048178  1398.71482892
0.42400002 22069.13584644  2391.74271069
0.42500002 22148.74401391  1556.83529051
0.42600002 22229.32421617  2135.68242527
0.42700002 22313.39404270  2435.28394122
0.42800002 22398.63943575  1585.48776759
0.42900002 22486.67306580  2030.54667406
0.43000002 22576.24518385  2335.28691248
0.43100002 22666.01095922  2496.88788559
0.43200002 22758.71331664  2069.44989995
0.43300002 22851.99755437  1785.19813354
0.43400002 22947.12414131  1647.02991329
0.43500002 23042.82785904  2260.50152009
0.43600002 23140.33316918  1668.53380223
0.43700002 23238.10711774  2137.44119398
0.43800002 23336.13511113  2305.02685484
0.43900002 23436.10650171  1546.78310241
0.44000002 23535.81196207  2023.96224559
0.44100002 23636.50019309  1567.10003707
0.44200002 23737.37631063  1577.34873059
0.44300002 23838.62963566  2381.47921346
0.44400002 23939.83041388  2077.37888261
0.44500002 24040.55258446  2412.46956618
0.44600002 24141.26118476  1942.40596698
0.44700002 24242.71059437  2606.57636664
0.44800002 24342.93828136  2295.29575933
0.44900002 24443.25758190  2144.89595446
0.45000002 24543.46087036  2324.51128920
0.45100002 24642.12673111  2339.03078017
0.45200002 24740.66141964  2017.35362777
0.45300002 24838.11352720  2198.91829478
0.45400002 24934.87117727  1701.80503850
0.45500002 25031.01115564  1712.12124419
0.45600002 25125.65192040  2239.07257700
0.45700002 25219.56359968  2425.61774198
0.45800002 25311.80042437  1742.71754181
0.45900002 25402.81038988  2278.63219997
0.46000002 25492.91120286  1939.11838255
0.46100002 25580.72852164  2304.56794174
0.46200002 25667.71436311  1960.88513171
0.46300002 25752.89445758  2330.12200096
0.46400002 25835.88912290  1982.25868690
0.46500002 25918.26572298  2174.02423188
0.46600002 25997.63785243  2003.24807966
0.46700002 26075.34955475  2562.68547570
0.46800002 26151.71375078  3127.61435426
0.46900002 26225.37888706  2218.66715900
0.47000002 26297.15588840  3158.42005767
0.47100002 26366.93666977  2240.13504564
0.47200002 26434.63754404  2250.64514717
0.47300002 26499.99102695  2260.97934158
0.47400002 26562.49670518  2460.35137393
0.47500002 26623.12399985  2471.15848679
0.47600002 26682.00769246  2290.91728906
0.47700002 26737.26680021  2108.76833248
