# SAXS profile: number of points = 501, q_min = 0, q_max = 0.5, delta_q = 0.001
#    q    intensity    error
0.00000000 1664650.74656090 299.63713438
0.00100000 1664569.24195059 699.11909822
0.00200000 1664324.66384100 1123.41918367
0.00300000 1663917.24361802 1198.02045808
0.00400000 1663346.84195833 1497.01221465
0.00500000 1662613.97293934 1795.62316185
0.00600000 1661718.52917602 2617.20679000
0.00700000 1660661.09201816 2192.07273257
0.00800000 1659441.46461471 2464.27067899
0.00900000 1658060.88000697 2735.80056896
0.01000000 1656518.72498394 3006.58161567
0.01100000 1654816.27935826 3574.40331904
0.01200000 1652953.44454997 3545.58529401
0.01300000 1650931.42032110 3813.65174914
0.01400000 1648750.10639236 4080.65669422
0.01500000 1646411.12340878 5136.80293377
0.01600000 1643913.70336178 5449.57417026
0.01700000 1641260.15091919 4874.54286690
0.01800000 1638450.38211647 6537.41731881
0.01900000 1635485.10863435 5397.10110202
0.02000000 1632365.52011526 5141.95162096
0.02100000 1629093.53166735 6451.21067789
0.02200000 1625667.77377439 7291.12029663
0.02300000 1622091.52135670 7591.38866550
0.02400000 1618364.13911731 8496.41211778
0.02500000 1614488.27833610 8185.45594500
0.02600000 1610463.87725014 7826.85480142
0.02700000 1606293.15943809 8095.71789436
0.02800000 1601975.86863739 8362.31441778
0.02900000 1597514.56424827 9345.46062994
0.03000000 1592910.64609704 9629.14529826
0.03100000 1588164.42858100 9147.82752955
0.03200000 1583277.17945699 9404.66687914
0.03300000 1578252.96402859 9658.90858514
0.03400000 1573089.69883859 9084.59342996
0.03500000 1567790.77562045 10159.28469516
0.03600000 1562357.34088817 13006.62546398
0.03700000 1556791.27708021 12423.19496564
0.03800000 1551093.92503989 9073.89988142
0.03900000 1545267.55196142 11125.92688936
0.04000000 1539311.84581082 11360.12194850
0.04100000 1533230.89446230 12557.16160788
0.04200000 1527025.45755831 20683.56078220
0.04300000 1520696.44529849 16058.55520776
0.04400000 1514247.55937591 11243.28865053
0.04500000 1507679.93175384 12483.59041497
0.04600000 1500993.53268642 10582.00489736
0.04700000 1494192.79264557 13985.64518961
0.04800000 1487278.00098359 15304.09134219
0.04900000 1480252.87193009 17763.03528999
0.05000000 1473117.11026059 16904.01962740
0.05100000 1465875.27324620 12577.21043035
0.05200000 1458525.55994960 13914.33449034
0.05300000 1451074.19969664 14104.44187857
0.05400000 1443520.87963255 11909.04781233
0.05500000 1435868.22306062 13267.42300000
0.05600000 1428117.44831260 15873.52617872
0.05700000 1420273.58969277 14827.65696853
0.05800000 1412335.54208131 22498.50623586
0.05900000 1404305.68733453 17694.25248684
0.06000000 1396188.10431747 16607.65827675
0.06100000 1387984.06194493 15489.90285517
0.06200000 1379695.76792868 15645.75073965
0.06300000 1371326.41157431 13164.73416663
0.06400000 1362874.50393310 14616.82973826
0.06500000 1354346.49551484 20112.04639919
0.06600000 1345743.26350003 14877.19247407
0.06700000 1337065.94701987 16365.68795742
0.06800000 1328318.13295084 15122.90265153
0.06900000 1319502.45902448 15240.25411526
0.07000000 1310619.39464715 18145.52636862
0.07100000 1301672.22306624 14058.06066756
0.07200000 1292663.30452109 14154.66384761
0.07300000 1283595.26060022 21371.86209038
0.07400000 1274470.22213625 15771.56973806
0.07500000 1265290.29218142 17309.17200837
0.07600000 1256056.07151333 15958.19313671
0.07700000 1246773.26259650 16045.97264199
0.07800000 1237441.76173986 16130.05412072
0.07900000 1228063.92027193 23578.82837516
0.08000000 1218643.70618782 19248.47824220
0.08100000 1209182.02116190 22309.40933715
0.08200000 1199680.68295876 17923.23024445
0.08300000 1190143.23303782 23993.28870410
0.08400000 1180571.16173176 15052.28301861
0.08500000 1170966.86834187 16616.02064181
0.08600000 1161332.52865863 22733.08531585
0.08700000 1151671.53642266 22803.09749195
0.08800000 1141983.37601402 16770.02666435
0.08900000 1132274.02443574 19871.41006220
0.09000000 1122542.45799481 16854.97579856
0.09100000 1112791.93124695 23034.79405901
0.09200000 1103024.37767091 15387.19079150
0.09300000 1093244.98628814 16956.23053414
0.09400000 1083449.90126491 16983.07800049
0.09500000 1073645.27707063 17006.54198815
0.09600000 1063832.29452828 17026.63667431
0.09700000 1054015.27906816 26339.84306222
0.09800000 1044193.92981134 18607.53670412
0.09900000 1034371.36923584 17067.12839493
0.10000000 1024547.91583002 17074.09182025
0.10100000 1014726.37157611 21735.43990142
0.10200000 1004909.67887011 23288.78290323
0.10300000 995098.80519146 20180.60471859
0.10400000 985296.78989918 20173.95272227
0.10500000 975506.25191622 17061.60514875
0.10600001 965724.81130556 17049.87234586
0.10700001 955959.69452755 17035.20255812
0.10800001 946209.41290451 20111.68201778
0.10900001 936477.90020273 18542.26329672
0.11000001 926765.03604369 16973.70243408
0.11100001 917073.79430871 23110.26070446
0.11200001 907405.58534554 19994.68301438
0.11300001 897761.85808450 19957.24704482
0.11400001 888145.48322578 21448.71442980
0.11500001 878557.64326912 22930.35556907
0.11600001 868999.45177326 19826.22342585
0.11700001 859473.81278408 25861.56824462
0.11800001 849979.64906808 19723.77868558
0.11900001 840520.25479456 22694.04794838
0.12000001 831096.35710266 16592.83955116
0.12100001 821712.73205301 15037.34370495
0.12200001 812367.25189698 16486.99415397
0.12300001 803063.34844353 16430.67688328
0.12400001 793800.59359624 23814.01892994
0.12500001 784580.90298778 17794.29571824
0.12600001 775407.77091443 17725.82247841
0.12700001 766280.33294750 22068.87462891
0.12800001 757200.19549192 17582.18936796
0.12900001 748169.16476476 16048.22934059
0.13000001 739188.72182051 15977.56497525
0.13100001 730258.55953106 17350.94419234
0.13200001 721381.35304531 18709.02627318
0.13300001 712558.01643098 15754.65848601
0.13400001 703788.76090785 17102.06769635
0.13500001 695076.06153271 17015.46278857
0.13600001 686419.90859602 19748.30170145
0.13700001 677822.04417210 16837.10037116
0.13800001 669281.31230877 13954.51601967
0.13900001 660801.89472500 22202.94470981
0.14000001 652382.11896792 22076.61194702
0.14100001 644025.13431778 13717.73600794
0.14200001 635729.84865967 19090.96825568
0.14300001 627498.62540587 18975.55932731
0.14400001 619328.71888649 24246.72048812
0.14500001 611226.10231093 13385.85227205
0.14600001 603188.24396569 17290.39182894
0.14700001 595217.75998736 15856.60187412
0.14800001 587311.55409612 18376.97939467
0.14900001 579473.91674235 14341.98011604
0.15000001 571704.03104379 15538.91629694
0.15100001 564002.52751397 14145.18405749
0.15200001 556371.27007880 16599.33762607
0.15300001 548809.28654025 16480.74365251
0.15400001 541315.66837322 17619.82583705
0.15500001 533894.00522889 13742.43234314
0.15600001 526541.48757551 17360.07366467
0.15700001 519262.94175001 13537.18553034
0.15800001 512052.75306717 15876.19635818
0.15900001 504916.81479961 13329.80453988
0.16000001 497850.43228747 12023.08850726
0.16100001 490858.81854677 15506.23080985
0.16200001 483939.26639061 15382.01030835
0.16300001 477092.06791866 14083.75850982
0.16400001 470318.28430912 12804.41589481
0.16500001 463616.70116321 16161.67896556
0.16600001 456989.01384367 11447.57533726
0.16700001 450433.59231362 12486.01976846
0.16800001 443951.86683082 14630.43446221
0.16900001 437544.54564810 15620.34101720
0.17000001 431208.94988554 19908.91815631
0.17100001 424947.66232637 13156.38024689
0.17200001 418759.16915181 11953.48104792
0.17300001 412643.90919953 19386.01176969
0.17400001 406602.56251424 13875.31310107
0.17500001 400633.08671106 12692.05678642
0.17600001 394735.30621402 11528.24516245
0.17700001 388913.08273858 14537.57171939
0.17800001 383161.39257140 11316.67226411
0.17900001 377481.76308233 11211.20889309
0.18000001 371875.19658885 14134.97689001
0.18100001 366341.02994712 12001.33270797
0.18200001 360876.29370260 12877.87114910
0.18300001 355483.35604075 13735.87752629
0.18400001 350161.45095012 11660.37686748
0.18500001 344910.47551019 11547.60326561
0.18600001 339729.74430104 12388.24571120
0.18700001 334618.24061073 9436.23483104
0.18800001 329574.93481962 11212.13981229
0.18900001 324603.88987673 12951.69581802
0.19000001 319697.61330499 10075.27075935
0.19100001 314862.13758633 9974.83299005
0.19200001 310092.69148649 9874.90222699
0.19300001 305392.54672324 10664.30823549
0.19400001 300757.26184984 10556.58038977
0.19500001 296189.07607728 13932.73479707
0.19600001 291685.62980373 9481.24184482
0.19700001 287249.18987541 8531.30134247
0.19800001 282876.23596155 9288.24164675
0.19900001 278567.86185126 9192.73987554
0.20000001 274321.65977331 10752.03796297
0.20100001 270140.15395098 9003.77175673
0.20200001 266019.92774088 12960.49149209
0.20300001 261961.94768486 10420.84677144
0.20400001 257965.76971255 7932.44779359
0.20500001 254029.31333132 8634.45676826
0.20600001 250152.70295066 10874.13851126
0.20700001 246335.96315335 9222.81889642
0.20800001 242577.45968063 9886.24483661
0.20900001 238879.45913223 9782.11431388
0.21000001 235235.89415005 11167.82460270
0.21100001 231650.79348803 10313.09381362
0.21200001 228120.73048778 10203.84075710
0.21300001 224646.19660157 7211.14325182
0.21400001 221226.84393696 8561.47926512
0.21500001 217862.85098354 7058.75670559
0.21600001 214550.70785511 7681.98845795
0.21700001 211291.98151155 7600.17293430
0.21800001 208085.43672197 10253.41037926
0.21900001 204929.80442403 6762.68386574
0.22000001 201824.27073861 8028.56986959
0.22100001 198770.51660764 8604.77607081
0.22200001 195765.44707674 11132.20267440
0.22300001 192808.65167705 7774.04520322
0.22400001 189899.52128985 7050.02006126
0.22500001 187039.77475914 6974.71353058
0.22600001 184224.57570166 6272.84709927
0.22700001 181456.54800463 8688.13992932
0.22800001 178733.12326427 7367.37968936
0.22900001 176053.70891112 7288.62389361
0.23000001 173418.87491308 7210.75715990
0.23100001 170828.38549048 5944.82809622
0.23200001 168278.69823182 7057.60893762
0.23300001 165771.97400971 7564.17553181
0.23400001 163305.43711770 5756.51693066
0.23500001 160879.39614288 7403.67016066
0.23600001 158493.72098772 6761.34245713
0.23700001 156147.28044869 7246.79562838
0.23800001 153838.94031823 7721.17677977
0.23900001 151568.77138961 8184.71404217
0.24000001 149335.32754969 6478.16681553
0.24100001 147139.53125606 6409.39828469
0.24200001 144979.85091379 5812.96739735
0.24300001 142854.57693411 5228.47776311
0.24400001 140764.36358189 7242.32684888
0.24500001 138707.66770499 6141.97581652
0.24600001 136684.85212440 5570.59141185
0.24700001 134695.42640138 6012.80411900
0.24800001 132738.11847430 5453.54585551
0.24900001 130811.16785623 5886.50283201
0.25000001 128916.69216813 6309.82779668
0.25100001 127051.92204443 5282.81916853
0.25200001 125218.91844166 4752.05817968
0.25300001 123413.74978178 5642.47690697
0.25400001 121638.52611619 5583.20861288
0.25500001 119890.01137515 5524.53198554
0.25600001 118170.66777451 6377.67124153
0.25700001 116477.52742820 4958.44857722
0.25800001 114811.34638673 5352.50522180
0.25900001 113172.23711601 6179.20443890
0.26000001 111557.84365622 5240.98774295
0.26100001 109968.44853239 4753.93625499
0.26200001 108405.04512783 4276.57923265
0.26300001 106864.32514631 5078.19297124
0.26400001 105348.38970712 5025.11842681
0.26500001 103855.60054216 4558.22252349
0.26600001 102385.33109722 4510.58597493
0.26700001 100937.90244097 4463.47425715
0.26800001 99512.63729429  5621.46914677
0.26900001 98108.07389180  5562.72805290
0.27000001 96725.27763703  5897.82408302
0.27100001 95362.92536004  4668.96904658
0.27200001 94021.60067598  4620.22167586
0.27300001 92699.86570604  5333.95052515
0.27400001 91396.40073021  4901.13222110
0.27500001 90114.17182161  4476.87226797
0.27600001 88848.50862781  4060.82127902
0.27700001 87603.23960057  4383.66631708
0.27800001 86374.92745613  3976.26997363
0.27900001 85164.84444646  5007.69309045
0.28000001 83971.88582866  4247.29818623
0.28100001 82796.12869588  3852.50405055
0.28200001 81637.55020462  3812.06558723
0.28300001 80495.40035155  4800.74590419
0.28400001 79368.68100851  4071.61352845
0.28500001 78258.58209681  5035.93999629
0.28600001 77163.91085537  4650.66912738
0.28700001 76085.05868439  3944.24962889
0.28800001 75019.90688363  5203.38098774
0.28900001 73971.24003451  3861.29891257
0.29000001 72936.25664009  3183.66775304
0.29100001 71916.32440877  3779.92218985
0.29200001 70910.11180783  4051.44942992
0.29300001 69918.01857334  3083.38476504
0.29400001 68938.86157053  4880.87163024
0.29500001 67974.45129837  3319.87235857
0.29600001 67022.04083858  3284.41526677
0.29700001 66083.18658123  3840.09415402
0.29800001 65157.40861663  3799.00288923
0.29900001 64244.65558910  3758.31252988
0.30000001 63343.27667053  3717.93380018
0.30100001 62455.50218893  3395.08125971
0.30200001 61578.75439527  3638.38087569
0.30300001 60714.88579898  3045.45881585
0.30400001 59862.62455244  4108.07280439
0.30500001 59022.63678725  2980.05307247
0.30600001 58192.81611408  3215.73517071
0.30700001 57375.50594842  3180.89820037
0.30800001 56569.11490850  2884.17646016
0.30900001 55774.08334561  2593.49499836
0.31000001 54990.27602547  2565.29649804
0.31100001 54216.82437405  2791.08225092
0.31200001 53454.97148983  3011.65323633
0.31300001 52703.08444932  3227.01001362
0.31400001 51963.26609764  3928.42310298
0.31500001 51232.46866919  2671.26104289
0.31600002 50513.51347419  3843.06828708
0.31700002 49804.02001794  3325.91261427
0.31800002 49104.53068594  3524.47785686
0.31900002 48416.02757201  2556.36637684
0.32000002 47737.66672788  3217.99626650
0.32100002 47068.94058099  2500.77293148
0.32200002 46411.13428851  2248.61956275
0.32300002 45761.67875409  3113.62476986
0.32400002 45123.22560723  2419.73308777
0.32500002 44494.13432990  3263.64490764
0.32600002 43874.99564192  2152.06863814
0.32700002 43265.57881897  2554.39989443
0.32800002 42666.72040643  2526.72330212
0.32900002 42075.31534660  2499.27384994
0.33000002 41494.91947926  2678.28970462
0.33100002 40922.88089253  2241.75552145
0.33200002 40361.85553035  3225.71964674
0.33300002 39809.28722006  2193.88992259
0.33400002 39266.81212493  2367.78888326
0.33500002 38733.15023256  2537.79612342
0.33600002 38208.31838894  2510.85976183
0.33700002 37692.84933351  2102.13030688
0.33800002 37187.26661353  2458.26437590
0.33900002 36690.12078908  2245.43549863
0.34000002 36202.10416763  2222.08525904
0.34100002 35723.31470136  3115.43042265
0.34200002 35254.24589190  2902.12965926
0.34300002 34793.43470516  2693.01197372
0.34400002 34342.33894182  1954.93773685
0.34500002 33899.65729316  1935.33152652
0.34600002 33466.57938466  2090.32264736
0.34700002 33041.20659807  2069.70127933
0.34800002 32625.51682240  2220.32965251
0.34900002 32218.17426420  1860.59965188
0.35000002 31820.01885730  2010.38888662
0.35100002 31431.19747326  2489.35095778
0.35200002 31049.48851631  2466.10574221
0.35300002 30677.74791570  2443.48273722
0.35400002 30313.99767596  2098.48658851
0.35500002 29959.27147244  1919.79020688
0.35600002 29612.50226987  2220.04940032
0.35700002 29274.31766713  2358.04639978
0.35800002 28944.92759494  1870.42130978
0.35900002 28624.39317410  2318.57595692
0.36000002 28311.80992522  1839.70149608
0.36100002 28007.09694294  1977.02106685
0.36200002 27712.12142813  1659.81759156
0.36300002 27423.94126394  2246.02089590
0.36400002 27144.68787331  1634.78890461
0.36500002 26872.60747518  1475.30622027
0.36600002 26609.57537640  1904.31435202
0.36700002 26354.08785893  1891.16943434
0.36800002 26107.35706964  2023.05919516
0.36900002 25868.25881915  1579.25727572
0.37000002 25636.50168626  2425.34135692
0.37100002 25412.43941994  1843.41844284
0.37200002 25196.91759757  1550.74436700
0.37300002 24988.83923655  1542.06134234
0.37400002 24787.95855431  1673.18728168
0.37500002 24595.09665412  1664.59622040
0.37600002 24409.81801358  1932.52538368
0.37700002 24231.75763003  1511.33479498
0.37800002 24060.97480919  1504.65313097
0.37900002 23898.34042217  1634.64656231
0.38000002 23742.15224581  2035.29609769
0.38100002 23592.34468218  1757.39383863
0.38200002 23450.94831126  1886.15986203
0.38300002 23315.60669741  1745.87271221
0.38400002 23187.72895952  2008.63711628
0.38500002 23065.93748905  1602.62141266
0.38600002 22951.99666142  2398.25424477
0.38700002 22843.74689861  1462.45674573
0.38800002 22742.08332004  1592.40074951
0.38900002 22646.99925619  1589.81942310
0.39000002 22558.72728536  1323.06941797
0.39100002 22476.04867702  1585.91006979
0.39200002 22400.20527013  1452.54137956
0.39300002 22329.79003476  1451.65971893
0.39400002 22266.63837983  2110.87741842
0.39500002 22208.23176667  1846.83664121
0.39600002 22155.72179213  1451.31062475
0.39700002 22108.47276605  1715.83865267
0.39800002 22067.94450980  1320.76654149
0.39900002 22031.85326871  1454.10238463
0.40000002 22001.60693516  1852.75540779
0.40100002 21976.21843892  1590.19924158
0.40200002 21956.53665425  2521.81813691
0.40300002 21941.63500242  1994.49471622
0.40400002 21931.67350401  1998.52384274
0.40500002 21926.16701599  1602.36436145
0.40600002 21926.40340060  2141.77118565
0.40700002 21930.49373340  1342.14628008
0.40800002 21939.00307792  1749.74527338
0.40900002 21951.67044692  1350.02779645
0.41000002 21969.26077629  1625.28598924
0.41100002 21990.72284991  2038.54010478
0.41200002 22015.27597551  2454.92354035
0.41300002 22045.28513515  1642.81472611
0.41400002 22078.19737682  1649.24142219
0.41500002 22114.86404908  1931.95461487
0.41600002 22154.12408317  1801.46268518
0.41700002 22198.26293429  1670.19738232
0.41800002 22246.00732137  1537.97778904
0.41900002 22295.19454725  1404.59732303
0.42000002 22348.04931159  1552.40731899
0.42100002 22404.60664001  1560.03283427
0.42200002 22463.55734189  1995.43789323
0.42300002 22524.90252251  1575.84225515
0.42400002 22588.81952840  1728.04477581
0.42500002 22655.74780114  2316.32376495
0.42600002 22723.66265320  2037.63092667
0.42700002 22795.18474661  1463.45093008
0.42800002 22867.94700866  1765.86295169
0.42900002 22943.68997622  1627.85488095
0.43000002 23021.00267816  1934.80026177
0.43100002 23098.73079201  1496.79782625
0.43200002 23179.32205894  2107.69585470
0.43300002 23260.68257008  2422.83281131
0.43400002 23344.05710536  1675.51977814
0.43500002 23428.04172906  1685.41340186
0.43600002 23513.97526078  2003.74349680
0.43700002 23600.26079296  2015.69836985
0.43800002 23686.96589083  1871.74413339
0.43900002 23775.61246252  2196.86669565
0.44000002 23864.28841197  2683.65868055
0.44100002 23953.88758119  2223.39995065
0.44200002 24043.82952619  2236.79756682
0.44300002 24134.29374741  1768.07844373
0.44400002 24224.79294925  1617.00500599
0.44500002 24315.04752666  2602.68281060
0.44600002 24405.29286129  2290.92494946
0.44700002 24496.45152761  1646.16162067
0.44800002 24586.47430869  1655.89912317
0.44900002 24676.77017719  1665.68206590
0.45000002 24767.08235686  1843.04252093
0.45100002 24855.92809724  2696.37120778
0.45200002 24944.85265504  2373.00394554
0.45300002 25032.69799787  2045.67217734
0.45400002 25119.95003192  3085.98600768
0.45500002 25206.88934549  2068.98157553
0.45600002 25292.27772017  2253.92143585
0.45700002 25377.12637017  1917.74953068
0.45800002 25460.42052593  2103.54004355
0.45900002 25542.62377937  1762.44112431
0.46000002 25624.06162546  2480.66552353
0.46100002 25703.36129166  1959.36732413
0.46200002 25781.84814803  2506.76921424
0.46300002 25858.72656819  1799.76745445
0.46400002 25933.53471956  2170.63695891
0.46500002 26007.82436215  2726.92051362
0.46600002 26079.33622133  2374.91486556
0.46700002 26149.25665036  1835.67790386
0.46800002 26217.98481794  2582.20944711
0.46900002 26284.07851389  2964.84419689
0.47000002 26348.37324157  2233.81518930
0.47100002 26410.93628614  1869.89437769
0.47200002 26471.47598988  2817.22696575
0.47300002 26529.82670084  2452.15199818
0.47400002 26585.34406997  2083.62644024
0.47500002 26639.14669958  2282.44219740
0.47600002 26691.37080356  2291.72120582
0.47700002 26740.09253543  1917.26472566
