# SAXS profile: number of points = 501, q_min = 0, q_max = 0.5, delta_q = 0.001
#    q    intensity    error
0.00000000 1682732.95097188 328.13292544
0.00100000 1682650.99232345 504.79530969
0.00200000 1682405.05820147 832.79053018
0.00300000 1681995.37197602 1009.19725914
0.00400000 1681421.78473164 1639.38630241
0.00500000 1680684.84700013 1663.87806439
0.00600000 1679784.41731268 1940.15108098
0.00700000 1678721.09986787 2215.91194392
0.00800000 1677494.67245576 2264.61790343
0.00900000 1676106.39481481 3016.99163964
0.01000000 1674555.63032079 3315.62029120
0.01100000 1672843.69483981 3914.45441636
0.01200000 1670970.46091253 3584.23179580
0.01300000 1668937.13060068 3504.76812884
0.01400000 1666743.64483141 4500.20804054
0.01500000 1664391.57141468 5192.90193405
0.01600000 1661880.12319297 6780.47120574
0.01700000 1659211.74235998 4927.85909587
0.01800000 1656386.19710420 5192.77096158
0.01900000 1653404.30597581 5456.23445592
0.02000000 1650267.17673194 7797.51276278
0.02100000 1646976.78520559 5435.02363759
0.02200000 1643531.73395643 7938.25863566
0.02300000 1639935.33143812 7674.89770048
0.02400000 1636186.88325774 6749.27120119
0.02500000 1632289.15321524 8275.70638476
0.02600000 1628241.97398842 7913.25635552
0.02700000 1624047.56318712 8185.20009335
0.02800000 1619705.75482112 10568.58053488
0.02900000 1615219.08252686 8722.18344612
0.03000000 1610588.98355913 8238.16302957
0.03100000 1605815.64644517 10020.29009488
0.03200000 1600900.57775151 11886.68733728
0.03300000 1595847.55349405 13022.11663684
0.03400000 1590654.65410647 9186.03105131
0.03500000 1585325.27388491 14553.28668631
0.03600000 1579860.64663415 11398.69509224
0.03700000 1574262.42482605 9870.62586015
0.03800000 1568532.18007507 13763.87051714
0.03900000 1562672.06952873 11251.23942165
0.04000000 1556681.84594521 10530.95317581
0.04100000 1550565.47356826 14652.84440462
0.04200000 1544323.90929613 10956.97864478
0.04300000 1537958.01607460 15225.78506589
0.04400000 1531471.26394415 10337.43151171
0.04500000 1524865.07204404 17886.66812618
0.04600000 1518139.34118498 14984.03599406
0.04700000 1511298.51164316 10881.34978990
0.04800000 1504342.83344628 13268.30440835
0.04900000 1497276.15422581 11229.57167940
0.05000000 1490097.96728694 17098.87497085
0.05100000 1482812.93730412 11565.94144976
0.05200000 1475419.30837863 16421.41766751
0.05300000 1467923.27747782 16646.25074261
0.05400000 1460324.52650294 13252.44569603
0.05500000 1452625.73686382 15862.67378654
0.05600000 1444828.17049033 12353.28143415
0.05700000 1436936.72713243 17501.89015344
0.05800000 1428950.36078935 17704.69579685
0.05900000 1420871.48869478 15345.41279462
0.06000000 1412704.28429764 12926.24480522
0.06100000 1404449.87233956 20898.21507701
0.06200000 1396110.48908660 15831.89368628
0.06300000 1387689.25548286 15986.18097060
0.06400000 1379184.99223961 13447.05430321
0.06500000 1370603.92886592 14925.87748355
0.06600000 1361946.85573703 16425.07984869
0.06700000 1353215.24445741 23464.75343702
0.06800000 1344412.35039468 19480.53586908
0.06900000 1335541.01584608 16827.81758752
0.07000000 1326601.52502503 14128.30690312
0.07100000 1317597.43725126 17076.06358658
0.07200000 1308530.89439095 15761.25536130
0.07300000 1299404.74502389 15865.73268014
0.07400000 1290220.92175563 20320.98046998
0.07500000 1280981.71022047 18984.14983530
0.07600000 1271687.48182671 22031.98665552
0.07700000 1262344.06762565 19200.25416886
0.07800000 1252951.53306386 16332.22399941
0.07900000 1243512.08203951 17906.57482125
0.08000000 1234029.51238392 16492.80520671
0.08100000 1224505.25781684 15061.41537780
0.08200000 1214940.66737098 18151.21442227
0.08300000 1205339.20582751 16706.00217682
0.08400000 1195702.85559784 18294.25454935
0.08500000 1186033.64700083 21419.76867039
0.08600000 1176333.89793368 21491.62132431
0.08700000 1166607.16694747 16939.13685950
0.08800000 1156852.82810808 20077.18177472
0.08900000 1147076.44429334 26325.40563303
0.09000000 1137277.67663441 15523.84101530
0.09100000 1127459.41379780 17114.83470553
0.09200000 1117623.69296771 20268.10662430
0.09300000 1107775.44552050 17181.59796742
0.09400000 1097911.39947893 18774.28581343
0.09500000 1088037.14835343 15667.73567272
0.09600000 1078154.30198252 18824.57499752
0.09700000 1068267.05038686 23555.28956843
0.09800000 1058374.97212444 23575.30361253
0.09900000 1048481.16173429 17299.93998210
0.10000000 1038586.26515984 25175.33225140
0.10100000 1028692.75316678 15738.99986369
0.10200000 1018803.72965873 26758.88121813
0.10300000 1008920.20581554 15739.15595110
0.10400000 999045.20674649 18881.95529581
0.10500000 989181.51707858 20446.38292000
0.10600001 979326.28912273 20433.64398402
0.10700001 969487.27099292 18846.83343499
0.10800001 959662.75510503 18828.58414127
0.10900001 949856.52529040 20374.42342641
0.11000001 940068.82538717 21913.00535121
0.11100001 930302.59336466 17191.99273466
0.11200001 920558.74206017 17163.81855373
0.11300001 910839.42085571 17132.89031293
0.11400001 901146.93426463 18653.74241758
0.11500001 891483.04144155 17062.98621665
0.11600001 881848.32311731 20119.37043937
0.11700001 872246.02170601 18526.50637354
0.11800001 862674.97219476 18478.49877472
0.11900001 853138.35041963 23034.73654630
0.12000001 843637.15622315 22968.02266008
0.12100001 834176.05493860 22898.13378675
0.12200001 824752.68407447 15216.68773805
0.12300001 815371.03751272 16682.49221350
0.12400001 806030.16453382 19646.98618623
0.12500001 796732.31709823 18069.88980325
0.12600001 787480.75559336 21002.11274137
0.12700001 778274.64644774 17931.44869920
0.12800001 769115.95781936 14882.39448520
0.12900001 760006.23997408 17784.14685360
0.13000001 750946.74399006 17707.32505792
0.13100001 741937.50223385 14690.36323670
0.13200001 732981.28797288 14622.97738439
0.13300001 724078.93157179 17464.78465285
0.13400001 715230.16803805 15931.75274416
0.13500001 706438.14919880 15852.47281544
0.13600001 697702.62425782 20072.90544635
0.13700001 689025.12273364 19967.94899837
0.13800001 680404.73815369 17023.72735137
0.13900001 671846.05700546 22574.02857993
0.14000001 663346.58594258 15432.75904977
0.14100001 654909.96487992 19529.41607378
0.14200001 646535.00930765 16641.81192450
0.14300001 638224.21899421 15164.20815856
0.14400001 629974.53581887 16442.33616046
0.14500001 621792.45456004 19064.15755611
0.14600001 613674.85379958 20297.29674693
0.14700001 605624.93481427 16133.84902459
0.14800001 597639.26235377 13357.23814378
0.14900001 589722.02857970 15922.49552289
0.15000001 581872.59764834 14497.35645444
0.15100001 574091.86754625 18325.01327674
0.15200001 566381.24867469 14298.29529749
0.15300001 558740.21209165 19360.34926257
0.15400001 551167.25358789 15377.56710079
0.15500001 543666.62396570 17810.51944165
0.15600001 536235.03421268 15154.00278204
0.15700001 528877.67518115 16294.72194139
0.15800001 521588.68980853 14927.86900690
0.15900001 514374.16993328 16048.47485942
0.16000001 507229.35621978 13474.54848401
0.16100001 500159.30647882 13369.25889326
0.16200001 493161.42130687 15675.13651620
0.16300001 486236.20180835 15549.83446791
0.16400001 479384.67047378 13051.24826979
0.16500001 472605.21015819 18828.59246162
0.16600001 465900.18265024 12837.88013904
0.16700001 459267.24022181 15045.59550004
0.16800001 452708.25539581 14919.00126099
0.16900001 446223.91596801 11378.71039446
0.17000001 439811.69722570 18049.87290645
0.17100001 433473.81452777 12301.98743721
0.17200001 427208.77340145 17737.70910925
0.17300001 421017.56399662 13186.27072709
0.17400001 414900.26010878 18514.92498174
0.17500001 408854.97691452 14031.90347040
0.17600001 402881.83499861 11766.16454684
0.17700001 396984.32276632 14839.27468587
0.17800001 391157.71733696 14703.61928918
0.17900001 385403.12635274 11446.47339333
0.18000001 379722.41736567 11340.41053029
0.18100001 374114.13109716 15319.97439209
0.18200001 368575.30588534 12140.87114937
0.18300001 363108.91151090 10021.80643112
0.18400001 357713.62256743 14889.83024278
0.18500001 352389.59474778 11798.00418952
0.18600001 347136.29021194 12658.32542060
0.18700001 341952.16518041 13500.27211914
0.18800001 336836.62173174 10504.25054499
0.18900001 331793.81097745 14184.18608945
0.19000001 326816.01799670 13108.59110121
0.19100001 321909.43561708 10198.09140221
0.19200001 317069.11343832 11014.98152132
0.19300001 312298.56353170 12723.04407948
0.19400001 307593.08716882 8997.09822484
0.19500001 302955.11795981 11578.94515559
0.19600001 298382.06671837 12344.06668347
0.19700001 293876.52108277 9600.94639749
0.19800001 289434.83728315 8639.63030120
0.19900001 285058.05054385 10262.09030456
0.20000001 280743.86342858 8464.42788241
0.20100001 276494.69093230 9215.56848432
0.20200001 272307.13851431 12437.62913949
0.20300001 268182.30194152 10668.29247547
0.20400001 264119.43298773 11370.34212755
0.20500001 260116.84671325 8841.37203769
0.20600001 256174.64957368 9545.06789429
0.20700001 252292.42188392 11020.13350880
0.20800001 248468.96225735 8568.45256848
0.20900001 244706.34573113 10791.55035687
0.21000001 240998.57498725 10678.64736249
0.21100001 237349.76150044 10566.81188153
0.21200001 233756.40982737 10455.92470588
0.21300001 230218.83880663 10346.03510508
0.21400001 226737.02013668 8043.49616962
0.21500001 223310.90197814 9405.85563601
0.21600001 219936.97364389 8590.73859669
0.21700001 216617.06456531 9208.39185004
0.21800001 213349.76101932 9811.95597319
0.21900001 210133.49563212 7627.84625210
0.22000001 206967.98220102 10291.48340155
0.22100001 203854.60162384 9503.70197707
0.22200001 200790.54799730 8059.73297771
0.22300001 197775.17708015 6645.24626412
0.22400001 194807.62064977 10519.61201252
0.22500001 191890.13100109 6505.07574854
0.22600001 189017.53731282 9010.46642979
0.22700001 186192.59420583 9551.68053445
0.22800001 183412.70084270 7560.27188626
0.22900001 180677.32032398 7480.04141515
0.23000001 177986.94964394 7400.69771619
0.23100001 175341.19918141 8542.62362812
0.23200001 172736.93810835 8452.01878137
0.23300001 170176.00982278 7765.13169546
0.23400001 167655.58275733 11228.73318624
0.23500001 165176.32294315 7016.69053049
0.23600001 162737.85784432 6942.39734399
0.23700001 160338.87599933 7441.32758709
0.23800001 157978.55213479 6796.23763429
0.23900001 155656.98601689 6724.38211399
0.24000001 153372.41386272 6653.29562807
0.24100001 151126.25447966 7680.23661594
0.24200001 148916.38712627 5428.00256751
0.24300001 146741.53598671 8593.18475386
0.24400001 144602.07066503 6376.95161798
0.24500001 142496.62437800 5258.12568828
0.24600001 140425.44952058 5723.03946594
0.24700001 138388.38473084 6177.65778662
0.24800001 136383.74312498 7131.50626537
0.24900001 134409.67826023 5040.36317321
0.25000001 132468.84022160 5984.94248435
0.25100001 130558.24483176 7402.65283217
0.25200001 128679.72541885 5860.07497281
0.25300001 126829.34642796 6765.07765853
0.25400001 125009.58953557 6694.26383634
0.25500001 123216.77804450 5677.82940092
0.25600001 121453.80801979 5618.45342482
0.25700001 119717.60212033 5096.37856339
0.25800001 118008.47589718 4584.62950552
0.25900001 116327.14800793 6351.46258175
0.26000001 114670.76942803 4489.36083552
0.26100001 113040.12761154 5775.22039293
0.26200001 111435.60870910 6154.58896022
0.26300001 109854.44612573 5220.28352691
0.26400001 108298.34625241 5596.31730740
0.26500001 106765.98688126 5963.94830939
0.26600001 105256.53513003 5480.18176086
0.26700001 103770.30622234 4588.72315829
0.26800001 102306.76000646 7017.73253473
0.26900001 100864.29637307 4902.00503570
0.27000001 99444.15608939  5255.12667723
0.27100001 98044.81784202  6000.34313588
0.27200001 96666.92424172  4354.36180853
0.27300001 95309.11141854  5484.08653055
0.27400001 93969.92489429  4263.88554387
0.27500001 92652.35901294  4986.55019807
0.27600001 91351.95261217  5693.51071600
0.27700001 90072.33401612  5258.42310872
0.27800001 88810.02412397  4460.03962259
0.27900001 87566.31594443  3677.78544373
0.28000001 86340.15940291  4003.16168018
0.28100001 85131.69550540  6121.82051353
0.28200001 83940.72140097  3919.61217133
0.28300001 82766.71154501  3878.44828657
0.28400001 81608.45133499  4535.38989761
0.28500001 80467.30196507  4142.45690123
0.28600001 79341.93732647  4440.37173265
0.28700001 78232.82332233  5069.48719124
0.28800001 77137.71339486  3343.92003395
0.28900001 76059.72500219  3970.31783304
0.29000001 74995.51991412  5237.68735872
0.29100001 73946.79602740  3562.75680124
0.29200001 72912.25370084  4165.84181239
0.29300001 71892.28192341  4755.67467435
0.29400001 70885.53298139  5018.69597265
0.29500001 69893.93751531  3723.94916710
0.29600001 68914.73692941  3991.19717820
0.29700001 67949.29388350  3644.80029645
0.29800001 66997.48709472  3004.83743844
0.29900001 66059.05039108  3567.18888999
0.30000001 65132.26687600  3528.86638640
0.30100001 64219.47878356  3781.88528460
0.30200001 63318.15669030  3741.15346516
0.30300001 62429.89284245  4554.88519742
0.30400001 61553.71256241  3097.69073135
0.30500001 60690.14482000  4178.51666868
0.30600001 59837.04421913  3306.59522009
0.30700001 58996.80444522  3815.91349217
0.30800001 58167.91385936  3235.29952203
0.30900001 57350.69032869  3200.16867185
0.31000001 56544.95194987  3956.73320002
0.31100001 55749.86784692  3130.91272652
0.31200001 54966.67110770  3096.82239683
0.31300001 54193.84242078  2807.78310876
0.31400001 53433.41515548  3534.62057989
0.31500001 52682.16907765  3246.27541227
0.31600002 51943.21027076  3704.84964798
0.31700002 51214.04760093  2687.20120485
0.31800002 50495.13158787  2416.19216088
0.31900002 49787.49339102  3823.67967348
0.32000002 49090.36480928  2836.44141298
0.32100002 48403.04508105  2571.65390692
0.32200002 47726.95849651  2774.84549838
0.32300002 47059.57466376  2287.09543695
0.32400002 46403.58962955  3393.26265234
0.32500002 45756.99184855  2908.77210955
0.32600002 45120.57263300  2213.16419245
0.32700002 44494.36934317  2626.94769041
0.32800002 43878.88970269  2381.96564030
0.32900002 43271.20365494  2570.30961882
0.33000002 42674.63784359  2754.43463005
0.33100002 42086.77295909  2095.92139261
0.33200002 41510.08161044  2280.77154209
0.33300002 40942.23389232  3281.92962422
0.33400002 40384.48249997  2232.25237590
0.33500002 39836.15666959  2409.29086947
0.33600002 39296.68393239  2383.73696022
0.33700002 38766.79424087  2555.11952942
0.33800002 38246.99617534  2139.34583238
0.33900002 37735.91287573  2116.98481258
0.34000002 37234.19590912  2094.98213204
0.34100002 36741.98604711  2073.35037083
0.34200002 36259.56892432  2052.11040046
0.34300002 35785.57580129  2585.15011832
0.34400002 35321.59133910  2193.47092604
0.34500002 34866.21281042  1990.51218362
0.34600002 34420.73935994  2149.91948224
0.34700002 33983.06768689  1951.30783900
0.34800002 33555.33426058  2459.27056443
0.34900002 33136.08087925  2087.57319426
0.35000002 32726.20564462  2239.94525143
0.35100002 32325.89642803  2218.84963591
0.35200002 31932.77850225  3212.59733338
0.35300002 31549.90699651  2177.89018312
0.35400002 31175.05558252  1660.07178840
0.35500002 30809.47884305  1809.74887296
0.35600002 30452.10661299  2609.13661818
0.35700002 30103.33647785  1778.20416997
0.35800002 29763.63585268  1923.32623990
0.35900002 29432.93617562  1907.25435452
0.36000002 29110.30391564  1576.32303170
0.36100002 28795.70585050  1876.32828209
0.36200002 28491.06525683  1861.60629206
0.36300002 28193.21169254  1847.21931759
0.36400002 27904.44956241  1527.76868591
0.36500002 27623.07770130  1971.45914892
0.36600002 27350.86143045  1957.36449099
0.36700002 27086.31621619  2093.23061634
0.36800002 26830.67390155  1633.58565788
0.36900002 26582.71157915  1917.94273129
0.37000002 26342.24123578  1759.13495305
0.37100002 26109.59771273  1748.29874566
0.37200002 25885.64669970  2027.62280204
0.37300002 25669.23239381  1584.04840606
0.37400002 25460.13755982  1575.34608614
0.37500002 25259.12048482  2279.38314053
0.37600002 25065.78456008  1700.96422082
0.37700002 24879.86412472  1551.75719897
0.37800002 24701.23325626  1685.11821257
0.37900002 24530.82101762  2237.21098279
0.38000002 24367.06382451  2088.86664531
0.38100002 24209.69735686  1525.93729669
0.38200002 24060.83558559  1658.75408385
0.38300002 23918.22512933  1790.99678253
0.38400002 23783.04968000  1922.85965772
0.38500002 23654.02937355  2191.30938498
0.38600002 23532.95174777  1775.91428778
0.38700002 23417.61878791  1635.48657363
0.38800002 23308.96115537  1496.08574264
0.38900002 23207.04503958  1764.89585887
0.39000002 23111.88966084  1897.71734996
0.39100002 23022.38750315  1489.08809425
0.39200002 22940.00545210  1758.00740111
0.39300002 22862.87990087  1891.67477262
0.39400002 22793.21348782  1485.54775945
0.39500002 22728.21789355  1890.07868957
0.39600002 22669.20421012  1889.93164454
0.39700002 22615.60984407  1755.19756316
0.39800002 22568.78803666  1620.89043359
0.39900002 22526.36132764  1621.89809243
0.40000002 22489.80984672  1623.31455165
0.40100002 22458.19612111  1354.22929027
0.40200002 22432.32093632  1356.03386485
0.40300002 22411.37645126  1629.75537275
0.40400002 22395.38138235  1632.62338013
0.40500002 22383.83015852  1772.12791761
0.40600002 22378.03024120  1639.41457315
0.40700002 22376.12145814  2054.12804718
0.40800002 22378.71088740  1647.52077359
0.40900002 22385.53170739  1652.05231828
0.41000002 22397.27217333  2485.42541084
0.41100002 22412.98103693  1800.65898183
0.41200002 22431.65765991  1389.64125788
0.41300002 22455.96991199  1533.96737737
0.41400002 22483.11290541  1539.53122915
0.41500002 22514.05889262  1545.36507561
0.41600002 22547.59566159  2115.52826319
0.41700002 22586.03470760  1840.98777625
0.41800002 22628.21533978  1706.62008179
0.41900002 22671.74809322  1571.15221731
0.42000002 22719.00389127  1721.64619646
0.42100002 22770.04547510  1585.47834156
0.42200002 22823.36730816  1737.77126919
0.42300002 22879.19951013  1600.62887357
0.42400002 22937.55543650  2485.85768823
0.42500002 22999.01517419  1616.60085320
0.42600002 23061.45500312  1772.50351553
0.42700002 23127.41857637  1484.78034296
0.42800002 23194.74822550  1791.09854285
0.42900002 23264.98694631  2100.82842080
0.43000002 23336.87343650  1810.47472700
0.43100002 23409.13014356  2275.36755778
0.43200002 23484.29106175  1982.89620976
0.43300002 23560.23339597  1840.52552011
0.43400002 23638.24875323  1542.39580424
0.43500002 23716.82622015  1861.29660996
0.43600002 23797.39776436  2183.88729633
0.43700002 23878.29182505  2196.32538615
0.43800002 23959.55681674  2051.05795850
0.43900002 24042.92374946  1745.51634693
0.44000002 24126.18130252  2074.73105943
0.44100002 24210.43890389  2407.72826309
0.44200002 24295.04558574  2260.16819795
0.44300002 24380.14267080  1786.08933671
0.44400002 24465.31837437  1959.67209466
0.44500002 24550.22782954  1970.89238356
0.44600002 24635.12791529  1982.14248600
0.44700002 24721.04178731  2491.88113025
0.44800002 24805.66700559  2171.86027760
0.44900002 24890.65606356  1848.13130031
0.45000002 24975.69955604  2534.40923256
0.45100002 25059.29605285  1868.92238819
0.45200002 25142.89090613  1879.30546984
0.45300002 25225.34887361  1889.63097368
0.45400002 25307.42269576  1727.23168084
0.45500002 25389.09228112  2083.93679320
0.45600002 25469.19216900  2618.86980889
0.45700002 25548.74151648  1755.19862537
0.45800002 25626.84589669  1764.40842361
0.45900002 25703.70037636  1773.55541002
0.46000002 25779.91719660  2139.21763036
0.46100002 25853.91295624  1970.84387806
0.46200002 25927.20623437  2700.96683748
0.46300002 25998.87262538  2714.28243073
0.46400002 26068.47037696  1818.27589497
0.46500002 26137.56986482  1827.01622014
0.46600002 26203.88254430  2569.81488292
0.46700002 26268.57755303  2028.45965479
0.46800002 26332.13568810  1852.46583346
0.46900002 26393.02269757  2232.84982604
0.47000002 26452.15637914  2242.61392412
0.47100002 26509.55169288  2815.31452322
0.47200002 26564.95079353  2261.74001776
0.47300002 26618.22159590  3028.08903227
0.47400002 26668.58252223  2280.16391372
0.47500002 26717.29054280  2289.13756221
0.47600002 26764.40637485  2106.49270358
0.47700002 26808.00664388  2306.56100097
