# SAXS profile: number of points = 501, q_min = 0, q_max = 0.5, delta_q = 0.001
#    q    intensity    error
0.00000000 1700912.83420644 255.13692513
0.00100000 1700830.36818541 663.32385935
0.00200000 1700582.91689700 918.31480420
0.00300000 1700170.70283766 1122.11270385
0.00400000 1699593.56936434 1784.57331564
0.00500000 1698852.07124399 2446.34707942
0.00600000 1697946.08935346 2139.41215969
0.00700000 1696876.19054290 2239.87666461
0.00800000 1695642.17338150 2746.94043685
0.00900000 1694245.31226590 2795.50488474
0.01000000 1692684.97125561 3351.51638780
0.01100000 1690962.43315670 3652.47901464
0.01200000 1689077.60035976 3623.07161162
0.01300000 1687031.68175688 3542.76668794
0.01400000 1684824.57337102 4169.94100395
0.01500000 1682457.88926292 5653.05875965
0.01600000 1679930.88811143 4283.82395619
0.01700000 1677245.90540044 5434.27697727
0.01800000 1674402.83814696 5249.25313379
0.01900000 1671402.39173226 5014.20740145
0.02000000 1668245.72676972 6831.46656015
0.02100000 1664934.84174513 5494.28522686
0.02200000 1661468.34424416 8598.09907210
0.02300000 1657849.41608629 10146.03888828
0.02400000 1654077.57035864 6202.79117168
0.02500000 1650155.47638311 10940.53130808
0.02600000 1646082.94110120 6666.63621638
0.02700000 1641862.22622324 12412.47899875
0.02800000 1637493.21011585 8547.71494880
0.02900000 1632978.48946722 10287.76495600
0.03000000 1628319.21305723 9843.19009538
0.03100000 1623515.66944708 11689.31335788
0.03200000 1618569.66614955 9614.30425975
0.03300000 1613484.86102253 10697.40512173
0.03400000 1608259.03074979 10132.03236122
0.03500000 1602895.92967929 14714.58531395
0.03600000 1597396.55632911 8865.55129734
0.03700000 1591762.88991295 13609.57333816
0.03800000 1585996.20475746 12061.50169538
0.03900000 1580098.69870162 10428.65189438
0.04000000 1574070.14720490 13552.74459545
0.04100000 1567914.85613484 11853.43686198
0.04200000 1561633.24630858 11079.78839658
0.04300000 1555226.58209350 13343.84469376
0.04400000 1548698.15669447 14635.19826045
0.04500000 1542049.35123195 14896.19742505
0.04600000 1535280.26949440 11906.09904341
0.04700000 1528395.30449744 11004.44670418
0.04800000 1521394.56945533 13418.70072694
0.04900000 1514282.08327702 12492.82776855
0.05000000 1507057.18548084 13834.78560695
0.05100000 1499724.76991091 14037.42450029
0.05200000 1492282.76225086 13050.01336403
0.05300000 1484737.79903872 13229.01440614
0.05400000 1477089.18790829 15841.78227908
0.05500000 1469339.79713970 16045.19133326
0.05600000 1461490.83812910 14994.89669893
0.05700000 1453547.31508109 15175.03467779
0.05800000 1445507.84556205 14072.01953360
0.05900000 1437375.53695353 14230.01848046
0.06000000 1429153.92805258 14384.43495787
0.06100000 1420844.59812950 15856.62645613
0.06200000 1412449.38679705 18686.70626081
0.06300000 1403971.67944801 13478.12875287
0.06400000 1395410.30542361 17686.82644840
0.06500000 1386771.41057742 17847.74888901
0.06600000 1378055.62144112 20774.18946522
0.06700000 1369265.01259595 19553.10529494
0.06800000 1360402.35024215 21120.24747613
0.06900000 1351470.39549976 17028.52778055
0.07000000 1342469.86384881 17156.76566341
0.07100000 1333404.11891821 15840.84167470
0.07200000 1324275.10734666 17400.97572572
0.07300000 1315085.96912767 16057.20043542
0.07400000 1305838.76523550 22036.03019605
0.07500000 1296535.23639853 16258.55262652
0.07600000 1287176.29533524 19326.95298052
0.07700000 1277767.81162183 20929.83773573
0.07800000 1268309.38708035 15029.46694173
0.07900000 1258803.22636378 19637.33125234
0.08000000 1249254.12801076 15178.43836737
0.08100000 1239662.19688644 16772.63031082
0.08200000 1230029.86476911 16845.25978848
0.08300000 1220359.78489593 21527.14761588
0.08400000 1210654.65506228 20066.60184956
0.08500000 1200915.76351339 17040.99548425
0.08600000 1191146.27461376 17098.90557490
0.08700000 1181349.16322721 20271.95259290
0.08800000 1171524.02571376 25023.75436446
0.08900000 1161676.28814287 17250.89368919
0.09000000 1151805.87521444 23583.22640285
0.09100000 1141915.56735158 17334.27912678
0.09200000 1132007.24050532 22108.10244586
0.09300000 1122086.04864588 22149.97964115
0.09400000 1112148.65318145 17432.93095792
0.09500000 1102200.93985148 20633.20256384
0.09600000 1092243.89697546 20659.79428246
0.09700000 1082282.40974383 25455.28347390
0.09800000 1072315.49839446 15923.88589986
0.09900000 1062346.79355792 15935.20265268
0.10000000 1052376.43596070 17537.85413004
0.10100000 1042407.42702634 23923.25157541
0.10200000 1032442.18833813 17546.35581612
0.10300000 1022482.30575557 19140.86966414
0.10400000 1012531.15054353 20731.57628270
0.10500000 1002590.37777584 25505.90041065
0.10600001 992657.95271205 17525.37697976
0.10700001 982741.80512016 17512.45979134
0.10800001 972839.56950449 15905.92770996
0.10900001 962955.46694509 20655.39573813
0.11000001 953089.90492865 20629.63196321
0.11100001 943245.49115039 20600.48249646
0.11200001 933423.28809878 18985.83057373
0.11300001 923625.53749203 17373.39717818
0.11400001 913854.25165062 18916.78389985
0.11500001 904111.50062941 18877.84902206
0.11600001 894397.58153428 20405.68178364
0.11700001 884716.23554953 25055.16497073
0.11800001 875065.72406441 26553.87064738
0.11900001 865449.66461109 29598.37992383
0.12000001 855868.87116756 18640.82489210
0.12100001 846328.28985892 20134.15096423
0.12200001 836825.18275873 18527.31041912
0.12300001 827364.00203884 29239.04520963
0.12400001 817942.95988760 30672.86244101
0.12500001 808565.02843119 21394.63166041
0.12600001 799233.81760803 16747.94543720
0.12700001 789947.77669274 19717.09743545
0.12800001 780708.81562834 18128.05955325
0.12900001 771518.91975345 18053.54357313
0.13000001 762379.58484451 16478.83550314
0.13100001 753289.98502100 19389.68512842
0.13200001 744254.00193826 19302.22845018
0.13300001 735271.47877247 16256.85316206
0.13400001 726342.78070802 16179.28620305
0.13500001 717470.76225276 16100.04466404
0.13600001 708655.26706851 18931.72635238
0.13700001 699898.02924953 14487.88988862
0.13800001 691197.59612021 17293.76467043
0.13900001 682559.36165243 21500.62090598
0.14000001 673980.28334839 18531.08876460
0.14100001 665464.04427422 18426.70025501
0.14200001 657009.49639533 18320.71067109
0.14300001 648619.73987431 28020.37408422
0.14400001 640290.75455487 19496.85439586
0.14500001 632029.68067730 17993.88585769
0.14600001 623833.05595942 17882.17539266
0.14700001 615704.15688247 13668.63292763
0.14800001 607640.02766652 17654.98183679
0.14900001 599644.44081825 16190.40066597
0.15000001 591716.47851859 17423.09253205
0.15100001 583857.90348088 18636.74515848
0.15200001 576069.17599665 18509.10349816
0.15300001 568350.53268302 18380.45709432
0.15400001 560699.88281078 15643.52746865
0.15500001 553121.79050186 18120.27071199
0.15600001 545613.13262256 16703.94684358
0.15700001 538179.14472984 12754.84633209
0.15800001 530813.32251981 12659.89833963
0.15900001 523522.30997525 13820.98963571
0.16000001 516301.23173846 16209.27793555
0.16100001 509155.27741185 13609.72120766
0.16200001 502081.67259231 14731.07696925
0.16300001 495080.91646308 15832.68845592
0.16400001 488154.05713335 14498.17618131
0.16500001 481299.96713889 17976.55462133
0.16600001 474520.55766726 13075.41458385
0.16700001 467813.06655013 18862.22373388
0.16800001 461179.92654405 17536.36753484
0.16900001 454622.18526393 12752.15289878
0.17000001 448136.65883466 13793.64701026
0.17100001 441725.62693787 15955.13039842
0.17200001 435387.63024772 12428.14049231
0.17300001 429124.05087160 16800.20738500
0.17400001 422934.55006990 14432.64220273
0.17500001 416817.56001382 12104.38251446
0.17600001 410772.87277324 13087.22434465
0.17700001 404804.33169590 15131.58663347
0.17800001 398906.86125148 13923.84464964
0.17900001 393081.92249386 12735.85489036
0.18000001 387331.33318472 15774.06928904
0.18100001 381653.37208695 10419.13755014
0.18200001 376045.08977432 16515.90112306
0.18300001 370509.96719375 12271.29069314
0.18400001 365045.84955212 12156.02736435
0.18500001 359653.67270059 12041.20553087
0.18600001 354332.56930675 12920.73775019
0.18700001 349080.99782328 14766.12690555
0.18800001 343898.21327375 11699.41776833
0.18900001 338788.85368399 10621.03106481
0.19000001 333744.90005906 9561.79183848
0.19100001 328772.37176276 13256.10265583
0.19200001 323866.57952328 12188.71929629
0.19300001 319031.00634142 10212.18299554
0.19400001 314260.90275237 11949.77139183
0.19500001 309558.77769224 11831.33704249
0.19600001 304921.90276190 9911.48691766
0.19700001 300353.01714154 10704.58203680
0.19800001 295848.29557497 10597.28644831
0.19900001 291408.92712497 9616.49504960
0.20000001 287032.76896525 11250.24991129
0.20100001 282721.85529632 8566.47262035
0.20200001 278472.92020175 11023.35106719
0.20300001 274287.37707323 8393.19413514
0.20400001 270163.94693072 8307.54176078
0.20500001 266101.38389895 8222.53315113
0.20600001 262099.64727627 8952.01387586
0.20700001 258158.33623394 10470.90261260
0.20800001 254276.10104947 10363.02298813
0.20900001 250455.35559428 10256.14729641
0.21000001 246689.82193040 9369.27987982
0.21100001 242983.64929752 10817.63257811
0.21200001 239333.26022204 12234.71684094
0.21300001 235739.38862078 9080.68167897
0.21400001 232201.53431561 8237.34981928
0.21500001 228719.62029715 8892.61925757
0.21600001 225290.81767923 8066.53810838
0.21700001 221916.23256584 7982.32726279
0.21800001 218594.61675894 9335.08355006
0.21900001 215324.43971786 9237.41890066
0.22000001 212105.69900579 7031.30425450
0.22100001 208939.34539493 6957.68053063
0.22200001 205822.93586536 8261.73303629
0.22300001 202755.47183994 8175.10101115
0.22400001 199736.22717771 6741.09798601
0.22500001 196767.67116925 7337.46680487
0.22600001 193844.37953098 7260.44157867
0.22700001 190969.26922162 6531.14931623
0.22800001 188139.32878724 7755.10349935
0.22900001 185354.76144627 8952.63540123
0.23000001 182615.42242941 8225.91209235
0.23100001 179921.40435580 6887.39168446
0.23200001 177268.95677651 8673.77046529
0.23300001 174660.56850457 7969.76211779
0.23400001 172092.85645817 6672.90082476
0.23500001 169566.91616523 6602.93602777
0.23600001 167082.21065477 8315.68201760
0.23700001 164637.16699062 8816.32070934
0.23800001 162231.58923325 5816.00274910
0.23900001 159864.93689051 6906.16560033
0.24000001 157535.91017957 7403.40044907
0.24100001 155245.42376918 7889.57280914
0.24200001 152991.80941212 6691.86206022
0.24300001 150773.85930973 6070.15586294
0.24400001 148591.31633285 6006.80424690
0.24500001 146443.49065464 5403.76506078
0.24600001 144330.26859650 6951.66771580
0.24700001 142251.60306553 7937.63982655
0.24800001 140205.67541224 7855.02333657
0.24900001 138190.81401751 6736.80250205
0.25000001 136209.61864091 6666.78009977
0.25100001 134258.81730000 9642.46871466
0.25200001 132340.96584389 6529.04185880
0.25300001 130451.34861753 7455.29492621
0.25400001 128592.75983801 5902.40795581
0.25500001 126761.56683982 5354.40883664
0.25600001 124960.63786953 5298.95609956
0.25700001 123186.85883348 5244.06482866
0.25800001 121440.42648699 4717.96079225
0.25900001 119722.32741712 7003.75648528
0.26000001 118029.52134705 8317.54076287
0.26100001 116362.85311457 6402.28448129
0.26200001 114722.51653673 4978.38384067
0.26300001 113106.11932996 4479.00253740
0.26400001 111515.08289992 4875.99723052
0.26500001 109948.17635952 4825.62568876
0.26600001 108404.50730620 4341.60072306
0.26700001 106884.48089372 5585.78323583
0.26800001 105387.46636022 4677.62291575
0.26900001 103911.81762550 6312.64321947
0.27000001 102458.81587130 5414.43638094
0.27100001 101027.09739592 5358.47749946
0.27200001 99617.09149282  4895.18410761
0.27300001 98227.72492680  5248.30759121
0.27400001 96856.98089560  4794.42078123
0.27500001 95508.50105643  4744.86255704
0.27600001 94177.46205423  5869.61060032
0.27700001 92867.46223147  4259.83069416
0.27800001 91575.07988650  4215.65900209
0.27900001 90301.61559655  4551.20164146
0.28000001 89046.04105507  4128.61988892
0.28100001 87808.45680692  4085.72768860
0.28200001 86588.90918091  4410.83924244
0.28300001 85386.36156297  4001.20509222
0.28400001 84199.98471395  4319.45942027
0.28500001 83030.99144877  4274.43564210
0.28600001 81878.11021854  3524.85281175
0.28700001 80741.82321765  4185.65631372
0.28800001 79619.63422762  3796.66243785
0.28900001 78515.15121166  4440.03201118
0.29000001 77424.60113359  4055.50079934
0.29100001 76349.82966562  5685.00858600
0.29200001 75289.47060251  3970.76686753
0.29300001 74244.03396740  5238.65928472
0.29400001 73212.03931767  3239.63289316
0.29500001 72195.36154572  5128.75872699
0.29600001 71191.60294298  4757.37909187
0.29700001 70201.69826664  5020.82569771
0.29800001 69225.80500904  3415.25525179
0.29900001 68263.45385543  3071.85556891
0.30000001 67313.00983508  3647.01904551
0.30100001 66376.97385097  4209.62788091
0.30200001 65452.38205366  3867.25417672
0.30300001 64541.46204011  4708.94529337
0.30400001 63642.59465926  3785.14349655
0.30500001 62756.59327550  4032.73887480
0.30600001 61881.31957699  4274.45235215
0.30700001 61019.09497908  3100.99055365
0.30800001 60168.52458096  3625.45462027
0.30900001 59329.91195635  3034.72514024
0.31000001 58503.07538310  3002.08545542
0.31100001 57686.76887996  3509.66318482
0.31200001 56882.94103181  4005.98131183
0.31300001 56089.42147902  4755.26137813
0.31400001 55308.57287348  3135.99623040
0.31500001 54537.10866193  5170.11814594
0.31600002 53778.23394285  2557.15514506
0.31700002 53029.35845916  3541.30072558
0.31800002 52290.92242483  3252.75698345
0.31900002 51563.88829382  3465.09345741
0.32000002 50847.72745174  2937.98183127
0.32100002 50141.33987232  3148.37487966
0.32200002 49446.59080583  3353.96241317
0.32300002 48760.62028799  3317.67276149
0.32400002 48086.29669466  3516.31061230
0.32500002 47421.37696467  3246.46762073
0.32600002 46766.97379817  2523.31219076
0.32700002 46122.88422237  3176.94441567
0.32800002 45489.68023688  2918.39057379
0.32900002 44864.54104151  3331.19233008
0.33000002 44250.57060864  2416.74502823
0.33100002 43645.52169514  2173.54708335
0.33200002 43051.83399677  3440.70273596
0.33300002 42467.13272209  2978.64483018
0.33400002 41892.66341033  2947.14901048
0.33500002 41327.67759394  2082.91504937
0.33600002 40771.88784526  2473.22283382
0.33700002 40225.67930383  2855.21885220
0.33800002 39689.82341804  2623.69590130
0.33900002 39162.75179021  3195.68069742
0.34000002 38645.27535875  2965.05889232
0.34100002 38137.46407984  2152.09719995
0.34200002 37639.43299849  1936.54891949
0.34300002 37150.03512430  2108.63609352
0.34400002 36670.72346866  2087.48103232
0.34500002 36200.37355224  2066.67942398
0.34600002 35739.93678865  2418.34293734
0.34700002 35287.27797995  1841.99599779
0.34800002 34844.85486600  2006.54106249
0.34900002 34410.99654318  1987.23514449
0.35000002 33986.63482261  3041.97389387
0.35100002 33571.84299004  1772.59339383
0.35200002 33164.57309529  2107.27707428
0.35300002 32767.55870639  1913.95319469
0.35400002 32378.57961941  1724.15944640
0.35500002 31999.03280091  1879.62327575
0.35600002 31627.96669088  2032.41323582
0.35700002 31265.45223086  2182.64132362
0.35800002 30912.22112710  2496.93477981
0.35900002 30567.98734595  1980.80567384
0.36000002 30232.10378957  2128.18904707
0.36100002 29904.20247749  2435.69740716
0.36200002 29586.39591597  1772.07726732
0.36300002 29275.55771998  2397.66829084
0.36400002 28973.72677831  2379.46742438
0.36500002 28679.64329672  1889.41498988
0.36600002 28394.60596096  1875.74775863
0.36700002 28117.31817278  2172.90645132
0.36800002 27849.15223727  2158.03090909
0.36900002 27588.72385398  1990.52652035
0.37000002 27335.81295637  1521.23806308
0.37100002 27090.91341339  2267.50956011
0.37200002 26854.79442193  1652.77840099
0.37300002 26626.14624977  2091.21762552
0.37400002 26405.11500230  1782.34534709
0.37500002 26192.03075242  1624.95366486
0.37600002 25986.92354919  1616.51665595
0.37700002 25789.19079186  1608.47190588
0.37800002 25598.73609665  1455.28821603
0.37900002 25416.83871428  1738.51185041
0.38000002 25241.42195162  2163.82099931
0.38100002 25072.64513048  1867.66142425
0.38200002 24912.39445525  1860.58226803
0.38300002 24758.51664667  1711.30875169
0.38400002 24612.11055989  1563.48439739
0.38500002 24471.94990331  1700.31115983
0.38600002 24339.81710002  1695.51173951
0.38700002 24213.53151618  1972.91864141
0.38800002 24093.87782054  2249.40453989
0.38900002 23981.07262419  1964.04994097
0.39000002 23875.24840859  1540.31172405
0.39100002 23774.99625193  1537.76683043
0.39200002 23682.02329762  1675.26640744
0.39300002 23594.33710598  1952.19554464
0.39400002 23514.19600807  1950.50265128
0.39500002 23438.62484285  1670.70525795
0.39600002 23369.37253991  1530.81082075
0.39700002 23305.46038494  1947.87047126
0.39800002 23248.43464504  1669.70265531
0.39900002 23195.86548193  1809.27759331
0.40000002 23149.28092851  1531.67224520
0.40100002 23107.61497006  2229.42279794
0.40200002 23071.79410059  1394.69001946
0.40300002 23040.93615278  1675.53695642
0.40400002 23015.13537505  1537.98649431
0.40500002 22993.90967737  1680.39499884
0.40600002 22978.32170526  1823.67458854
0.40700002 22966.93326689  2108.36457380
0.40800002 22959.90207732  1972.02608286
0.40900002 22957.30836574  1553.06198453
0.41000002 22959.64532172  1557.00842127
0.41100002 22965.96122403  2554.73364761
0.41200002 22975.40555473  1707.99172987
0.41300002 22990.48865383  1570.48035436
0.41400002 23008.45740156  1718.73184933
0.41500002 23030.19444083  2011.91788168
0.41600002 23054.69695376  1586.27849907
0.41700002 23084.16167999  2315.80320947
0.41800002 23117.50239914  1743.52211356
0.41900002 23152.09422997  1896.15660728
0.42000002 23190.57370281  1757.38175847
0.42100002 23233.01918916  2058.91025810
0.42200002 23277.57129546  1772.35436242
0.42300002 23324.87382093  1631.80824984
0.42400002 23374.64044483  1788.16007876
0.42500002 23427.64856730  1796.43217727
0.42600002 23481.76822519  1955.20952392
0.42700002 23539.25396305  2266.83026406
0.42800002 23598.28343903  1974.11449464
0.42900002 23660.35820261  1831.31181166
0.43000002 23724.21355040  1993.90162233
0.43100002 23788.28295842  2928.81353663
0.43200002 23855.39497883  2324.11196595
0.43300002 23923.42649699  2336.12270813
0.43400002 23993.42340757  2348.35642730
0.43500002 24064.27565356  1888.56444279
0.43600002 24136.98347159  1740.39727569
0.43700002 24210.14111483  1749.66698128
0.43800002 24283.88721183  1759.00345355
0.43900002 24359.56475068  2411.59702460
0.44000002 24435.26336798  2101.31057291
0.44100002 24512.06147845  1787.66472834
0.44200002 24589.28115674  1960.74937236
0.44300002 24666.95182584  2135.66479029
0.44400002 24744.91419405  1816.89541080
0.44500002 24822.63692508  2158.82483568
0.44600002 24900.31728114  2003.47962339
0.44700002 24979.19490846  2014.32237288
0.44800002 25056.65791779  2025.07918889
0.44900002 25134.81620215  2714.56027848
0.45000002 25212.88402257  1705.65168496
0.45100002 25289.67237761  2057.56784216
0.45200002 25366.52705914  2068.38671443
0.45300002 25442.24831139  2079.14063054
0.45400002 25517.69511444  2264.05760633
0.45500002 25592.75891184  2450.76270955
0.45600002 25666.37893240  2287.25946696
0.45700002 25739.50368470  2298.79518303
0.45800002 25811.19510326  2132.52104050
0.45900002 25881.68902884  1964.42029039
0.46000002 25951.58067227  1794.55188854
0.46100002 26019.37437834  1803.14272988
0.46200002 26086.46781998  2898.72844154
0.46300002 26152.19436723  2002.21209565
0.46400002 26215.74574900  2559.96769372
0.46500002 26278.90399789  2020.58502416
0.46600002 26339.38164754  2398.59590342
0.46700002 26398.12004831  3150.35179588
0.46800002 26456.07001001  2233.42153610
0.46900002 26511.13183613  2803.55232455
0.47000002 26564.72295024  2439.83709501
0.47100002 26616.54692197  2072.89677253
0.47200002 26666.42926940  2081.18157097
0.47300002 26714.25927800  2279.26070963
0.47400002 26759.31890082  2669.24218687
0.47500002 26802.64515045  2296.45074534
0.47600002 26844.49446429  2112.79603695
0.47700002 26883.05586697  2120.26671672
