# SAXS profile: number of points = 501, q_min = 0, q_max = 0.5, delta_q = 0.001
#    q    intensity    error
0.00000000 1682732.95097188 302.89193117
0.00100000 1682650.93046840 555.27482024
0.00200000 1682404.80892658 1059.91506319
0.00300000 1681994.80988124 1614.71507501
0.00400000 1681420.79059050 1387.17220495
0.00500000 1680683.28187553 2117.66101898
0.00600000 1679782.18418122 1763.77136520
0.00700000 1678718.04662787 2014.46173968
0.00800000 1677490.68873718 2264.61252541
0.00900000 1676101.35518902 3771.22821039
0.01000000 1674549.44542748 4420.81072682
0.01100000 1672836.21051676 4817.76849605
0.01200000 1670961.53886836 3910.05017238
0.01300000 1668926.67073114 5257.11924467
0.01400000 1666731.51675077 5625.21911841
0.01500000 1664377.66008549 5192.85853070
0.01600000 1661864.35642106 6356.63144747
0.01700000 1659193.93322933 6271.75334895
0.01800000 1656366.28389468 6136.83735797
0.01900000 1653382.14489854 4960.14665851
0.02000000 1650242.65342722 8837.04980885
0.02100000 1646949.76853981 6521.92137911
0.02200000 1643502.13957218 7371.10743087
0.02300000 1639903.02500519 7674.74650637
0.02400000 1636151.79111942 11657.58204328
0.02500000 1632251.12908285 8275.51360240
0.02600000 1628200.91808421 9231.89962779
0.02700000 1624003.39894665 7502.89604677
0.02800000 1619658.39364529 7045.51433546
0.02900000 1615168.47283280 9448.73599990
0.03000000 1610534.88402632 8986.78506595
0.03100000 1605757.92174786 10019.92989276
0.03200000 1600839.17786811 10301.40058404
0.03300000 1595782.55087843 8952.34052314
0.03400000 1590585.81125887 8350.57589441
0.03500000 1585252.53482670 9416.40049170
0.03600000 1579783.79493828 9644.58051381
0.03700000 1574181.52228756 12561.96912881
0.03800000 1568447.13096007 11010.49936890
0.03900000 1562582.70209146 9375.49664673
0.04000000 1556588.09480309 10530.31894931
0.04100000 1550467.38202028 15628.71193541
0.04200000 1544221.21510100 10956.25002943
0.04300000 1537850.76676212 10149.81553176
0.04400000 1531359.35170534 13437.67893529
0.04500000 1524748.38742051 16833.22297928
0.04600000 1518017.87364879 11772.22915740
0.04700000 1511172.16600002 15232.61614172
0.04800000 1504211.61131547 13267.14702910
0.04900000 1497139.97334109 12351.40535499
0.05000000 1489956.58640421 14817.61894179
0.05100000 1482666.54628085 19660.15931953
0.05200000 1475267.63132044 14074.05385867
0.05300000 1467766.43039222 16644.47209658
0.05400000 1460162.37993349 22888.04637282
0.05500000 1452458.25670380 17080.90989565
0.05600000 1444655.16638858 14822.16269881
0.05700000 1436758.41195483 17499.71827447
0.05800000 1428766.41205073 16437.95833817
0.05900000 1420682.13846621 16621.98179640
0.06000000 1412509.35343085 14216.90730648
0.06100000 1404249.47256940 14365.47277570
0.06200000 1395904.32694604 15829.55580750
0.06300000 1387477.56234693 13319.78522130
0.06400000 1378967.59019306 16133.92155979
0.06500000 1370380.82605149 14923.44789379
0.06600000 1361717.84965142 20527.89754397
0.06700000 1352980.62844196 16560.48366714
0.06800000 1344171.96278990 15303.39851270
0.06900000 1335294.83280088 18226.77532109
0.07000000 1326349.64426676 15538.18681021
0.07100000 1317339.84836265 22763.63364590
0.07200000 1308267.47060085 14325.52947418
0.07300000 1299135.40720313 15862.44406519
0.07400000 1289945.91920669 20316.64917963
0.07500000 1280700.78309876 21899.98441750
0.07600000 1271400.85294489 17621.61664793
0.07700000 1262051.76497102 26578.81141653
0.07800000 1252653.38562835 20781.52064215
0.07900000 1243207.94871027 16410.34569268
0.08000000 1233719.97496289 16488.66823888
0.08100000 1224189.87794435 21080.55068726
0.08200000 1214619.67723858 16634.21726035
0.08300000 1205012.46544951 16701.47355496
0.08400000 1195370.56750131 15240.97545103
0.08500000 1185695.65549407 18354.56960871
0.08600000 1175990.47959240 15346.67647923
0.08700000 1166258.10178545 21552.45073305
0.08800000 1156498.24263396 18527.10271710
0.08900000 1146716.29936658 20124.87199914
0.09000000 1136912.17664979 17070.73713430
0.09100000 1127088.65421301 18664.58899065
0.09200000 1117247.47495524 20261.28391032
0.09300000 1107393.94892097 18737.10649624
0.09400000 1097524.73348845 17203.70100596
0.09500000 1087645.42582809 28191.77076255
0.09600000 1077757.26854082 20385.77969274
0.09700000 1067865.02177970 20406.90152560
0.09800000 1057967.81660631 18852.98737835
0.09900000 1048069.36688967 20437.35361536
0.10000000 1038169.43551162 17301.09445642
0.10100000 1028271.38831588 20452.31887551
0.10200000 1018377.51949035 18880.72009943
0.10300000 1008489.38094995 15732.43508288
0.10400000 998610.07332690 18873.73127379
0.10500000 988741.64487753 18865.19147186
0.10600001 978882.01582502 17282.16280258
0.10700001 969038.81217645 21977.80129439
0.10800001 959209.91260826 20388.00765198
0.10900001 949399.56986612 18798.11236809
0.11000001 939607.93013616 25031.15643703
0.11100001 929837.60154400 17183.39968541
0.11200001 920090.08184327 24952.84419430
0.11300001 910367.00944077 17124.00425379
0.11400001 900670.87345698 20197.54528826
0.11500001 891003.41161311 15503.46009209
0.11600001 881365.18839757 26295.53163414
0.11700001 871759.56150613 21602.20295148
0.11800001 862185.21431414 24624.01088056
0.11900001 852645.56717396 23021.43139804
0.12000001 843141.22278926 18363.61669737
0.12100001 833677.22288599 15256.29389751
0.12200001 824251.12678688 19769.66420736
0.12300001 814866.91275134 19703.48287865
0.12400001 805523.37367315 19634.63315842
0.12500001 796222.83854516 21068.05730064
0.12600001 786969.25574990 17990.11803420
0.12700001 777761.04427513 14933.01275382
0.12800001 768600.03172380 20821.37584069
0.12900001 759488.37183696 17772.02873862
0.13000001 750427.10287113 17695.07191976
0.13100001 741416.11911550 22020.05977570
0.13200001 732458.30619450 20457.56145639
0.13300001 723554.50397913 17452.13545872
0.13400001 714704.38940991 17367.31748145
0.13500001 705911.10746837 14400.58727132
0.13600001 697174.58903042 18625.02002413
0.13700001 688496.18977238 18527.43334040
0.13800001 679874.79737413 15592.92921307
0.13900001 671315.36738007 15507.38571778
0.14000001 662815.57590189 15420.40510059
0.14100001 654378.35506874 16725.91154440
0.14200001 646003.10819303 15242.44405673
0.14300001 637692.38937853 19283.81876438
0.14400001 629442.64877238 15059.41608223
0.14500001 621260.74830738 19047.85544163
0.14600001 613143.46068806 17575.75812975
0.14700001 605093.71532034 16119.69733661
0.14800001 597108.57786605 13345.37734492
0.14900001 589192.17843215 14582.50710421
0.15000001 581343.34985294 22384.62674226
0.15100001 573563.71736572 14384.97871029
0.15200001 565854.15339989 14284.98877665
0.15300001 558214.29651046 15473.70102946
0.15400001 550642.72914762 14082.68846253
0.15500001 543143.44143745 13980.51284238
0.15600001 535713.56338599 17662.47701842
0.15700001 528358.21432224 23791.97151384
0.15800001 521070.99346805 13670.29815885
0.15900001 513858.54629437 16032.38740112
0.16000001 506715.70685954 13460.90338811
0.16100001 499648.09046472 13355.59408856
0.16200001 492652.64988816 13249.89364422
0.16300001 485729.91162109 16728.53894595
0.16400001 478880.93284400 15407.99474166
0.16500001 472104.54259408 12930.94403214
0.16600001 465402.49710444 15155.83303376
0.16700001 458772.63477624 12717.17803644
0.16800001 452216.86041193 11463.69795272
0.16900001 445736.02756940 13639.52308766
0.17000001 439327.18701086 16903.11431840
0.17100001 432992.88873563 14522.58217397
0.17200001 426731.55645463 11073.68441293
0.17300001 420544.15710900 13171.44362267
0.17400001 414430.82333100 15230.33347668
0.17500001 408389.75513933 20484.83108524
0.17600001 402420.79613439 16026.40896296
0.17700001 396527.73834851 16939.66578232
0.17800001 390705.41698712 10490.44094159
0.17900001 384955.64761689 16630.08476255
0.18000001 379279.55839791 13386.67264597
0.18100001 373676.16567701 13261.76774632
0.18200001 368142.16275629 14147.70398303
0.18300001 362680.92274819 11010.99333479
0.18400001 357290.67757771 11897.78012540
0.18500001 351971.94422582 9820.01770782
0.18600001 346723.95312726 14588.41101704
0.18700001 341545.46654168 10594.74087267
0.18800001 336435.28696833 10491.73491980
0.18900001 331398.34203415 12278.30915248
0.19000001 326426.35746925 11222.53870004
0.19100001 321525.60318872 12037.91915218
0.19200001 316691.30329757 10085.03503004
0.19300001 311926.73936007 10892.48225315
0.19400001 307227.45167552 9885.04372477
0.19500001 302595.80281016 11565.21212992
0.19600001 298029.05848410 11448.78682269
0.19700001 293529.90325499 10461.40624639
0.19800001 289094.70507513 13807.16376690
0.19900001 284724.45279322 10250.08078497
0.20000001 280417.09093815 9300.03326049
0.20100001 276174.66424413 10041.71126651
0.20200001 271993.90949164 8282.21493547
0.20300001 267875.99865407 9836.40713549
0.20400001 263819.94762532 8112.46377292
0.20500001 259824.47121870 12042.86481022
0.20600001 255889.33591319 8739.90068123
0.20700001 252014.38554309 11007.98888086
0.20800001 248197.98431468 9337.20861129
0.20900001 244442.68029788 9239.93375204
0.21000001 240742.34331070 7619.49552597
0.21100001 237100.96238223 9047.77315222
0.21200001 233514.91276643 8952.96217871
0.21300001 229985.03130740 12550.28375177
0.21400001 226510.58175895 7304.96660708
0.21500001 223092.02935875 12287.90955802
0.21600001 219725.91763612 7867.28685292
0.21700001 216413.60759345 7784.39783318
0.21800001 213153.94182799 8402.52878414
0.21900001 209945.48099876 7621.02132059
0.22000001 206787.69176298 7540.51353667
0.22100001 203682.19301205 8139.14081761
0.22200001 200625.92220238 8724.21863949
0.22300001 197618.35287048 8631.97006155
0.22400001 194658.65467409 10511.56784945
0.22500001 191749.04449830 7150.32220746
0.22600001 188884.42841870 7074.66660097
0.22700001 186067.41917063 7636.20724387
0.22800001 183295.37697200 8814.67509543
0.22900001 180567.92152973 6852.55294612
0.23000001 177885.42518707 6163.73027423
0.23100001 175247.81771662 6708.48677945
0.23200001 172651.34412888 6034.16476268
0.23300001 170098.44050973 8955.68331639
0.23400001 167586.03186061 7088.88948298
0.23500001 165114.61573878 7598.57497568
0.23600001 162684.08520961 6940.10340329
0.23700001 160293.00650241 6866.95272336
0.23800001 157940.66488487 6228.39041433
0.23900001 155626.89400146 6723.08213886
0.24000001 153350.22102258 5543.61075218
0.24100001 151111.78870068 5485.35818930
0.24200001 148909.70773658 6513.31092449
0.24300001 146742.77543131 5907.86441832
0.24400001 144610.96804200 7971.67999040
0.24500001 142513.34943267 8939.86283281
0.24600001 140449.87915897 6244.40192280
0.24700001 138420.37468296 5664.16199998
0.24800001 136423.25657512 6624.03153637
0.24900001 134456.86658645 10588.47874460
0.25000001 132523.55000538 6486.36546187
0.25100001 130620.30458195 4937.44774678
0.25200001 128749.30747869 5374.64009497
0.25300001 126906.37888895 6285.67324375
0.25400001 125093.82306441 5741.80675031
0.25500001 123308.37006754 5682.04996154
0.25600001 121552.56729088 6560.19236707
0.25700001 119823.54336196 6028.32275176
0.25800001 118121.49583340 5506.82439630
0.25900001 116447.10768509 4995.58115606
0.26000001 114797.77276918 6741.49952485
0.26100001 113173.96394830 4892.51069298
0.26200001 111576.26563767 7923.03099782
0.26300001 110001.87923915 6534.11193598
0.26400001 108452.43515943 6466.47675236
0.26500001 106926.73852221 4693.01477581
0.26600001 105423.77189516 5066.66671703
0.26700001 103944.02118789 6267.82477422
0.26800001 102486.80889461 4962.41152150
0.26900001 101050.59401804 5320.31402682
0.27000001 99636.59999556  5670.31917408
0.27100001 98243.30673321  4409.15981484
0.27200001 96871.36530563  4760.25911639
0.27300001 95519.64847498  4318.44351192
0.27400001 94186.21304325  5050.73591347
0.27500001 92874.43180731  4614.00199055
0.27600001 91579.67635588  4185.64930594
0.27700001 90305.52434575  3765.74054344
0.27800001 89048.64252851  4099.35445281
0.27900001 87810.32422712  4425.64055050
0.28000001 86589.37200554  5109.63908388
0.28100001 85386.07892135  4334.19757118
0.28200001 84200.25978348  4646.59155607
0.28300001 83031.03984111  3890.83471111
0.28400001 81877.67327795  3850.29776813
0.28500001 80741.24090230  4502.93921825
0.28600001 79620.47173409  3427.66147039
0.28700001 78515.85779130  4748.63930398
0.28800001 77425.08137291  4363.29066730
0.28900001 76351.40445315  6974.70112693
0.29000001 75291.43863917  3615.11859738
0.29100001 74246.77840153  3252.00904792
0.29200001 73216.08866127  4504.98614857
0.29300001 72199.95375066  4139.22354446
0.29400001 71196.91027873  3465.50977186
0.29500001 70208.84356495  5922.81832351
0.29600001 69233.16434034  3701.20514084
0.29700001 68271.09427719  3662.06167038
0.29800001 67322.51785523  4529.12260311
0.29900001 66387.20062623  3584.90900352
0.30000001 65463.48938470  3842.37969133
0.30100001 64553.59011766  4678.84443323
0.30200001 63655.00425320  3471.74409632
0.30300001 62769.50739222  2862.28967259
0.30400001 61895.76788001  3114.90466603
0.30500001 61034.52654261  2801.48490093
0.30600001 60183.82651197  4711.49108154
0.30700001 59345.69001084  3564.30231080
0.30800001 58518.76590029  3254.81391347
0.30900001 57703.52278398  3219.85672379
0.31000001 56899.63477431  2919.80489668
0.31100001 56106.08179685  2888.34122765
0.31200001 55324.63432268  4155.98672709
0.31300001 54553.11410805  3854.17769421
0.31400001 53793.95468246  3558.47027073
0.31500001 53043.96573911  3017.14091409
0.31600002 52306.06598805  3233.29962214
0.31700002 51577.81746119  2706.28821033
0.31800002 50859.80587162  2433.64182619
0.31900002 50152.85714379  2888.80470826
0.32000002 49456.31650231  3333.85045328
0.32100002 48769.46470975  2355.56525702
0.32200002 48093.83874464  2563.16125726
0.32300002 47426.64266897  2765.92193142
0.32400002 46770.69648159  2964.09302987
0.32500002 46124.12028730  2932.11046550
0.32600002 45487.66977073  2677.40436949
0.32700002 44861.22290889  2427.88949880
0.32800002 44245.32160087  2838.55874172
0.32900002 43637.21429392  2592.05065180
0.33000002 43040.09817987  2991.71736615
0.33100002 42451.56021701  2536.90535870
0.33200002 41874.12860962  2509.93538772
0.33300002 41305.38176962  2690.21964205
0.33400002 40746.66943895  2457.02428352
0.33500002 40197.09930952  3038.90085171
0.33600002 39656.50549156  2405.56373704
0.33700002 39125.16866222  2380.37537414
0.33800002 38604.00933367  2159.31536434
0.33900002 38091.33143603  1942.65799524
0.34000002 37588.04389042  2307.15424326
0.34100002 37094.03540515  2283.50892768
0.34200002 36609.83791107  2071.93387470
0.34300002 36133.89655039  2237.41098036
0.34400002 35667.88526235  2584.13840964
0.34500002 35210.42932519  1827.42136852
0.34600002 34762.71280122  1990.33921570
0.34700002 34322.62625363  2329.13352788
0.34800002 33892.55621455  1774.27540186
0.34900002 33470.80868416  2108.66104697
0.35000002 33058.35506702  2436.73146740
0.35100002 32655.26043756  2241.45718260
0.35200002 32259.45431586  2220.57964301
0.35300002 31873.75320498  2030.99565042
0.35400002 31495.95596004  2180.30765460
0.35500002 31127.31275627  1994.63829590
0.35600002 30766.89634321  1977.08085266
0.35700002 30414.98062051  2286.59835135
0.35800002 30071.98259910  1781.31397363
0.35900002 29737.93422495  1927.01822905
0.36000002 29412.01653261  2388.99115602
0.36100002 29093.88137166  2369.69674997
0.36200002 28785.68656483  1880.85684924
0.36300002 28484.31138036  3266.01129757
0.36400002 28191.81850094  2006.55277685
0.36500002 27906.76946333  2144.91440255
0.36600002 27630.77632832  1673.18173982
0.36700002 27362.24713141  1812.47533584
0.36800002 27102.75957864  1800.16537648
0.36900002 26850.90617420  1639.24789958
0.37000002 26606.35265881  1776.77231472
0.37100002 26369.63296782  1618.56814824
0.37200002 26141.63542216  2340.19931385
0.37300002 25920.91778690  1599.57991240
0.37400002 25707.68585145  1590.66313741
0.37500002 25502.34162386  2013.66499001
0.37600002 25304.75564668  1860.27919949
0.37700002 25114.35500400  1851.17919504
0.37800002 24931.32402859  1700.81500580
0.37900002 24756.54275908  1552.23530453
0.38000002 24588.23568453  1826.78305672
0.38100002 24426.44393103  1539.59883391
0.38200002 24273.00123154  1533.93238549
0.38300002 24125.76886183  1389.64435227
0.38400002 23985.98801627  1523.70996092
0.38500002 23852.35796268  1657.26190976
0.38600002 23726.65119242  1515.06538367
0.38700002 23606.65401026  1511.29806133
0.38800002 23493.30668255  1645.00141184
0.38900002 23386.60279823  1504.92796136
0.39000002 23286.81588034  1638.92617930
0.39100002 23192.53191579  1500.09303538
0.39200002 23105.32115878  1362.05874684
0.39300002 23023.46756022  2177.09919564
0.39400002 22949.01031205  1767.64760303
0.39500002 22879.07780280  1494.91901446
0.39600002 22815.38923132  1494.52214240
0.39700002 22756.92551125  1358.58851739
0.39800002 22705.26084748  2174.25588177
0.39900002 22658.10072378  1495.43471862
0.40000002 22616.71768635  1496.43519662
0.40100002 22580.27805521  2042.38624686
0.40200002 22549.67313647  1499.44058625
0.40300002 22523.82692732  1774.42716941
0.40400002 22503.01645399  1640.46997722
0.40500002 22486.74400788  2054.16416245
0.40600002 22476.10432470  1372.16623404
0.40700002 22469.51223036  1787.67447775
0.40800002 22467.33121922  1929.71916985
0.40900002 22469.41906599  1520.05627184
0.41000002 22476.47670410  1385.67485446
0.41100002 22487.40389587  1528.69378927
0.41200002 22501.55303742  1533.36840439
0.41300002 22521.15443440  1538.42013231
0.41400002 22543.68337187  2105.01653459
0.41500002 22569.92262664  1408.36323864
0.41600002 22598.93093271  1978.98847555
0.41700002 22632.83054839  1844.80210541
0.41800002 22670.48137731  1994.77575091
0.41900002 22709.45670008  1859.90459187
0.42000002 22752.30324521  2011.53122522
0.42100002 22798.92550669  1876.12366885
0.42200002 22847.85541793  1449.69649496
0.42300002 22899.41340494  1602.04303772
0.42400002 22953.43481322  1902.26600029
0.42500002 23010.56507448  1617.41269573
0.42600002 23068.84520164  1920.82748674
0.42700002 23130.53893844  1633.47873724
0.42800002 23193.74424440  1641.76926414
0.42900002 23259.90367075  1950.34301521
0.43000002 23327.78721141  1809.76981762
0.43100002 23395.95681712  1819.26968831
0.43200002 23467.19963102  1676.61415709
0.43300002 23539.24596874  1685.64548370
0.43400002 23613.33013905  1848.92383751
0.43500002 23688.14978960  1704.12557662
0.43600002 23764.97006628  1713.57324783
0.43700002 23842.09193871  2036.35316899
0.43800002 23919.81853729  1732.63213786
0.43900002 23999.50260617  1742.36397178
0.44000002 24079.22017778  2070.69263732
0.44100002 24160.01067982  2402.71317597
0.44200002 24241.17691922  1771.90891088
0.44300002 24322.87175668  2267.86467007
0.44400002 24404.78967302  1791.92176666
0.44500002 24486.44437789  1801.95752717
0.44600002 24568.11606600  1976.75071235
0.44700002 24650.94444461  2153.50660874
0.44800002 24732.44584660  1832.30333738
0.44900002 24814.46088658  1842.47380815
0.45000002 24896.49874006  2021.09786350
0.45100002 24977.23389515  2709.53046136
0.45200002 25057.99627878  2213.49820619
0.45300002 25137.76403581  2054.25817436
0.45400002 25217.14931150  1893.17757428
0.45500002 25296.11846309  2076.30550185
0.45600002 25373.72939007  2609.05384819
0.45700002 25450.78825535  1923.31615961
0.45800002 25526.44801641  2460.49444091
0.45900002 25600.98387755  2649.70195691
0.46000002 25674.81052015  2130.49587794
0.46100002 25746.60834032  2141.08805106
0.46200002 25817.73772342  2151.65036385
0.46300002 25887.34435193  2342.28702798
0.46400002 25954.91964779  2172.42687748
0.46500002 26022.07157446  1818.94288926
0.46600002 26086.50667319  2192.83185488
0.46700002 26149.29129941  2019.24836984
0.46800002 26211.19707874  2028.35358207
0.46900002 26270.36247337  1852.06064215
0.47000002 26327.88582519  2232.07826605
0.47100002 26383.70597131  2801.94970696
0.47200002 26437.64602596  2063.32618189
0.47300002 26489.46395122  2260.08117144
0.47400002 26538.54390190  2269.04561116
0.47500002 26585.96674271  2088.06192694
0.47600002 26631.83227196  3239.36307194
0.47700002 26674.41926206  2295.06714209
