# SAXS profile: number of points = 501, q_min = 0, q_max = 0.5, delta_q = 0.001
#    q    intensity    error
0.00000000 1700912.83420644 357.19169518
0.00100000 1700830.35067352 510.24911732
0.00200000 1700582.84590355 994.84099636
0.00300000 1700170.54147994 1224.12283347
0.00400000 1699593.28142668 1912.04251426
0.00500000 1698851.62358031 1681.86317391
0.00600000 1697945.44402126 1782.84278881
0.00700000 1696875.32305893 3054.37570845
0.00800000 1695641.02528488 2518.02702886
0.00900000 1694243.86781030 3049.63909242
0.01000000 1692683.18357604 3351.51284820
0.01100000 1690960.26638448 3043.72861201
0.01200000 1689075.04322785 3952.43577444
0.01300000 1687028.67644860 4251.31245215
0.01400000 1684821.09876235 6065.35622443
0.01500000 1682453.88326915 4845.46739958
0.01600000 1679926.34309924 7282.48102289
0.01700000 1677240.77400488 5887.11538085
0.01800000 1674397.05670083 5726.43819159
0.01900000 1671396.00582159 9025.53883869
0.02000000 1668238.64074361 5780.44715166
0.02100000 1664927.02917254 7691.96322352
0.02200000 1661459.78290555 7451.64746488
0.02300000 1657840.03237854 7758.69170469
0.02400000 1654067.38252564 6823.02826403
0.02500000 1650144.44153887 8366.23270069
0.02600000 1646071.01950264 7999.90552068
0.02700000 1641849.40969817 7585.34462022
0.02800000 1637479.42484537 9972.25015463
0.02900000 1632963.64917733 12492.17248977
0.03000000 1628303.37867958 9085.93327067
0.03100000 1623498.87697033 8572.07446483
0.03200000 1618551.75045561 10415.38099389
0.03300000 1613465.81561722 11520.14645459
0.03400000 1608238.86534196 11820.55620567
0.03500000 1602874.56753685 8655.52306439
0.03600000 1597374.07836503 13298.13981695
0.03700000 1591739.10881201 9980.20467381
0.03800000 1585971.17721256 10205.72499768
0.03900000 1580072.39015626 12324.56521397
0.04000000 1574042.49794349 11616.43417312
0.04100000 1567885.87132655 9877.68144735
0.04200000 1561602.93218620 12086.80725586
0.04300000 1555194.72699071 14369.99994442
0.04400000 1548664.94235237 12544.18661563
0.04500000 1542014.65322069 12767.88192193
0.04600000 1535244.09434714 11905.81850513
0.04700000 1528357.63221244 12104.59301008
0.04800000 1521355.34754285 13418.35478966
0.04900000 1514241.22351072 11356.80970496
0.05000000 1507014.87774269 16140.13009221
0.05100000 1499680.77429106 14037.01270127
0.05200000 1492237.18474808 14235.94340591
0.05300000 1484690.40521779 15633.79069576
0.05400000 1477040.14869133 14622.69815396
0.05500000 1469289.08374109 13576.23176709
0.05600000 1461438.41746668 12495.29905242
0.05700000 1453493.14651100 13909.93006141
0.05800000 1445451.89485469 14071.47485344
0.05900000 1437317.87899948 15523.03381821
0.06000000 1429094.44474002 16999.07921436
0.06100000 1420783.14905560 14534.61229406
0.06200000 1412386.20736174 13347.05028346
0.06300000 1403906.52236727 17520.75421833
0.06400000 1395343.20803947 14965.05660609
0.06500000 1386702.45279474 19219.69689479
0.06600000 1377984.81584913 19388.24726614
0.06700000 1369192.21704606 13965.76126745
0.06800000 1360327.52827006 19711.14680729
0.06900000 1351393.65784179 17027.56088602
0.07000000 1342391.11311020 14296.46602411
0.07100000 1333323.29372138 18719.85992064
0.07200000 1324192.24876208 14499.90580322
0.07300000 1315001.27127098 14596.51479504
0.07400000 1305751.83527024 14689.70883521
0.07500000 1296446.33578144 17735.38670479
0.07600000 1287085.29872805 17839.00307667
0.07700000 1277674.69480081 14948.79463010
0.07800000 1268214.13203975 19536.83962028
0.07900000 1258706.03763591 18125.36779210
0.08000000 1249154.67822664 15177.23005243
0.08100000 1239560.79024152 24394.55749650
0.08200000 1229926.25909929 18375.09917320
0.08300000 1220254.11437425 18450.24307525
0.08400000 1210546.70759131 26238.60111865
0.08500000 1200805.70703597 21686.55208715
0.08600000 1191034.08412993 23314.49329149
0.08700000 1181234.79118088 17151.52997334
0.08800000 1171407.46234474 23457.43553510
0.08900000 1161557.58130737 17249.13089260
0.09000000 1151684.84818301 22008.69848265
0.09100000 1141792.57438348 20483.75974679
0.09200000 1131882.11851764 17368.73192475
0.09300000 1121958.73673137 20565.50461070
0.09400000 1112019.03199225 20600.15353581
0.09500000 1102069.24378738 19043.75742775
0.09600000 1092110.01963933 17479.22168599
0.09700000 1082146.30064055 20679.81677746
0.09800000 1072177.39635929 15921.83508454
0.09900000 1062206.33331254 17526.40532379
0.10000000 1052233.93217954 17535.47930442
0.10100000 1042262.68003257 19135.94370540
0.10200000 1032295.42865062 17543.86163512
0.10300000 1022333.39526713 17543.24188803
0.10400000 1012379.90207618 19133.98104940
0.10500000 1002437.14780157 20720.37681994
0.10600001 992502.60169482 15929.66750675
0.10700001 982584.47824293 17509.65622625
0.10800001 972680.17135980 20674.31801522
0.10900001 962794.03891374 17474.71262874
0.11000001 952926.32319066 22212.71363912
0.11100001 943079.77277480 20596.86320697
0.11200001 933255.53168060 23728.02301003
0.11300001 923455.69594153 17370.20245846
0.11400001 913682.41096200 20489.32903055
0.11500001 903937.67672358 17301.36794718
0.11600001 894221.77896851 21971.03014390
0.11700001 884538.48692146 25050.13112935
0.11800001 874886.06827727 17178.38875970
0.11900001 865268.07374649 17132.30866714
0.12000001 855685.30746499 18636.82687447
0.12100001 846142.98876406 21678.18439335
0.12200001 836637.82324128 15435.96856601
0.12300001 827174.82885522 18462.54304990
0.12400001 817751.91704173 15332.84916698
0.12500001 808372.33099692 18333.88533091
0.12600001 799039.17937891 21310.37591825
0.12700001 789751.42642276 18195.87372229
0.12800001 780510.76706371 16613.17245992
0.12900001 771319.19714081 16544.79755846
0.13000001 762178.16670580 16474.48184987
0.13100001 753086.93406808 19384.45859665
0.13200001 744049.26941498 19296.91871194
0.13300001 735065.11271513 16252.29040831
0.13400001 726134.69956913 17645.07403142
0.13500001 717261.19466757 19021.76777943
0.13600001 708444.39128844 16014.38622017
0.13700001 699685.50317854 15931.83965861
0.13800001 690983.74020663 18729.11516149
0.13900001 682344.04036824 17195.07062817
0.14000001 673763.46515557 18525.12734811
0.14100001 665245.95744131 17003.68747414
0.14200001 656790.10893804 18314.59305155
0.14300001 648399.03832383 23809.21381027
0.14400001 640068.80474807 19490.09602392
0.14500001 631806.46811122 15220.21853477
0.14600001 623608.75086446 19250.80304733
0.14700001 615478.71115028 16396.35363857
0.14800001 607413.53196995 19005.97031202
0.14900001 599416.82338371 17532.94291119
0.15000001 591487.80653900 17416.35928530
0.15100001 583628.24129385 22621.43169994
0.15200001 575838.55600617 15858.59458073
0.15300001 568119.00209530 17060.61443800
0.15400001 560467.60248508 14333.95960999
0.15500001 552888.69466358 16818.87488540
0.15600001 545379.22740733 14128.04955276
0.15700001 537944.36690803 15299.13851694
0.15800001 530577.96811724 13919.71365055
0.15900001 523286.30729573 15070.64636146
0.16000001 516064.61271563 21187.03367512
0.16100001 508918.04156381 17313.39259127
0.16200001 501843.82189813 13497.09022709
0.16300001 494842.59661984 14607.75414182
0.16400001 487915.43774858 18113.86148156
0.16500001 481061.00468393 15571.94545679
0.16600001 474281.10000274 11880.74211599
0.16700001 467573.45395482 12961.13675558
0.16800001 460940.01126309 11684.82983724
0.16900001 454382.06281779 12745.41746385
0.17000001 447896.34205568 13786.25005946
0.17100001 441485.19866019 19363.54172761
0.17200001 435147.27562544 15808.90127001
0.17300001 428883.70811815 13432.63837261
0.17400001 422694.13617050 11095.72159848
0.17500001 416577.28618097 12097.40496203
0.17600001 410532.72936978 14169.53782341
0.17700001 404564.35512106 15122.61630868
0.17800001 398667.09381436 11774.63317195
0.17900001 392842.31103344 15910.11434835
0.18000001 387092.26415399 13662.42210866
0.18100001 381414.59470393 11453.88082000
0.18200001 375806.79521182 14442.25582221
0.18300001 370272.04075562 10219.50880762
0.18400001 364808.59511728 10123.43899274
0.18500001 359416.94400668 14038.82649612
0.18600001 354096.46999605 14898.60967895
0.18700001 348845.60950077 10821.19131796
0.18800001 343663.63587235 9742.86453729
0.18900001 338555.01083078 12543.46374393
0.19000001 333511.88094308 16243.69692883
0.19100001 328540.34987304 12300.55128045
0.19200001 323635.39686743 11243.09421843
0.19300001 318800.80301472 10204.81418671
0.19400001 314031.70535230 12859.59894184
0.19500001 309330.64782835 11822.61791868
0.19600001 304694.96214863 10804.48386837
0.19700001 300127.32254082 12479.29466099
0.19800001 295623.89641918 9706.81109766
0.19900001 291185.74706139 9609.13010715
0.20000001 286810.87578987 12106.28763925
0.20100001 282501.42677231 12839.69045364
0.20200001 278253.88893488 11861.96384593
0.20300001 274069.80709316 10902.49744147
0.20400001 269947.94091102 9130.98953290
0.20500001 265886.91883020 9037.49679821
0.20600001 261886.78848171 8131.58516672
0.20700001 257947.15012738 9657.54175727
0.20800001 254066.80145762 9557.99352264
0.20900001 250247.74376274 8671.08473127
0.21000001 246484.07150893 11701.83184806
0.21100001 242779.88984444 11580.60129303
0.21200001 239131.25165537 9932.31700705
0.21300001 235539.31497014 10585.13731518
0.21400001 232003.51391300 9726.74778065
0.21500001 228523.74088823 8885.00346580
0.21600001 225096.81178571 8059.59172703
0.21700001 221724.55123312 9425.51111855
0.21800001 218405.15662649 10761.91460160
0.21900001 215137.11842514 9229.38281682
0.22000001 211920.57711666 8430.20095630
0.22100001 208756.61954865 7646.75533563
0.22200001 205642.60577499 8254.49458612
0.22300001 202577.39922438 8848.58121653
0.22400001 199560.67802445 8755.72516235
0.22500001 196594.55144741 7997.46673106
0.22600001 193673.74125571 7913.50944192
0.22700001 190801.28971240 7177.94485842
0.22800001 187973.88225333 7102.59347682
0.22900001 185191.91420252 7028.03347635
0.23000001 182455.24616099 7586.48949415
0.23100001 179763.86203774 6881.36096424
0.23200001 177114.28656098 6809.15906887
0.23300001 174508.59205418 6125.25187079
0.23400001 171943.75766685 9697.62839106
0.23500001 169420.62172022 10195.73349734
0.23600001 166938.77465538 7121.60846363
0.23700001 164496.67005974 7634.29081856
0.23800001 162093.92620715 6392.17428232
0.23900001 159730.37202854 6325.32303152
0.24000001 157404.31738455 7966.23287964
0.24100001 155116.77618629 6756.88709028
0.24200001 152866.29802371 11701.15133571
0.24300001 150651.26091342 6616.60369230
0.24400001 148471.94120101 6001.97850697
0.24500001 146327.16234238 7559.26156419
0.24600001 144217.17258357 8549.19439517
0.24700001 142141.60694418 6873.96843700
0.24800001 140098.89363232 5755.96331718
0.24900001 138087.23587478 5696.09874930
0.25000001 136109.22455988 5636.96380182
0.25100001 134161.68165990 6085.57416800
0.25200001 132247.05738836 6022.53127839
0.25300001 130360.81091093 4966.74713069
0.25400001 128505.50257752 6881.46998860
0.25500001 126677.60863924 4864.42040189
0.25600001 124880.08061405 4814.12733544
0.25700001 123109.49151297 6193.63881106
0.25800001 121366.49040214 6601.12372530
0.25900001 119651.72826966 7466.26819729
0.26000001 117962.37326818 6465.51798475
0.26100001 116299.02802541 4570.55201766
0.26200001 114662.10045745 6332.78810791
0.26300001 113049.06880873 6267.44067132
0.26400001 111461.51518636 6202.83361363
0.26500001 109897.99457479 5700.40924833
0.26600001 108357.71387447 5641.64463983
0.26700001 106841.05763733 5583.51393634
0.26800001 105347.48961014 5526.00282900
0.26900001 103875.34185324 7151.81762503
0.27000001 102425.68725271 4579.96482224
0.27100001 100997.43737872 4532.76520406
0.27200001 99590.94293588  5709.54902871
0.27300001 98204.84305172  5247.08501257
0.27400001 96837.56278775  5192.91455025
0.27500001 95492.44564135  3953.38743665
0.27600001 94164.87738828  4303.80592471
0.27700001 92858.25445961  5421.06515191
0.27800001 91569.25028864  6514.69462011
0.27900001 90299.27245268  3792.56962251
0.28000001 89047.01127571  5254.66438407
0.28100001 87812.74874602  6314.61506119
0.28200001 86596.44580122  4043.62122807
0.28300001 85397.37611212  3637.92839456
0.28400001 84214.24099816  5760.25435691
0.28500001 83048.49910224  5700.44924819
0.28600001 81898.86613888  3878.32098958
0.28700001 80765.85208476  3837.99347273
0.28800001 79646.99428262  3797.96710214
0.28900001 78545.63720109  5125.10306996
0.29000001 77458.28388203  4057.26510179
0.29100001 76386.76958123  3345.74066603
0.29200001 75329.53612794  3972.87992345
0.29300001 74287.17394104  4914.09678881
0.29400001 73258.29908843  3565.84787692
0.29500001 72244.79652545  3849.20294109
0.29600001 71244.00344947  3808.70460470
0.29700001 70257.16316722  3454.54487646
0.29800001 69284.27378376  4039.61977419
0.29900001 68324.88246211  4304.46779888
0.30000001 67377.41127485  3346.29928938
0.30100001 66444.17204194  3611.90536319
0.30200001 65522.45739118  3275.79541235
0.30300001 64614.27268985  3830.33426639
0.30400001 63718.31339855  3206.62427359
0.30500001 62835.03323464  2884.12816201
0.30600001 61962.49714625  3138.71044154
0.30700001 61103.01918880  4799.03135429
0.30800001 60255.13184230  4747.80333829
0.30900001 59419.02753177  3315.58189325
0.31000001 58594.79012631  3553.48121545
0.31100001 57781.02563600  3515.39776613
0.31200001 56979.67542507  2675.19588787
0.31300001 56188.61258674  4499.02242283
0.31400001 55410.25251735  3665.38837757
0.31500001 54641.00414110  4402.97232216
0.31600002 53884.49326793  2818.42855383
0.31700002 53137.89617759  2534.67776768
0.31800002 52401.72453445  2758.16490147
0.31900002 51676.92416588  3224.64022063
0.32000002 50962.78795364  2453.85835616
0.32100002 50258.57035346  2912.98687562
0.32200002 49565.89119732  2641.61429644
0.32300002 48881.87301982  3563.48871188
0.32400002 48209.49345191  2585.23420877
0.32500002 47546.50488971  2790.02903904
0.32600002 46893.91352916  2300.14656752
0.32700002 46251.61634497  2730.69555831
0.32800002 45620.22928909  3602.17347524
0.32900002 44996.67468893  2450.06905283
0.33000002 44384.38897473  2203.68501695
0.33100002 43780.84823095  3052.40088321
0.33200002 43188.78623804  2804.46396717
0.33300002 42605.52590958  2561.44433898
0.33400002 42032.52081935  3168.20140679
0.33500002 41468.80379338  2090.02781016
0.33600002 40914.40576831  2068.22330953
0.33700002 40369.50593782  2251.40745277
0.33800002 39834.72444772  2025.59583409
0.33900002 39308.90927805  3207.60714899
0.34000002 38792.37980662  2182.65335319
0.34100002 38285.72071543  2749.68059200
0.34200002 37788.68741940  2138.65086579
0.34300002 37300.22294067  2117.16075438
0.34400002 36821.75824302  2286.63129519
0.34500002 36352.20952583  2075.34774012
0.34600002 35892.51316342  2241.84647836
0.34700002 35440.51466590  2404.99343913
0.34800002 34998.78809647  2565.06130108
0.34900002 34565.42673754  2722.02748450
0.35000002 34141.66020860  2157.07019414
0.35100002 33727.40385136  2849.29121231
0.35200002 33320.42894197  2117.18015525
0.35300002 32923.84771504  2272.73331541
0.35400002 32535.15400803  2078.99643958
0.35500002 32155.85028416  2403.97148111
0.35600002 31784.87910146  2042.49642780
0.35700002 31422.49920416  1856.12711590
0.35800002 31069.41358001  2175.01440069
0.35900002 30725.17701804  1825.07560132
0.36000002 30389.23221570  2468.36550364
0.36100002 30061.14904989  2122.01661194
0.36200002 29743.31261872  2105.38048344
0.36300002 29432.17320194  1928.39607953
0.36400002 29130.18088401  1913.85297473
0.36500002 28835.71286103  1899.69685327
0.36600002 28550.34794664  1728.86640180
0.36700002 28272.66737602  2340.97696962
0.36800002 28003.90362700  2170.02259485
0.36900002 27742.98353839  2001.65635711
0.37000002 27489.42810953  1988.72277079
0.37100002 27243.92208951  1976.27420199
0.37200002 27007.09257442  1964.36097145
0.37300002 26777.69224560  1802.67432737
0.37400002 26555.77132178  1941.89086989
0.37500002 26341.84293303  1634.24801298
0.37600002 26135.86020656  1477.98296470
0.37700002 25937.22323218  2058.89687770
0.37800002 25745.83003704  1756.38060833
0.37900002 25562.86914293  1894.20869322
0.38000002 25386.31021499  1740.99323702
0.38100002 25216.36844818  1444.89798053
0.38200002 25054.88910975  2015.16482656
0.38300002 24899.82190147  1434.22980947
0.38400002 24752.14983465  1572.38039274
0.38500002 24610.61111596  1424.95445112
0.38600002 24477.14140324  1989.25737608
0.38700002 24349.43077289  1417.13693812
0.38800002 24228.34599996  1696.46886729
0.38900002 24113.94278112  1833.86543538
0.39000002 24006.59022972  2252.77853388
0.39100002 23904.69907601  1546.15600949
0.39200002 23810.12626717  1403.60700995
0.39300002 23720.77940109  1822.46756773
0.39400002 23638.95663815  1540.66907188
0.39500002 23561.67833154  1959.38926288
0.39600002 23490.59837866  1538.75171970
0.39700002 23424.89797786  1678.15977064
0.39800002 23366.00498224  1538.30101089
0.39900002 23311.55097813  1398.69312496
0.40000002 23263.05112178  1679.12710953
0.40100002 23219.40620794  1540.14328674
0.40200002 23181.63485102  1961.86185039
0.40300002 23148.71590859  1402.81225053
0.40400002 23120.97882395  2106.89929516
0.40500002 23097.62930328  1547.31026034
0.40600002 23079.95455211  1831.74067982
0.40700002 23066.43422284  1835.16559372
0.40800002 23057.30555364  1980.39206784
0.40900002 23052.59243557  1701.28140235
0.41000002 23052.60261359  1847.55092401
0.41100002 23056.77620348  1852.38148796
0.41200002 23063.89601536  1428.80842585
0.41300002 23076.75553206  1576.37324509
0.41400002 23092.38997090  2012.50188132
0.41500002 23111.94770158  2307.49696786
0.41600002 23134.03458956  1881.14411179
0.41700002 23161.28898432  2033.09804338
0.41800002 23192.19249283  1603.39230397
0.41900002 23224.43685427  1902.08146849
0.42000002 23260.48458964  1468.89967144
0.42100002 23300.56603276  1474.92589976
0.42200002 23342.73180271  1925.42532398
0.42300002 23387.57273481  1784.93963570
0.42400002 23434.97344193  1942.17351603
0.42500002 23485.55879940  1500.72727839
0.42600002 23537.22490020  1507.55932630
0.42700002 23592.27933361  1666.08684549
0.42800002 23648.80121748  1978.34055960
0.42900002 23708.48432926  1835.03677404
0.43000002 23769.78928449  2766.09051011
0.43100002 23831.49148111  1698.70879327
0.43200002 23896.10100142  2172.87256703
0.43300002 23961.68459910  1871.88688959
0.43400002 24029.25927438  2038.28201454
0.43500002 24097.62603977  1733.58329945
0.43600002 24167.88130616  1901.04563363
0.43700002 24238.55053886  2070.21469963
0.43800002 24309.87624289  1600.80542646
0.43900002 24383.07899439  2092.06827686
0.44000002 24456.40772699  2750.24546127
0.44100002 24530.74419821  1789.02725916
0.44200002 24605.50020947  1962.04267968
0.44300002 24680.80174236  2136.86391612
0.44400002 24756.30926642  1982.98046621
0.44500002 24831.68055635  1993.48740954
0.44600002 24906.96544192  1670.01211202
0.44700002 24983.49708327  2182.55840863
0.44800002 25058.64194069  1856.46957616
0.44900002 25134.34122818  1866.22492464
0.45000002 25210.15865017  1876.01404486
0.45100002 25284.71177445  1885.73389351
0.45200002 25359.27201754  2067.79513831
0.45300002 25432.74689233  2251.56118909
0.45400002 25505.93654109  3133.40445257
0.45500002 25578.75938705  1924.54594749
0.45600002 25650.15836503  1934.15028318
0.45700002 25721.14162228  2297.15526716
0.45800002 25790.59381301  1775.68246818
0.45900002 25859.07161023  1962.70362824
0.46000002 25926.78036820  2330.68803166
0.46100002 25992.50530709  1981.40877347
0.46200002 26057.51781682  2352.60310759
0.46300002 26121.18882085  1999.83831091
0.46400002 26182.76966668  2191.49792497
0.46500002 26243.91447737  2751.67456337
0.46600002 26302.41282781  2026.73251651
0.46700002 26359.30325292  2590.59244648
0.46800002 26415.32546142  2787.47735143
0.46900002 26468.58693983  2052.63901447
0.47000002 26520.24360129  2061.02082916
0.47100002 26570.28983256  2069.29427024
0.47200002 26618.40412027  2266.29103422
0.47300002 26664.54864790  2275.01939847
0.47400002 26707.82003610  2093.22549454
0.47500002 26749.52377528  2291.89930570
0.47600002 26789.76041140  2491.84968278
0.47700002 26826.67613958  2115.82004741
