# SAXS profile: number of points = 501, q_min = 0, q_max = 0.5, delta_q = 0.001
#    q    intensity    error
0.00000000 1682732.95097188 353.37391970
0.00100000 1682650.98449013 555.27483807
0.00200000 1682405.02641238 1287.03988596
0.00300000 1681995.29719078 1009.19721427
0.00400000 1681421.64170676 1387.17290712
0.00500000 1680684.62680392 1966.40109119
0.00600000 1679784.10635485 1763.77338348
0.00700000 1678720.67004454 3021.69733166
0.00800000 1677494.11405997 2717.54057951
0.00900000 1676105.69691565 2514.15865285
0.01000000 1674554.76798694 3868.22168108
0.01100000 1672842.65081570 3914.45197334
0.01200000 1670969.21554921 4887.58516977
0.01300000 1668935.66565180 3855.24155769
0.01400000 1666741.96158871 3750.16957982
0.01500000 1664389.61666734 3994.53525787
0.01600000 1661877.91147260 4661.56775007
0.01700000 1659209.25208293 4927.85169974
0.01800000 1656383.40263289 5664.83149191
0.01900000 1653401.18260527 5952.24452596
0.02000000 1650263.75916306 5198.33107651
0.02100000 1646973.02708419 6522.01348295
0.02200000 1643527.62114733 5670.17055057
0.02300000 1639930.83977964 9446.00206710
0.02400000 1636181.98160887 7976.38752405
0.02500000 1632283.90580851 8275.67978040
0.02600000 1628236.27251432 7253.79292583
0.02700000 1624041.41757379 7503.07169284
0.02800000 1619699.15811292 8454.82999308
0.02900000 1615212.07276117 9448.99105950
0.03000000 1610581.47959879 11233.80633657
0.03100000 1605807.64067168 10791.02784184
0.03200000 1600892.09384912 8716.85785249
0.03300000 1595838.56914800 8952.65478564
0.03400000 1590645.21537102 11691.24287242
0.03500000 1585315.25589788 11984.98388803
0.03600000 1579850.09584201 9644.98528085
0.03700000 1574251.26525616 11665.20241503
0.03800000 1568520.49624299 12846.18345875
0.03900000 1562659.75469290 10313.55485859
0.04000000 1556669.00096699 12445.56923945
0.04100000 1550552.01694557 11722.17379163
0.04200000 1544309.81584824 11952.95852920
0.04300000 1537943.37619717 16240.68280650
0.04400000 1531455.95617427 11371.06100269
0.04500000 1524849.11852474 12625.75128804
0.04600000 1518122.72516224 13913.59542291
0.04700000 1511281.31925325 14145.59380609
0.04800000 1504325.02742994 11056.78946606
0.04900000 1497257.71188609 11229.43336185
0.05000000 1490078.78746068 11399.10325489
0.05100000 1482793.14795791 13878.94451142
0.05200000 1475398.79664379 11729.42097992
0.05300000 1467902.10212719 15457.00985597
0.05400000 1460302.70265303 15661.74721632
0.05500000 1452603.18645328 12201.86733542
0.05600000 1444805.03534433 16059.00871723
0.05700000 1436912.80095530 13751.25614703
0.05800000 1428925.76618237 15175.19234542
0.05900000 1420846.15445258 15345.13918480
0.06000000 1412678.28342643 18096.40965614
0.06100000 1404423.25562108 13061.13688764
0.06200000 1396083.06323804 14512.28412071
0.06300000 1387661.19671561 21314.47697812
0.06400000 1379156.17849454 16136.12804302
0.06500000 1370574.51844472 16282.42604078
0.06600000 1361916.60750089 15055.98880037
0.06700000 1353184.34893743 13802.48100510
0.06800000 1344380.73571199 19480.07777231
0.06900000 1335508.85216967 18229.69668561
0.07000000 1326568.54115156 14127.95562485
0.07100000 1317563.81390911 22767.50377073
0.07200000 1308496.46397063 20059.25173238
0.07300000 1299369.68851895 17307.60506203
0.07400000 1290185.20138021 14514.58419574
0.07500000 1280945.36101980 18983.61114012
0.07600000 1271650.52210659 14687.56421889
0.07700000 1262306.40409240 16245.88418241
0.07800000 1252913.33577607 19301.13084278
0.07900000 1243473.12550823 16413.84602658
0.08000000 1233989.98756346 29985.95810447
0.08100000 1224465.05854484 21085.28929743
0.08200000 1214899.89697406 24200.80708335
0.08300000 1205297.71536811 19742.77750430
0.08400000 1195660.80108811 25915.94908004
0.08500000 1185990.99148439 19889.06986089
0.08600000 1176290.63090454 15350.59345404
0.08700000 1166563.34353955 20018.22791515
0.08800000 1156808.41687089 24709.42894481
0.08900000 1147031.38138525 21678.89412643
0.09000000 1137232.24910128 15523.22092944
0.09100000 1127413.53597794 20225.79978568
0.09200000 1117577.13656064 20267.26232382
0.09300000 1107728.38293937 23428.45640012
0.09400000 1097863.83646976 20337.92852643
0.09500000 1087989.11903838 18800.45286065
0.09600000 1078105.76764531 17255.08362229
0.09700000 1068218.04642649 17273.08662277
0.09800000 1058325.51140115 22002.58841654
0.09900000 1048431.29198926 23589.70517900
0.10000000 1038535.94339549 18880.58433883
0.10100000 1028642.13710834 23607.33815693
0.10200000 1018752.71678499 17313.70323613
0.10300000 1008868.64055619 15738.35153302
0.10400000 998993.41139675 15734.14696971
0.10500000 989129.38123081 17299.87369167
0.10600001 979273.84657353 18860.81517247
0.10700001 969434.55255039 15704.84049035
0.10800001 959609.81453282 18827.54544719
0.10900001 949803.18623166 21940.45463459
0.11000001 940015.28414890 18781.50626133
0.11100001 930248.81325001 20316.63503775
0.11200001 920504.67224429 15602.55492906
0.11300001 910785.26144222 24919.08592627
0.11400001 901092.45889500 21761.38390694
0.11500001 891428.50138655 17061.94231995
0.11600001 881793.54038522 23213.21604379
0.11700001 872191.19212392 16981.56331040
0.11800001 862620.04054362 18477.32213870
0.11900001 853083.36117876 15355.50122449
0.12000001 843582.10135967 16842.11744699
0.12100001 834120.93340326 16790.85518039
0.12200001 824697.52096334 16737.23697646
0.12300001 815315.87277132 16681.36354283
0.12400001 805974.95998487 16623.23433293
0.12500001 796676.95703958 16562.91471731
0.12600001 787425.58057652 16500.50381854
0.12700001 778219.52904087 19424.36036026
0.12800001 769061.00939608 23810.12997306
0.12900001 759951.34343212 16300.95708492
0.13000001 750891.94716420 16230.53020298
0.13100001 741882.88916106 17627.13827737
0.13200001 732926.76092970 17546.26748379
0.13300001 724024.67118289 16008.18623453
0.13400001 715176.03662694 15930.54696692
0.13500001 706384.30232226 15851.26449147
0.13600001 697648.93333993 15770.35488173
0.13700001 688971.58217228 17114.05490814
0.13800001 680351.48444505 15603.86203156
0.13900001 671793.21778044 18339.95571029
0.14000001 663294.06473630 16834.40415693
0.14100001 654857.73144092 18133.01143881
0.14200001 646483.08393967 15253.76908501
0.14300001 638172.67723281 16541.43657409
0.14400001 629923.43374748 19181.16946238
0.14500001 621741.85728304 16339.37678016
0.14600001 613624.54095791 16236.50611969
0.14700001 605575.06684462 13443.76711818
0.14800001 597589.86785080 14691.74759425
0.14900001 589673.07703463 15921.17383111
0.15000001 581824.12012474 19767.47541392
0.15100001 574043.97269685 14397.02351456
0.15200001 566333.94606287 19496.04701317
0.15300001 558693.39431222 18068.14522468
0.15400001 551121.07248850 16657.63520206
0.15500001 543620.93036089 15264.87644493
0.15600001 536189.87098128 17678.18088057
0.15700001 528833.18614675 16293.35123418
0.15800001 521544.77634809 12438.84350300
0.15900001 514330.93601002 14812.73165626
0.16000001 507186.85448568 14698.27573679
0.16100001 500117.43040772 17013.99578560
0.16200001 493120.16750123 15673.82526393
0.16300001 486195.67288468 15548.53835286
0.16400001 479344.84341272 15422.92106491
0.16500001 472566.11976860 14120.27632532
0.16600001 465861.90227563 12836.82532327
0.16700001 459229.75694460 12729.84946354
0.16800001 452671.48727393 17212.83411632
0.16900001 446187.87010760 13653.34946998
0.17000001 439776.45162660 14664.34647193
0.17100001 433439.33944716 17892.37677728
0.17200001 427175.09658803 13302.23313592
0.17300001 420984.73688717 12086.47236681
0.17400001 414868.32071533 11979.32332639
0.17500001 408823.88746346 12951.54136651
0.17600001 402851.54874551 12834.85094921
0.17700001 396954.90914596 10598.69657478
0.17800001 391129.10052999 11551.99852978
0.17900001 385375.34801351 15607.70233175
0.18000001 379695.55417822 14432.22869602
0.18100001 374088.23290474 12255.13108885
0.18200001 368550.28995189 12140.04712449
0.18300001 363084.84943526 15031.71347671
0.18400001 357690.51968268 12903.68610713
0.18500001 352367.31228737 13763.46786816
0.18600001 347115.03630714 12657.55039693
0.18700001 341931.77451634 14463.71474538
0.18800001 336817.08390463 17187.77660371
0.18900001 331775.25041830 11346.71410041
0.19000001 326798.41256096 10299.05245848
0.19100001 321892.80677226 10197.56460038
0.19200001 317053.44297292 10096.56736855
0.19300001 312283.82209581 9996.20561763
0.19400001 307579.30911032 9896.36473827
0.19500001 302942.41412768 10687.80887548
0.19600001 298370.21501776 9698.52429747
0.19700001 293865.64046568 9600.59092771
0.19800001 289424.85675405 9503.26562063
0.19900001 285048.99237976 8551.47017553
0.20000001 280735.80648453 11849.85895175
0.20100001 276487.63116918 10053.09074444
0.20200001 272301.00661197 13266.50566916
0.20300001 268177.09901572 17233.06119726
0.20400001 264115.19182746 8121.54253257
0.20500001 260113.58264608 9645.01210041
0.20600001 256172.30068061 7954.15031211
0.20700001 252291.09623176 7871.48257451
0.20800001 248468.46228253 11684.22999115
0.20900001 244706.76575026 10020.74253117
0.21000001 240999.93749465 9153.17805874
0.21100001 237352.04752311 7547.79546804
0.21200001 233759.61987582 10456.06829135
0.21300001 230222.96726066 11824.25215750
0.21400001 226742.00657373 8774.91606925
0.21500001 223316.77435633 10129.64936371
0.21600001 219943.73555269 7875.08582379
0.21700001 216624.68075213 8500.35287461
0.21800001 213358.31973359 8410.58536156
0.21900001 210142.87784652 7628.18682650
0.22000001 206978.23282939 8919.72736553
0.22100001 203865.69320923 8825.34627632
0.22200001 200802.45159651 8731.89502056
0.22300001 197787.86816031 8639.37448976
0.22400001 194821.13728306 8547.77780249
0.22500001 191904.42672433 6505.56037358
0.22600001 189032.64904578 7080.21820482
0.22700001 186208.43550106 6368.32879529
0.22800001 183429.34470305 6930.87811737
0.22900001 180694.63525246 6857.36173212
0.23000001 178005.04854746 9251.81283579
0.23100001 175359.99494287 9153.79216893
0.23200001 172756.47686207 10264.32655820
0.23300001 170196.24896242 7766.05520745
0.23400001 167676.51396743 7092.71687627
0.23500001 165197.91347700 9941.61090325
0.23600001 162760.11061043 6943.34664704
0.23700001 160361.77903629 6297.40736061
0.23800001 158001.99350037 6797.24608189
0.23900001 155681.05808524 5604.51835616
0.24000001 153397.07321579 7208.89579676
0.24100001 151151.51864492 6584.16046361
0.24200001 148942.11905593 7600.51669494
0.24300001 146767.87534278 6446.04538997
0.24400001 144628.91055330 7441.15779996
0.24500001 142523.97892127 6836.87559227
0.24600001 140453.35391096 6764.93611114
0.24700001 138416.73365329 5664.01300903
0.24800001 136412.54188041 5604.50954829
0.24900001 134438.85980298 8066.33196978
0.25000001 132498.56043131 6983.99945073
0.25100001 130588.28102900 4936.23725642
0.25200001 128710.13432494 7815.27972595
0.25300001 126860.16127189 6766.72132238
0.25400001 125040.70891067 5739.36881054
0.25500001 123248.21378765 5206.00479670
0.25600001 121485.58936399 5619.92362987
0.25700001 119749.66159628 8805.19303378
0.25800001 118040.78235542 4585.88461149
0.25900001 116359.76129719 4538.03090531
0.26000001 114703.63843776 5837.84195451
0.26100001 113073.16806148 4888.15328659
0.26200001 111468.83166262 5716.67930231
0.26300001 109887.89803786 4351.56096820
0.26400001 108331.92713298 6028.67203022
0.26500001 106799.75950205 6818.09696924
0.26600001 105290.44811864 4638.57091136
0.26700001 103804.28185506 5842.10525925
0.26800001 102340.84593776 4129.45332900
0.26900001 100898.45182994 4086.38749249
0.27000001 99478.35304910  4448.17476709
0.27100001 98079.00748109  6402.59791135
0.27200001 96701.13583061  4355.90286963
0.27300001 95343.36521322  4310.47374528
0.27400001 94004.09995335  6204.27089054
0.27500001 92686.50938425  4604.66600413
0.27600001 91386.06383551  6455.05492451
0.27700001 90106.30685393  4884.66312573
0.27800001 88843.95728319  4833.55572475
0.27900001 87600.09297061  4047.12448678
0.28000001 86373.80910234  4004.72184857
0.28100001 85165.22070950  3602.48900651
0.28200001 83974.10131354  3564.70076948
0.28300001 82799.84613445  3527.27361227
0.28400001 81641.39991682  3490.17001164
0.28500001 80500.04991775  4489.48799641
0.28600001 79374.45202012  3417.07032120
0.28700001 78265.08350408  3719.15694415
0.28800001 77169.70499071  3679.83755666
0.28900001 76091.44134948  3640.97564091
0.29000001 75026.92037537  3274.92522940
0.29100001 73977.88549667  4212.30099957
0.29200001 72942.99420099  3847.01369626
0.29300001 71922.68536163  5392.04397680
0.29400001 70915.57622439  3765.61727577
0.29500001 69923.62907066  3725.53113324
0.29600001 68944.00700867  3071.45565763
0.29700001 67978.18365007  3342.48744830
0.29800001 67025.93276868  3607.33587238
0.29900001 66087.06680064  3271.30996149
0.30000001 65159.85486198  4412.95137944
0.30100001 64246.58747345  3783.48171542
0.30200001 63344.78760245  3742.72695267
0.30300001 62456.07668241  3132.79695470
0.30400001 61579.35437240  3662.43227468
0.30500001 60715.29556543  3622.88185790
0.30600001 59861.64432557  3583.61750721
0.30700001 59020.90065085  2999.44231308
0.30800001 58191.44779745  2697.17373311
0.30900001 57373.75569178  3201.45571917
0.31000001 56567.39045038  2638.86888945
0.31100001 55771.73240182  3132.14063998
0.31200001 54987.97122579  2839.85390841
0.31300001 54214.55355227  2808.85615253
0.31400001 53453.53191351  3030.81540299
0.31500001 52701.68099620  2997.67175700
0.31600002 51962.10763603  2964.95800210
0.31700002 51232.28711372  2932.53625324
0.31800002 50512.76192493  2658.73934981
0.31900002 49804.51286392  2390.61673066
0.32000002 49106.75685486  2837.38854542
0.32100002 48418.72243216  3274.07416589
0.32200002 47742.03761147  3700.96293088
0.32300002 47073.99417845  2745.35547048
0.32400002 46417.32018438  2715.41335936
0.32500002 45770.04900201  3581.04880349
0.32600002 45132.97314824  2213.77243775
0.32700002 44506.07612822  2846.60876396
0.32800002 43889.94879737  2599.16289086
0.32900002 43281.55161848  2570.92428788
0.33000002 42684.32708610  2966.98771625
0.33100002 42095.77297239  2515.64351196
0.33200002 41518.41451030  2281.22939330
0.33300002 40949.86949689  2051.58855895
0.33400002 40391.38140725  2435.60041420
0.33500002 39842.40905424  2811.28051600
0.33600002 39302.25767892  1986.72921975
0.33700002 38771.64525379  2948.58376119
0.33800002 38251.15686448  2334.08570241
0.33900002 37739.39337187  2694.59281436
0.34000002 37236.99195092  2285.60667419
0.34100002 36744.07883921  2638.95986721
0.34200002 36260.99389365  2052.19104660
0.34300002 35786.31109925  1846.57374017
0.34400002 35321.64484631  2010.68472810
0.34500002 34865.61126396  1990.47784133
0.34600002 34419.44004044  1970.68513285
0.34700002 33981.09409527  1951.19451536
0.34800002 33552.72983079  2634.72823475
0.34900002 33132.80846907  1739.47252701
0.35000002 32722.26676549  2239.67565484
0.35100002 32321.32412925  2218.53579331
0.35200002 31927.55268916  2197.73319345
0.35300002 31544.02319487  2177.48402427
0.35400002 31168.56497733  1825.69878002
0.35500002 30802.36210779  1644.84621446
0.35600002 30444.39958058  1956.35720971
0.35700002 30095.00040873  1777.71175834
0.35800002 29754.67212260  1922.74700363
0.35900002 29423.39436012  1747.74970777
0.36000002 29100.18480945  2048.50760669
0.36100002 28785.03809856  1875.63317134
0.36200002 28479.81698561  2171.01655165
0.36300002 28181.41369455  2000.31683879
0.36400002 27892.08527681  1985.21926361
0.36500002 27610.20516922  2576.86057050
0.36600002 27337.43538587  1655.41847821
0.36700002 27072.34026600  2092.15055486
0.36800002 26816.18740763  2226.41406498
0.36900002 26567.76156346  1621.96192028
0.37000002 26326.78395701  2490.64551423
0.37100002 26093.68672129  1747.23334562
0.37200002 25869.28559529  1592.12525738
0.37300002 25652.41547551  1439.10057635
0.37400002 25442.89143307  1717.39525309
0.37500002 25241.45067398  1708.34146254
0.37600002 25047.66051766  2124.66790406
0.37700002 24861.31335234  1550.60018724
0.37800002 24682.30147071  2245.10224813
0.37900002 24511.53042552  1816.30449057
0.38000002 24347.42517911  1669.74649788
0.38100002 24189.70388382  1801.89112767
0.38200002 24040.48024512  1519.23822106
0.38300002 23897.56421132  1789.44969292
0.38400002 23762.06493734  1509.48524666
0.38500002 23632.75138510  1915.67091803
0.38600002 23511.37376133  1364.83531150
0.38700002 23395.76358825  1770.12355695
0.38800002 23286.85319200  1766.42433256
0.38900002 23184.70310548  1898.82727430
0.39000002 23089.32324287  1760.44553406
0.39100002 22999.56449899  1352.37445661
0.39200002 22917.00539270  1350.95753190
0.39300002 22839.69440606  1889.75640469
0.39400002 22769.85460629  1618.93673921
0.39500002 22704.70733216  1753.25758325
0.39600002 22645.53673781  1483.39595429
0.39700002 22591.81952115  1483.60485824
0.39800002 22544.85514740  1619.17157340
0.39900002 22502.36385763  2025.21284314
0.40000002 22465.69374741  1351.31154293
0.40100002 22434.02609092  1623.32620485
0.40200002 22408.09368640  1490.02626027
0.40300002 22387.09652462  1492.32392504
0.40400002 22371.06096220  1359.04201785
0.40500002 22359.51058444  1770.20253684
0.40600002 22353.70855944  1910.57156110
0.40700002 22351.80727782  1641.51680426
0.40800002 22354.45654500  1508.59057142
0.40900002 22361.28069238  1787.78447606
0.41000002 22373.08196273  1793.09073886
0.41100002 22388.86894837  1937.08503320
0.41200002 22407.63459146  1526.96833159
0.41300002 22432.06896835  1950.24416852
0.41400002 22459.27901665  1677.70822204
0.41500002 22490.33130108  1403.39673968
0.41600002 22524.01582570  1972.42815932
0.41700002 22562.60325744  1556.14282040
0.41800002 22604.94538176  1989.00923839
0.41900002 22648.64360290  1712.23753751
0.42000002 22696.08765262  1863.23540413
0.42100002 22747.34167939  1583.89747619
0.42200002 22800.89138284  1591.38828947
0.42300002 22856.93031051  1599.07092030
0.42400002 22915.54429290  1899.12582327
0.42500002 22977.20592284  1761.89223365
0.42600002 23039.95539833  1770.85105583
0.42700002 23106.18273419  1780.10040219
0.42800002 23173.78939991  1491.23341855
0.42900002 23244.33767353  2098.96379138
0.43000002 23316.51118548  2411.86003132
0.43100002 23389.07263574  1970.29557220
0.43200002 23464.56597158  1981.23072170
0.43300002 23540.84114280  1685.75971412
0.43400002 23619.18770968  1541.15207109
0.43500002 23698.13999577  1859.83011500
0.43600002 23779.08133675  2026.33451214
0.43700002 23860.30742031  2508.19563488
0.43800002 23941.99467374  2207.21259357
0.43900002 24025.77116891  1902.84116675
0.44000002 24109.39362522  1594.83646389
0.44100002 24194.06526933  2085.28658438
0.44200002 24279.11227753  2097.35121349
0.44300002 24364.62519136  1622.68411464
0.44400002 24450.24414802  1795.25926165
0.44500002 24535.57817303  2133.85933483
0.44600002 24620.89145708  3136.57861582
0.44700002 24707.30447777  2490.49640939
0.44800002 24792.35898081  2671.62473039
0.44900002 24877.82841328  1847.17884723
0.45000002 24963.32177175  2026.52255747
0.45100002 25047.40812843  2547.32152738
0.45200002 25131.47992357  1878.45255591
0.45300002 25214.40846462  2060.52155738
0.45400002 25296.98973612  1899.17159445
0.45500002 25379.15062631  2256.71418064
0.45600002 25459.77607667  2268.84805260
0.45700002 25539.80417607  2631.87694508
0.45800002 25618.40965319  2645.74138233
0.45900002 25695.77525781  1950.30943450
0.46000002 25772.49546393  2138.60177495
0.46100002 25846.99674645  2686.79543913
0.46200002 25920.81321527  1980.22061943
0.46300002 25993.01363930  1809.11383504
0.46400002 26063.12747552  2181.48387309
0.46500002 26132.75000949  2009.34724346
0.46600002 26199.58365883  2569.39329120
0.46700002 26264.78952767  2028.16714345
0.46800002 26328.87278183  2037.45991679
0.46900002 26390.29190700  2232.61880115
0.47000002 26449.94318487  1868.68857458
0.47100002 26507.85699562  3190.48581921
0.47200002 26563.77860194  2827.05027171
0.47300002 26617.54124356  1892.50727212
0.47400002 26668.43544357  2280.15133850
0.47500002 26717.65554307  2098.40476581
0.47600002 26765.28823144  1915.05646373
0.47700002 26809.42211191  1922.23565653
