# SAXS profile: number of points = 501, q_min = 0, q_max = 0.5, delta_q = 0.001
#    q    intensity    error
0.00000000 1664650.74656090 274.66737318
0.00100000 1664569.23398253 599.24493847
0.00200000 1664324.63232245 973.62994074
0.00300000 1663917.16852427 1397.69047135
0.00400000 1663346.69967123 1621.76309380
0.00500000 1662613.75337663 1496.35243727
0.00600000 1661718.21939665 1919.28462154
0.00700000 1660660.66311564 2192.07216642
0.00800000 1659440.90990919 2688.29438755
0.00900000 1658060.18470887 2735.79942172
0.01000000 1656517.86852963 3006.58006120
0.01100000 1654815.24111594 3574.40107644
0.01200000 1652952.20546224 4190.23402456
0.01300000 1650929.96423330 4507.03900114
0.01400000 1648748.43170989 4822.58937654
0.01500000 1646409.18041225 5927.07331341
0.01600000 1643911.49986119 5449.56686565
0.01700000 1641257.67464382 4874.53551236
0.01800000 1638447.60122294 5136.53346097
0.01900000 1635481.99920035 5397.09084089
0.02000000 1632362.11547783 6684.52316526
0.02100000 1629089.79737488 8063.99486261
0.02200000 1625663.66680460 5608.53990528
0.02300000 1622087.05358094 8759.27048804
0.02400000 1618359.25086200 9103.27120119
0.02500000 1614483.05766276 6926.13263369
0.02600000 1610458.19399503 9131.29837760
0.02700000 1606287.04596915 8095.68708248
0.02800000 1601969.29796433 9755.99347201
0.02900000 1597507.58515981 9345.41980227
0.03000000 1592903.17022177 9629.10010659
0.03100000 1588156.45221465 10672.41184995
0.03200000 1583268.72347016 10972.05275900
0.03300000 1578244.01229880 8049.04483379
0.03400000 1573080.29562356 9084.53912639
0.03500000 1567780.80804830 11852.42345617
0.03600000 1562346.83643269 11272.33294580
0.03700000 1556780.17388726 11535.74162200
0.03800000 1551082.29819548 10888.59823725
0.03900000 1545255.29414712 9271.53219425
0.04000000 1539299.04070249 13253.36535460
0.04100000 1533217.49649724 17386.68721644
0.04200000 1527011.41078820 10834.14646217
0.04300000 1520681.85351041 14051.10097866
0.04400000 1514232.31601201 15331.60291165
0.04500000 1507664.04920104 14564.03539200
0.04600000 1500976.97555014 11640.07698650
0.04700000 1494175.66094181 10758.06525912
0.04800000 1487260.26671634 14210.77250968
0.04900000 1480234.51360690 14432.28717945
0.05000000 1473098.01089427 18030.72049297
0.05100000 1465855.56591714 14863.77613081
0.05200000 1458505.12574344 11595.11629001
0.05300000 1451053.09496691 12928.88367887
0.05400000 1443499.16062512 15481.52921967
0.05500000 1435845.79197604 14473.32625829
0.05600000 1428094.40019584 13431.22846060
0.05700000 1420249.75688994 18534.26019257
0.05800000 1412311.04522484 16248.63933400
0.05900000 1404280.46393874 12638.52476574
0.06000000 1396162.20508841 12774.88477339
0.06100000 1387957.57329319 16780.40784529
0.06200000 1379668.48825869 15645.44138818
0.06300000 1371298.46620853 17113.80565844
0.06400000 1362845.80676696 13287.74723740
0.06500000 1354317.19178241 22793.15940391
0.06600000 1345713.11060160 25696.39304923
0.06700000 1337035.18398900 15001.53546641
0.06800000 1328286.67011679 13747.76767923
0.06900000 1319470.41237661 18010.77197219
0.07000000 1310586.54122477 15353.52204943
0.07100000 1301638.74802080 15463.46905076
0.07200000 1292629.00267086 18400.57471503
0.07300000 1283560.32575861 14247.52028350
0.07400000 1274434.65120874 20072.34669721
0.07500000 1265254.10577773 24520.62571931
0.07600000 1256019.27852791 18859.13035122
0.07700000 1246735.75612171 14586.80903058
0.07800000 1237403.74021618 20528.52901290
0.07900000 1228025.11742416 16209.93231031
0.08000000 1218604.37361378 17767.25260077
0.08100000 1209141.99387859 19334.18138924
0.08200000 1199640.08777463 17922.62375238
0.08300000 1190101.93481685 20993.39911543
0.08400000 1180529.29646808 18062.09908377
0.08500000 1170924.38506981 18125.91033180
0.08600000 1161289.45120075 18185.79365965
0.08700000 1151627.89735859 16721.63785486
0.08800000 1141939.15915794 18293.86618886
0.08900000 1132229.16551435 27513.17001428
0.09000000 1122497.21753925 21450.92283484
0.09100000 1112746.25578409 23033.84857689
0.09200000 1102978.01099827 27695.77915750
0.09300000 1093198.11653995 20038.32241782
0.09400000 1083402.55854879 20070.03334036
0.09500000 1073597.46176532 20097.74542889
0.09600000 1063783.98015098 21669.28069430
0.09700000 1053966.51161025 17042.63929396
0.09800000 1044144.70807286 17056.10460831
0.09900000 1034321.70620107 15514.82632256
0.10000000 1024497.77583846 15521.14203387
0.10100000 1014676.00892081 18629.45239996
0.10200000 1004858.92198860 20182.59239746
0.10300000 995047.48978008 18627.28988492
0.10400000 985245.23231892 15517.61313905
0.10500000 975454.40486794 20162.64349726
0.10600001 965672.61271931 17048.95077977
0.10700001 955907.24943163 21679.97743732
0.10800001 946156.69434527 18563.59521669
0.10900001 936424.81396999 20086.31320503
0.11000001 926711.76123023 18515.70186091
0.11100001 917020.28639606 21568.31815133
0.11200001 907351.76317120 15379.61310978
0.11300001 897707.94036422 16885.88715325
0.11400001 888091.28277028 22979.36302365
0.11500001 878503.34025418 15285.95884021
0.11600001 868944.91528795 16774.98237959
0.11700001 859419.25654212 22817.58233579
0.11800001 849924.98420307 21239.62635559
0.11900001 840465.55674340 15128.38073395
0.12000001 831041.59860157 24133.44916019
0.12100001 821657.88021520 15036.33991627
0.12200001 812312.39760867 14987.16444194
0.12300001 803008.44126975 16429.55348245
0.12400001 793745.68074846 19347.55187985
0.12500001 784525.81198362 17793.04625421
0.12600001 775352.88387600 17724.56776065
0.12700001 766225.47087039 16182.68270741
0.12800001 757145.53800425 16115.84353595
0.12900001 748114.54179529 14588.23425258
0.13000001 739134.21452319 17428.78559996
0.13100001 730204.26773791 17349.65421927
0.13200001 721327.11160828 21585.71483244
0.13300001 712504.07330954 18617.73231327
0.13400001 703734.88247634 15675.69524620
0.13500001 695022.51433066 18431.99794908
0.13600001 686366.50318142 21157.24845815
0.13700001 677768.79928531 19641.74072946
0.13800001 669228.32823064 15348.75243175
0.13900001 660749.35329244 16650.88448819
0.14000001 652329.89197527 17935.81122572
0.14100001 643973.22636545 15088.29340535
0.14200001 635678.18835691 19089.41689672
0.14300001 627447.41751958 16263.43782921
0.14400001 619277.86211833 17510.08237734
0.14500001 611175.77606606 14723.22513996
0.14600001 603138.23235202 14629.11851582
0.14700001 595168.16046905 18497.82730004
0.14800001 587262.42085226 14437.84729781
0.14900001 579425.29241923 15644.48363344
0.15000001 571655.88803911 16832.40841751
0.15100001 563954.89833489 18001.44120425
0.15200001 556324.23493831 12767.64179430
0.15300001 548762.72182339 15211.70336677
0.15400001 541269.73995445 13842.97425260
0.15500001 533848.58938168 16239.67485539
0.15600001 526496.57248217 16118.69332726
0.15700001 519218.72255376 17227.67802743
0.15800001 512009.09178145 20759.40960610
0.15900001 504873.79966275 18175.45764575
0.16000001 497808.13526692 16830.89384783
0.16100001 490817.17286983 11926.85786374
0.16200001 483898.27780896 14197.57614113
0.16300001 477051.75468897 12909.02109129
0.16400001 470278.69027513 16295.15738732
0.16500001 463577.89875407 15006.01729112
0.16600001 456950.93541749 11446.62147264
0.16700001 450396.40305005 13619.98787130
0.16800001 443915.29713777 13503.90397654
0.16900001 437508.65839923 15619.05984235
0.17000001 431173.93667988 12165.57319788
0.17100001 424913.40368588 15347.87286588
0.17200001 418725.71414232 14125.71263365
0.17300001 412611.27335893 13999.90116621
0.17400001 406570.80292459 12806.98089695
0.17500001 400602.14061809 10575.89701179
0.17600001 394705.22854599 11527.36674411
0.17700001 388883.87454999 10383.19994089
0.17800001 383132.91195960 16459.39067520
0.17900001 377454.11722144 14267.76630489
0.18000001 371848.48119296 14133.96143776
0.18100001 366315.32147965 12000.49049853
0.18200001 360851.41633899 9905.37184641
0.18300001 355459.43760147 13734.95331775
0.18400001 350138.46731120 14574.51439034
0.18500001 344888.33096752 11546.86186629
0.18600001 339708.57796360 12387.47388067
0.18700001 334597.98164386 12266.36258659
0.18800001 329555.50470108 14948.63839951
0.18900001 324585.44873067 9250.68572590
0.19000001 319680.08874632 10074.71847286
0.19100001 314845.58223670 9974.30851655
0.19200001 310077.13454852 12567.42685708
0.19300001 305377.90824275 8886.49754977
0.19400001 300743.58460324 11435.77534492
0.19500001 296176.39074254 12190.62081903
0.19600001 291673.81777114 14652.23492814
0.19700001 287238.30666247 10237.17373323
0.19800001 282866.27483626 10132.27044347
0.19900001 278558.78950956 10028.11689627
0.20000001 274313.60661789 9924.66675649
0.20100001 270133.07329692 11459.04551084
0.20200001 266013.74684622 11340.16656403
0.20300001 261956.66899656 10420.63678521
0.20400001 257961.44592879 8725.54632096
0.20500001 254025.99083172 9419.28418526
0.20600001 250150.26418028 8543.88267693
0.20700001 246334.59654469 9222.76773059
0.20800001 242576.84690219 7604.78450986
0.20900001 238879.79982437 7524.71405017
0.21000001 235237.17470074 9678.83401060
0.21100001 231652.97663278 8839.87800620
0.21200001 228123.75792754 12390.54249759
0.21300001 224650.20287116 8653.52622370
0.21400001 221231.67917496 11415.55518512
0.21500001 217868.60490328 9882.52038563
0.21600001 214557.26778719 8380.60727599
0.21700001 211299.39655374 6909.49059398
0.21800001 208093.83104288 8203.05920756
0.21900001 204938.97555278 8791.88246691
0.22000001 201834.25836334 7359.88657921
0.22100001 198781.32238755 11914.95302729
0.22200001 195777.08887880 9823.11589897
0.22300001 192821.09581521 6478.78912574
0.22400001 189912.72219890 7691.46561276
0.22500001 187053.77692441 6341.12333759
0.22600001 184239.36522122 8155.35588717
0.22700001 181472.03576004 7447.61269978
0.22800001 178749.44589574 6140.04375688
0.22900001 176070.68011444 6681.88262634
0.23000001 173436.60448717 6009.57862968
0.23100001 170846.79283096 5945.46867169
0.23200001 168297.79513398 8234.81150536
0.23300001 165791.77294559 6983.14980673
0.23400001 163325.98973098 6908.68969237
0.23500001 160900.57084231 7974.23266810
0.23600001 158515.49556359 6762.27136058
0.23700001 156169.68589710 6132.78385525
0.23800001 153861.90397553 7722.32932579
0.23900001 151592.32632534 7640.25360818
0.24000001 149359.42721996 7559.08096915
0.24100001 147164.28322829 6944.68285403
0.24200001 145004.99630689 5813.97560194
0.24300001 142880.34031220 5229.42070279
0.24400001 140790.61770699 6726.27207913
0.24500001 138734.41483645 5119.30014963
0.24600001 136712.14955352 8104.29660891
0.24700001 134723.17248129 6014.04270406
0.24800001 132766.19806902 5454.69950571
0.24900001 130839.68402309 6869.08373617
0.25000001 128945.71574831 6311.24835587
0.25100001 127081.25965046 7205.50776307
0.25200001 125248.61240449 8080.41461156
0.25300001 123443.82167181 6584.49375949
0.25400001 121668.88582575 6049.98563392
0.25500001 119920.65016831 4604.95318433
0.25600001 118201.58687033 5012.33852838
0.25700001 116508.76431924 4959.77833173
0.25800001 114842.79810290 4907.80720914
0.25900001 113203.94605641 5297.94492611
0.26000001 111589.83498069 4368.74224620
0.26100001 110000.55532849 4755.32423185
0.26200001 108437.32927768 6844.56454787
0.26300001 106896.80901709 5926.35937233
0.26400001 105381.07249355 5026.67739580
0.26500001 103888.40169587 7046.75062048
0.26600001 102418.26607981 5332.40727577
0.26700001 100970.76814448 4464.92757863
0.26800001 99545.62692947  4418.33286034
0.26900001 98141.11441098  4372.18685391
0.27000001 96758.37033973  4326.55073448
0.27100001 95395.98207461  4670.58750340
0.27200001 94054.63788881  3851.53760382
0.27300001 92732.96508575  6098.12007263
0.27400001 91429.37541634  5280.04668017
0.27500001 90147.13299341  4851.71892731
0.27600001 88881.39931617  4062.32454800
0.27700001 87635.98699449  4385.30499675
0.27800001 86407.59318658  5062.62112440
0.27900001 85197.35067154  3936.11778731
0.28000001 84004.19646461  4248.93245827
0.28100001 82828.32183064  4905.09345096
0.28200001 81669.55485528  3813.56004446
0.28300001 80527.14966160  3773.50241174
0.28400001 79400.21159696  4412.66696836
0.28500001 78289.87196268  4366.22636602
0.28600001 77194.94609124  6314.16091439
0.28700001 76115.83648887  3617.02472115
0.28800001 75050.38832671  3253.43448796
0.28900001 74001.47422113  4506.68999339
0.29000001 72966.15138133  3184.97265855
0.29100001 71945.86400731  3781.47479122
0.29200001 70939.27350506  3429.55933994
0.29300001 69946.77736397  4010.04893610
0.29400001 68967.23994305  4882.88081911
0.29500001 68002.47333705  3321.24095500
0.29600001 67049.61235747  2987.06037193
0.29700001 66110.36699871  4432.70031710
0.29800001 65184.12927182  3508.21000348
0.29900001 64270.87160891  2892.18935931
0.30000001 63369.09904001  3719.44944423
0.30100001 62480.78573019  3396.45567308
0.30200001 61603.58510431  3359.85969065
0.30300001 60739.22747340  3046.67979430
0.30400001 59886.39904867  2739.80288618
0.30500001 59045.83188508  3252.24457420
0.30600001 58215.50525927  2948.90655852
0.30700001 57397.65623172  3712.48058083
0.30800001 56590.68322468  3409.87177914
0.30900001 55795.19019384  2853.92411353
0.31000001 55010.72051669  3336.12530368
0.31100001 54236.61150820  2792.10089264
0.31200001 53474.17369257  2761.67383111
0.31300001 52721.67666365  3476.46752380
0.31400001 51981.25967413  2456.11463589
0.31500001 51249.84083862  3158.01534200
0.31600002 50530.22777369  3123.52617772
0.31700002 49820.03682522  3326.98221671
0.31800002 49119.97962037  2820.46936335
0.31900002 48430.83982001  2557.14846358
0.32000002 47751.77536698  2529.17290207
0.32100002 47082.33586704  2501.48462306
0.32200002 46423.91883528  2474.16287148
0.32300002 45773.71265765  2891.98330265
0.32400002 45134.60174821  2420.34313335
0.32500002 44504.83734799  3264.42997405
0.32600002 43884.97382402  2152.55806800
0.32700002 43274.82340206  2342.03355342
0.32800002 42675.26519293  2527.22932440
0.32900002 42083.14303879  2291.42724697
0.33000002 41502.05108618  2884.80770761
0.33100002 40929.33205009  2445.93699914
0.33200002 40367.60152363  3226.17886654
0.33300002 39814.35034821  1994.69904690
0.33400002 39271.04670282  2565.38124735
0.33500002 38736.72248944  1952.33090592
0.33600002 38211.21721130  2511.05025796
0.33700002 37694.99861710  1911.13652039
0.33800002 37188.68293955  2836.56692555
0.33900002 36690.80103162  2058.35403535
0.34000002 36202.13095039  2407.26081155
0.34100002 35722.60248321  2015.82655359
0.34200002 35252.88720457  1995.13724583
0.34300002 34791.33797740  1974.75643712
0.34400002 34339.49837485  2132.48295007
0.34500002 33896.13395657  1759.20943566
0.34600002 33462.36275008  2090.05927636
0.34700002 33036.26026528  1896.94215427
0.34800002 32619.95658421  2049.18576967
0.34900002 32211.91593552  2367.57593339
0.35000002 31813.05844366  2009.94912767
0.35100002 31423.57949448  3650.16316696
0.35200002 31041.15442577  1972.35504563
0.35300002 30668.76365259  2605.61828333
0.35400002 30304.37485511  1775.07884121
0.35500002 29948.98519755  2398.91382795
0.35600002 29601.59155600  1902.19836348
0.35700002 29262.75121706  2199.97374070
0.35800002 28932.67925206  2181.23479213
0.35900002 28611.56646273  1854.02959460
0.36000002 28298.44380180  1838.83296534
0.36100002 27993.10896437  1672.02847764
0.36200002 27697.52303654  2262.19530116
0.36300002 27408.80867894  2693.73784456
0.36400002 27128.90207870  1633.83820508
0.36500002 26856.32846880  1474.41250278
0.36600002 26592.73739725  1756.71631567
0.36700002 26336.65687753  1599.16188135
0.36800002 26089.37238809  1588.45151309
0.36900002 25849.79609649  2008.52925184
0.37000002 25617.49946911  1853.29808688
0.37100002 25392.98296444  1700.31421984
0.37200002 25177.02481857  1690.38552639
0.37300002 24968.36976989  2101.08841567
0.37400002 24767.10275262  1811.09447458
0.37500002 24573.76748115  2078.94082739
0.37600002 24388.03947951  1792.88680727
0.37700002 24209.48184896  1509.94545445
0.37800002 24038.33632911  1639.89538206
0.37900002 23875.28341042  2177.42595018
0.38000002 23718.71346709  2304.39171606
0.38100002 23568.55168539  1350.47807555
0.38200002 23426.76443189  2018.80152056
0.38300002 23291.08648619  1609.87997419
0.38400002 23162.88050877  1337.65641275
0.38500002 23040.76117243  1334.06013508
0.38600002 22926.49410280  1996.32456858
0.38700002 22817.96463569  1593.60672565
0.38800002 22716.00643455  1988.21855738
0.38900002 22620.67041800  1852.63299500
0.39000002 22532.20216522  1585.81646352
0.39100002 22449.21947341  1452.01558433
0.39200002 22373.16645635  1714.56769261
0.39300002 22302.53243789  1449.88770248
0.39400002 22239.19911764  1317.67261015
0.39500002 22180.56303662  1317.52550680
0.39600002 22127.93089549  1449.49018198
0.39700002 22080.53477574  1713.67038514
0.39800002 22039.86708016  1450.99471797
0.39900002 22003.67037408  1716.28637049
0.40000002 21973.27056177  1453.86151560
0.40100002 21947.80439857  1323.45266794
0.40200002 21928.02680477  1590.65913978
0.40300002 21913.06747640  1726.31153758
0.40400002 21903.03491865  1463.67037779
0.40500002 21897.54139274  1333.56033400
0.40600002 21897.71440005  1470.54108021
0.40700002 21901.82987947  1340.39205213
0.40800002 21910.35289336  1478.62023507
0.40900002 21923.00095822  2157.22339650
0.41000002 21940.64676235  1487.90503069
0.41100002 21962.16723322  2171.61919892
0.41200002 21986.79299172  1770.70645749
0.41300002 22016.88970391  1777.42359002
0.41400002 22049.87331550  2058.90701839
0.41500002 22086.60155033  1653.84480245
0.41600002 22126.01040961  2075.97302505
0.41700002 22170.26872380  1390.07591485
0.41800002 22218.16445433  2094.61755318
0.41900002 22267.46854229  1823.70576003
0.42000002 22320.50373344  1973.35582858
0.42100002 22377.25755113  1558.12851712
0.42200002 22436.44660870  1993.02964669
0.42300002 22497.97545440  1573.95843737
0.42400002 22562.11145519  1582.16814077
0.42500002 22629.22283605  2024.41037084
0.42600002 22697.46922205  1599.15026982
0.42700002 22769.17931069  1900.31579532
0.42800002 22842.28416239  2057.86147770
0.42900002 22918.30081394  1626.05351980
0.43000002 22995.84132523  1635.34933334
0.43100002 23073.83134068  1644.70277590
0.43200002 23154.77711657  1654.29312949
0.43300002 23236.44531824  2117.76972666
0.43400002 23320.15266773  2434.62405388
0.43500002 23404.47281133  1989.84837272
0.43600002 23490.76054925  2001.76525507
0.43700002 23577.34285142  2013.74094837
0.43800002 23664.47609293  2181.62815439
0.43900002 23753.54338453  2194.82751274
0.44000002 23842.56038138  1734.90398837
0.44100002 23932.56592461  2221.42087440
0.44200002 24022.91326539  2234.85172699
0.44300002 24113.76684458  2408.96542194
0.44400002 24204.71098818  1938.79744203
0.44500002 24295.39252868  1787.89802092
0.44600002 24386.02076543  1635.08276981
0.44700002 24477.71243125  1644.90235333
0.44800002 24568.08574048  1820.12671834
0.44900002 24658.83261311  1664.47128027
0.45000002 24749.64756496  1841.74511083
0.45100002 24838.97363637  1852.49074159
0.45200002 24928.33880694  2202.04491287
0.45300002 25016.61606354  2555.44745200
0.45400002 25104.42342531  2227.39007397
0.45500002 25191.77553404  2240.05278665
0.45600002 25277.69320571  1906.06454651
0.45700002 25363.01061559  2439.41447662
0.45800002 25446.81421166  2277.61721396
0.45900002 25529.49875380  1937.68904725
0.46000002 25611.36360743  1771.02587739
0.46100002 25691.17687921  2136.47837053
0.46200002 25770.20242118  2147.68877157
0.46300002 25847.60638505  2518.59088553
0.46400002 25922.92050149  2350.56092788
0.46500002 25997.73832670  2362.41459372
0.46600002 26069.78241419  2739.28251700
0.46700002 26140.15905796  2202.04710341
0.46800002 26209.41447775  2396.98211467
0.46900002 26276.04435182  2037.70733606
0.47000002 26340.84552035  2233.17698906
0.47100002 26403.89809568  1869.39607378
0.47200002 26464.95594888  2253.22645628
0.47300002 26523.77408577  2263.00851226
0.47400002 26579.82474715  2461.95638390
0.47500002 26634.16168357  1901.67923434
0.47600002 26686.88495185  2291.33605057
0.47700002 26736.13104760  2108.67875567
