# SAXS profile: number of points = 501, q_min = 0, q_max = 0.5, delta_q = 0.001
#    q    intensity    error
0.00000000 1664650.74656090 274.66737318
0.00100000 1664569.23148562 749.05617196
0.00200000 1664324.62047604 1048.52454410
0.00300000 1663917.14062647 1098.18535193
0.00400000 1663346.64777138 1372.26103655
0.00500000 1662613.67278515 2094.89331063
0.00600000 1661718.10831796 2093.76490172
0.00700000 1660660.51569955 2590.63051216
0.00800000 1659440.70718336 2464.26955421
0.00900000 1658059.92333331 2984.50798958
0.01000000 1656517.55949679 2733.25409119
0.01100000 1654814.87045734 5063.73372407
0.01200000 1652951.75389263 3867.90727369
0.01300000 1650929.42794254 3813.64714675
0.01400000 1648747.80904499 4080.65100829
0.01500000 1646408.48045032 5136.79468774
0.01600000 1643910.69623564 4191.97246280
0.01700000 1641256.77751611 4874.53284789
0.01800000 1638446.58666337 5136.53028032
0.01900000 1635480.89299548 7359.66435057
0.02000000 1632360.89955760 6684.51818607
0.02100000 1629088.42928697 6988.78967850
0.02200000 1625662.15997354 7291.09511873
0.02300000 1622085.42020145 9343.21244565
0.02400000 1618357.49655137 8496.37724431
0.02500000 1614481.12110848 8185.41965785
0.02600000 1610456.12978253 6522.34762394
0.02700000 1606284.81758079 7421.03619711
0.02800000 1601966.95197252 10452.83484098
0.02900000 1597505.03203597 10783.15946134
0.03000000 1592900.50620739 8147.68646376
0.03100000 1588153.51390745 12959.33326978
0.03200000 1583265.61450658 8620.88166805
0.03300000 1578240.75522718 12878.44515636
0.03400000 1573076.85313981 9084.51924605
0.03500000 1567777.17646901 13545.59543020
0.03600000 1562343.01843491 8671.00415303
0.03700000 1556776.07575826 10648.34885065
0.03800000 1551078.06358811 11795.94921950
0.03900000 1545250.83543410 14834.40870715
0.04000000 1539294.38230899 11359.99306785
0.04100000 1533212.62050581 11591.08794846
0.04200000 1527006.29185686 16743.62476700
0.04300000 1520676.53535574 15054.69839883
0.04400000 1514226.71672303 14309.44313759
0.04500000 1507658.18293843 11443.12614021
0.04600000 1500970.93360412 14814.58380336
0.04700000 1494169.36188164 16137.02985882
0.04800000 1487253.78222827 14210.71055039
0.04900000 1480227.84501678 13322.05122526
0.05000000 1473091.01885944 15776.80554665
0.05100000 1465848.35081036 12576.97943584
0.05200000 1458497.68570663 12754.56285588
0.05300000 1451045.38055879 12928.81494349
0.05400000 1443491.15568909 16672.32362570
0.05500000 1435837.55299268 15679.34681011
0.05600000 1428085.78055813 17094.18759097
0.05700000 1420241.03139063 12356.09754986
0.05800000 1412302.01235412 14998.64807152
0.05900000 1404271.17627870 12638.44117680
0.06000000 1396152.73112948 14052.27789532
0.06100000 1387947.81879709 23234.24757243
0.06200000 1379658.39538816 15645.32693502
0.06300000 1371288.17817970 18430.11397644
0.06400000 1362835.31469490 15945.17392763
0.06500000 1354306.36399746 22792.97717228
0.06600000 1345701.97586648 21638.88878438
0.06700000 1337023.79267628 17728.93632058
0.06800000 1328274.98675768 16497.17610775
0.06900000 1319458.50169081 15239.74640804
0.07000000 1310574.37103410 19540.66478718
0.07100000 1301626.36015000 18274.83495246
0.07200000 1292616.38796839 15569.56512246
0.07300000 1283547.38423581 18521.58962236
0.07400000 1274421.41228375 15770.96571610
0.07500000 1265240.64484831 18750.86723555
0.07600000 1256005.61556240 17408.23864780
0.07700000 1246721.79924410 14586.64573510
0.07800000 1237389.46520739 21994.59877552
0.07900000 1228010.57252513 22104.19134222
0.08000000 1218589.62308748 17767.03753809
0.08100000 1209127.10300954 16359.49047128
0.08200000 1199624.93790549 17922.39741332
0.08300000 1190086.51236807 23992.14521534
0.08400000 1180513.62187144 15051.54938536
0.08500000 1170908.49091804 24167.55238710
0.08600000 1161273.28688062 16670.07881586
0.08700000 1151611.47805817 16721.39944660
0.08800000 1141922.64494507 24391.46884154
0.08900000 1132212.29751409 24455.78677499
0.09000000 1122480.16349258 16854.04044657
0.09100000 1112729.05795060 16891.22789326
0.09200000 1102960.54700168 16924.93038899
0.09300000 1093180.34382444 20037.99664393
0.09400000 1083384.76728066 21613.52712303
0.09500000 1073579.45827553 18551.45391097
0.09600000 1063765.65837412 18573.34926830
0.09700000 1053947.98951893 18591.64340916
0.09800000 1044125.99116625 18606.32603741
0.09900000 1034302.95298817 17065.99952679
0.10000000 1024478.77548158 17072.93959629
0.10100000 1014656.91096105 18629.10176140
0.10200000 1004839.50768800 26392.11091081
0.10300000 995028.03453476 26388.14471718
0.10400000 985225.61896296 20172.49549728
0.10500000 975434.63820638 15509.41147719
0.10600001 965652.63808637 20148.34324172
0.10700001 955887.17552874 21679.52216118
0.10800001 946136.49548823 23203.99864387
0.10900001 936404.44056989 21630.94359524
0.11000001 926691.23825162 16972.35082746
0.11100001 916999.64863144 16946.15430442
0.11200001 907331.06323706 19993.04091964
0.11300001 897687.09740198 19955.58511477
0.11400001 888070.31697355 18383.05642691
0.11500001 878482.28583812 15285.59249335
0.11600001 868923.81691788 15249.61370504
0.11700001 859398.02188155 18253.61484442
0.11800001 849903.74887442 16687.86089512
0.11900001 840444.24657148 16640.79686592
0.12000001 831020.09990763 18099.61862857
0.12100001 821636.37498403 16539.54100758
0.12200001 812290.78190041 22480.14844816
0.12300001 802986.92306406 16429.11321994
0.12400001 793724.09942387 20835.25859158
0.12500001 784504.14322063 17792.55480664
0.12600001 775331.30080205 20678.08676681
0.12700001 766203.84376681 19124.44884169
0.12800001 757123.73960303 16115.37955696
0.12900001 748092.94860080 14587.81318527
0.13000001 739112.58205467 17428.27550633
0.13100001 730182.63794054 17349.14029526
0.13200001 721305.47716568 18707.05843215
0.13300001 712482.54571691 17185.07981285
0.13400001 703713.34145672 19950.27417087
0.13500001 695000.91666190 15595.82130521
0.13600001 686345.16995903 16925.27268923
0.13700001 677747.39467040 14029.37173121
0.13800001 669206.87679300 19534.14965474
0.13900001 660727.97250689 23587.98973086
0.14000001 652308.63253331 13796.32822872
0.14100001 643951.96675416 19202.64855426
0.14200001 635657.10495619 17725.29920772
0.14300001 627426.48268988 14907.65393187
0.14400001 619256.97668212 16162.60785379
0.14500001 611155.06012469 16061.15573772
0.14600001 603117.69887694 15958.49506512
0.14700001 595147.66876825 15854.73464396
0.14800001 587242.06148882 19687.29104023
0.14900001 579405.02717034 14340.27509905
0.15000001 571635.63402475 14242.30249372
0.15100001 563934.91287224 20572.34659228
0.15200001 556304.29419906 19150.77623147
0.15300001 548743.05887825 16478.75483573
0.15400001 541250.18438470 17617.69433312
0.15500001 533829.16967389 13740.76347587
0.15600001 526477.37681663 14878.25137102
0.15700001 519199.81309073 17227.05061141
0.15800001 511990.36473868 17095.35908550
0.15900001 504855.29783422 13328.18049192
0.16000001 497789.65666447 16830.26908626
0.16100001 490799.04409485 19082.26773517
0.16200001 483880.22172377 13013.95917760
0.16300001 477033.96414107 15255.54689341
0.16400001 470261.14568391 11638.96390515
0.16500001 463560.54796397 13851.18982710
0.16600001 456933.81713532 13735.43119158
0.16700001 450379.55245218 14754.43483496
0.16800001 443898.76829635 12378.11773839
0.16900001 437492.40093276 14502.87377572
0.17000001 431157.84688147 12165.11922419
0.17100001 424897.58265976 10962.35815028
0.17200001 418710.16989667 13038.63530630
0.17300001 412595.89779509 15076.25481740
0.17400001 406555.77557797 13873.71649680
0.17500001 400587.32861254 11633.05657231
0.17600001 394690.74096852 13622.75156792
0.17700001 388869.64362140 10382.81997508
0.17800001 383118.90374286 10286.74305136
0.17900001 377440.42131976 12229.07022838
0.18000001 371835.11094258 18171.58273010
0.18100001 366302.30157604 13000.06929701
0.18200001 360838.59277539 9905.01983958
0.18300001 355446.95787782 10791.37015095
0.18400001 350126.34660458 10687.60723499
0.18500001 344876.42924269 11546.46339652
0.18600001 339697.07727727 15245.60554846
0.18700001 334586.81113427 14153.02277964
0.18800001 329544.49488023 15882.39768113
0.18900001 324574.89268507 12025.50034216
0.19000001 319669.75508794 10074.39280760
0.19100001 314835.62271133 11787.44627127
0.19200001 310067.54852465 9874.10154933
0.19300001 305368.60290741 8886.22676450
0.19400001 300734.55955921 10555.78353933
0.19500001 296167.74991335 10448.79871070
0.19600001 291665.51850481 11204.33142284
0.19700001 287230.26815984 14502.25692473
0.19800001 282858.55846676 10131.99404310
0.19900001 278551.37888560 12534.81264225
0.20000001 274306.63772767 11578.48372570
0.20100001 270126.37582298 11458.76140398
0.20200001 266007.40136566 11339.89605618
0.20300001 261950.72226407 9618.83097617
0.20400001 257955.67464361 11104.99231829
0.20500001 254020.62251351 7849.23760668
0.20600001 250145.24985335 9320.41245009
0.20700001 246329.87912997 8454.04185136
0.20800001 242572.45452338 9886.04085142
0.20900001 238875.71569476 9029.50248010
0.21000001 235233.45514397 12656.73665234
0.21100001 231649.63079725 9576.39618987
0.21200001 228120.77829706 8746.15105338
0.21300001 224647.48985617 8653.42171835
0.21400001 221229.34165669 8561.57592688
0.21500001 217866.47877701 9882.42394454
0.21600001 214555.51924287 7682.16072969
0.21700001 211297.96995579 7600.38833865
0.21800001 208092.70297628 9570.18386236
0.21900001 204938.15398122 8115.55128137
0.22000001 201833.69748942 8698.02360457
0.22100001 198781.20256391 7943.29723004
0.22200001 195777.18113183 7858.49642222
0.22300001 192821.55402708 6478.80452166
0.22400001 189913.42094810 7691.49391210
0.22500001 187054.75211101 8877.61895499
0.22600001 184240.61372273 8782.75047148
0.22700001 181473.63751504 9309.59804476
0.22800001 178751.29535536 6754.11801440
0.22900001 176072.81349846 8504.31729415
0.23000001 173438.96967949 6009.66058360
0.23100001 170849.50023961 9512.90062323
0.23200001 168300.71744566 6470.32138820
0.23300001 165794.93646864 7565.22330886
0.23400001 163329.44768776 8060.30862461
0.23500001 160904.24073080 7404.81350865
0.23600001 158519.47775156 6762.44124072
0.23700001 156173.88318380 5575.40789337
0.23800001 153866.33825585 7722.55188233
0.23900001 151596.99119272 6003.24113518
0.24000001 149364.31453889 7019.37629377
0.24100001 147169.40554183 5876.47464125
0.24200001 145010.37351744 5285.62836473
0.24300001 142885.91104774 6275.54951007
0.24400001 140796.39335276 6209.12124057
0.24500001 138740.44200145 6143.42706243
0.24600001 136718.29008249 7091.57804205
0.24700001 134729.55965903 6014.32782769
0.24800001 132772.76265853 4959.06291989
0.24900001 130846.35567856 6378.76014109
0.25000001 128952.55375743 6311.58304225
0.25100001 127088.35461205 7205.91004741
0.25200001 125255.87630182 5228.80680359
0.25300001 123451.16503074 6584.88545427
0.25400001 121676.38628532 6981.18299341
0.25500001 119928.32178013 7828.92121621
0.25600001 118209.36332509 6835.45675768
0.25700001 116516.73888947 6763.79701255
0.25800001 114850.85379984 4908.15146936
0.25900001 113212.08439467 6181.38010042
0.26000001 111598.06513537 4805.97090245
0.26100001 110008.93889321 5620.35695399
0.26200001 108445.79102512 5133.82399005
0.26300001 106905.26712569 5926.82828989
0.26400001 105389.59689169 4189.23667467
0.26500001 103897.10828173 4974.59377992
0.26600001 102427.03354801 4922.64346525
0.26700001 100979.63806581 6900.94879197
0.26800001 99554.42330102  4418.72328731
0.26900001 98150.00231860  4770.09033841
0.27000001 96767.38058487  4720.31304831
0.27100001 95404.96710143  4671.02741033
0.27200001 94063.63374527  4237.09658257
0.27300001 92742.01669880  4192.86677338
0.27400001 91438.46519288  3771.83686771
0.27500001 90156.15655738  5971.94409298
0.27600001 88890.42423392  4062.73703188
0.27700001 87645.02389203  4020.27743619
0.27800001 86416.64318331  3616.53668838
0.27900001 85206.33053784  5010.13247274
0.28000001 84013.13815371  3541.15394078
0.28100001 82837.24405863  4555.22026638
0.28200001 81678.48139617  3813.97686931
0.28300001 80535.94745071  4460.08098092
0.28400001 79408.96850927  5431.57370311
0.28500001 78298.56957928  4366.71143212
0.28600001 77203.55224487  4320.69700589
0.28700001 76124.40244567  3288.57434131
0.28800001 75058.83532751  5206.08106474
0.28900001 74009.90000274  3541.37388276
0.29000001 72974.46211327  3185.33542202
0.29100001 71954.04686227  5357.69858297
0.29200001 70947.31192573  4365.38830943
0.29300001 69954.80439300  4319.00982767
0.29400001 68975.10709367  3357.36349671
0.29500001 68010.20522207  3925.54923124
0.29600001 67057.22000223  3286.13922177
0.29700001 66117.79042914  3251.01190930
0.29800001 65191.41117548  3216.21842259
0.29900001 64278.03784507  3471.01420795
0.30000001 63376.12473834  3433.71860087
0.30100001 62487.61930293  3679.89607496
0.30200001 61610.29595823  3920.26331741
0.30300001 60745.72821719  3047.00587162
0.30400001 59892.72347229  2740.09222858
0.30500001 59051.96368461  3252.58231373
0.30600001 58221.49296171  3753.53982894
0.30700001 57403.39783046  3182.44452639
0.30800001 56596.28695306  3934.85703670
0.30900001 55800.57134965  3373.14469779
0.31000001 55015.90415117  3593.08887023
0.31100001 54241.50923883  3046.20330308
0.31200001 53478.96260735  3013.00489595
0.31300001 52726.17828254  2483.40311469
0.31400001 51985.52472561  3438.84262342
0.31500001 51253.93244630  3887.09842077
0.31600002 50534.00492427  3604.33807188
0.31700002 49823.63614218  3089.56382346
0.31800002 49123.31950592  2585.60604462
0.31900002 48433.95069302  3719.72758935
0.32000002 47754.64174198  3449.07916313
0.32100002 47084.98288319  2274.20478094
0.32200002 46426.29241715  3149.09556377
0.32300002 45775.84206544  2447.17663269
0.32400002 45136.44632365  3300.60279370
0.32500002 44506.38770556  2393.99870804
0.32600002 43886.28713144  2152.62248573
0.32700002 43275.93078144  2767.92866385
0.32800002 42676.06874613  2527.27691082
0.32900002 42083.67364089  2708.08452703
0.33000002 41502.32538712  3296.94488488
0.33100002 40929.31609491  3057.42005707
0.33200002 40367.27282770  2822.88352252
0.33300002 39813.76271168  2393.60352758
0.33400002 39270.25873878  3157.32895212
0.33500002 38735.58942215  1952.27379933
0.33600002 38209.83302387  2124.65786591
0.33700002 37693.27565611  2675.46883277
0.33800002 37186.68736061  2080.03745602
0.33900002 36688.55139514  2245.33945172
0.34000002 36199.60762551  2962.57602837
0.34100002 35719.77988981  2015.66727464
0.34200002 35249.74758731  2901.75935881
0.34300002 34787.92527418  2513.07984082
0.34400002 34335.84116274  3198.38375578
0.34500002 33892.18806523  2110.80557267
0.34600002 33458.10167062  1741.49427443
0.34700002 33031.71407517  1724.25555639
0.34800002 32615.15346175  2561.10504688
0.34900002 32206.83044824  1690.85867861
0.35000002 31807.68453801  1842.14213727
0.35100002 31417.95429933  2488.30209836
0.35200002 31035.24175309  2300.64258012
0.35300002 30662.57946687  1791.00135149
0.35400002 30297.92993355  2097.37429899
0.35500002 29942.23723238  1758.80709833
0.35600002 29594.60606460  1901.74947579
0.35700002 29255.48615787  2042.32558542
0.35800002 28925.14258413  2024.90470251
0.35900002 28603.76611714  1544.60344349
0.36000002 28290.39429702  1838.30990849
0.36100002 27984.73910822  1975.44282722
0.36200002 27688.95725856  1809.19655297
0.36300002 27400.00907931  1645.64462325
0.36400002 27119.81994896  1781.77225504
0.36500002 26846.97800816  2505.62857619
0.36600002 26583.18002258  2341.44660730
0.36700002 26326.81786914  1889.21253978
0.36800002 26079.35235641  1876.53988770
0.36900002 25839.57609663  1577.50619542
0.37000002 25607.02385907  1425.03094526
0.37100002 25382.22139156  1416.32802074
0.37200002 25166.05623392  1408.04091299
0.37300002 24957.18798396  1680.11797467
0.37400002 24755.74028592  1392.51045705
0.37500002 24562.18905765  2216.49204556
0.37600002 24376.24235169  1654.17188435
0.37700002 24197.46312602  2469.59320363
0.37800002 24026.16289807  1912.24239564
0.37900002 23862.90013279  1496.20390920
0.38000002 23706.17368400  1490.28867924
0.38100002 23555.86185661  1484.72604316
0.38200002 23413.89347730  1614.15389279
0.38300002 23278.00818989  1877.13866936
0.38400002 23149.65095727  1871.64936856
0.38500002 23027.40566422  1466.61553623
0.38600002 22912.96028014  1862.13637018
0.38700002 22804.24068350  1725.36893185
0.38800002 22702.18840783  1457.14003199
0.38900002 22606.71768105  1586.99165639
0.39000002 22518.08832507  1452.75453712
0.39100002 22434.98231259  1451.09472473
0.39200002 22358.85402104  1713.47085908
0.39300002 22288.10257594  1712.39500204
0.39400002 22224.70249137  1711.85779050
0.39500002 22165.85909719  1448.31730203
0.39600002 22113.17230143  1711.89131482
0.39700002 22065.67022048  1844.24880440
0.39800002 22024.90647887  1450.00978674
0.39900002 21988.71657685  1978.98458568
0.40000002 21958.16878713  1452.86230664
0.40100002 21932.65358849  1587.04688886
0.40200002 21912.88407235  2516.80441937
0.40300002 21897.80202022  1327.00686530
0.40400002 21887.79079075  1462.65168889
0.40500002 21882.23904649  1465.89126318
0.40600002 21882.32688150  1870.28256718
0.40700002 21886.43840406  1741.28512193
0.40800002 21894.96930617  1880.55900281
0.40900002 21907.60786383  1482.04974221
0.41000002 21925.22943055  1622.02855013
0.41100002 21946.73431804  1627.56989414
0.41200002 21971.41962929  1497.24246158
0.41300002 22001.51110828  1639.55268548
0.41400002 22034.50046998  1783.14203502
0.41500002 22071.23163073  1514.96941092
0.41600002 22110.70196690  2074.53671034
0.41700002 22155.01549482  2083.67930602
0.41800002 22202.90970678  1534.99823531
0.41900002 22252.27742745  1542.08289879
0.42000002 22305.36480985  1690.30062538
0.42100002 22362.18402436  1698.63157898
0.42200002 22421.39690869  1991.69278178
0.42300002 22483.09711249  1715.91005293
0.42400002 22547.31145534  1724.86940807
0.42500002 22614.47459210  1445.06499491
0.42600002 22682.80276226  1598.11694434
0.42700002 22754.60491271  1753.01484554
0.42800002 22827.78712155  1615.86498797
0.42900002 22903.91513110  1625.03285556
0.43000002 22981.64393374  1931.49235594
0.43100002 23059.70085479  1643.69555482
0.43200002 23140.80173576  1803.59417275
0.43300002 23222.62627389  1662.97234628
0.43400002 23306.42038336  1824.89280250
0.43500002 23390.97307625  1835.72365402
0.43600002 23477.42446221  1846.73429571
0.43700002 23564.14924661  2322.24701830
0.43800002 23651.40134921  1557.44485265
0.43900002 23740.62681589  1566.88144410
0.44000002 23829.79899683  1891.60953401
0.44100002 23920.02050403  2220.25640840
0.44200002 24010.54712794  1755.05102549
0.44300002 24101.59956571  2247.23325000
0.44400002 24192.75193730  1937.83952201
0.44500002 24283.59618623  1787.02992803
0.44600002 24374.43593846  1961.16720855
0.44700002 24466.32668300  2137.37840032
0.44800002 24556.95562065  2150.08435126
0.44900002 24647.90473005  1830.10701294
0.45000002 24738.85563103  2343.01712785
0.45100002 24828.43878827  2020.04187555
0.45200002 24918.00606637  2201.13217019
0.45300002 25006.56387713  2724.71532918
0.45400002 25094.60951665  2055.24861682
0.45500002 25182.17607724  2066.95311038
0.45600002 25268.38638843  2598.22195353
0.45700002 25353.89491402  1915.99392946
0.45800002 25437.98347727  1926.54576996
0.45900002 25520.92280283  3345.79313802
0.46000002 25603.05988638  2301.58717757
0.46100002 25683.10323736  2135.80696644
0.46200002 25762.42001348  1789.20015474
0.46300002 25840.05734207  1978.31488387
0.46400002 25915.65418772  2169.14035832
0.46500002 25990.72966772  1998.42729887
0.46600002 26063.00591585  2921.14184150
0.46700002 26133.68746095  2568.41892539
0.46800002 26203.22191276  1843.39674893
0.46900002 26270.12013671  2037.24791316
0.47000002 26335.19272367  2046.63959952
0.47100002 26398.52121417  2055.91692960
0.47200002 26459.83905499  2440.52337091
0.47300002 26518.96880292  3016.79803401
0.47400002 26575.33558047  2272.19129983
0.47500002 26629.96068689  1901.37928316
0.47600002 26682.90412309  2481.91044465
0.47700002 26732.48188282  2491.73475440
