# SAXS profile: number of points = 501, q_min = 0, q_max = 0.5, delta_q = 0.001
#    q    intensity    error
0.00000000 1682732.95097188 353.37391970
0.00100000 1682650.96502520 504.79530150
0.00200000 1682404.94805045 984.20692577
0.00300000 1681995.11690717 1311.95623792
0.00400000 1681421.33803672 1387.17265659
0.00500000 1680684.14174130 1815.13894493
0.00600000 1679783.40622657 1940.14991318
0.00700000 1678719.71839268 2014.46374579
0.00800000 1677492.85217027 2717.53853525
0.00900000 1676104.10946307 2514.15627167
0.01000000 1674552.80778764 3868.21715302
0.01100000 1672840.31385805 3011.11269605
0.01200000 1670966.43022017 3258.38468179
0.01300000 1668932.39218748 4906.66144944
0.01400000 1666738.18444911 6000.25773001
0.01500000 1664385.24253959 4793.42971196
0.01600000 1661872.96931708 5085.33151344
0.01700000 1659203.67590867 5823.80516369
0.01800000 1656377.15374930 6608.94514085
0.01900000 1653394.25405167 5952.21958317
0.02000000 1650256.04350396 7277.62948106
0.02100000 1646964.50563395 10326.46791851
0.02200000 1643518.28111555 5670.13832746
0.02300000 1639920.61359362 8265.20026873
0.02400000 1636170.91339743 7362.76944601
0.02500000 1632271.86526995 8275.61873487
0.02600000 1628223.29449051 6594.30464430
0.02700000 1624027.45813444 9549.28189120
0.02800000 1619684.17031709 7045.62646399
0.02900000 1615195.96920140 7268.38219513
0.03000000 1610564.24340088 11982.59852169
0.03100000 1605789.39061843 9249.34731555
0.03200000 1600872.56676572 13471.34326980
0.03300000 1595817.79605183 9766.40536207
0.03400000 1590623.20435827 10856.00387065
0.03500000 1585291.97596609 8560.57706553
0.03600000 1579825.53465588 11398.44175931
0.03700000 1574225.36969049 11665.01052888
0.03800000 1568493.18659633 11010.82267948
0.03900000 1562631.09820321 14063.68053512
0.04000000 1556638.83654320 11487.99514603
0.04100000 1550520.40535272 9768.27900664
0.04200000 1544276.67456575 10956.64351435
0.04300000 1537908.65637305 15225.29640482
0.04400000 1531419.73644090 13438.20881137
0.04500000 1524811.31352412 10521.19855218
0.04600000 1518083.35893998 11772.73699586
0.04700000 1511240.25706537 15233.30249969
0.04800000 1504282.09141585 13267.76866361
0.04900000 1497213.06219676 16843.64773374
0.05000000 1490032.62415568 15958.25014782
0.05100000 1482745.17424471 12721.95418766
0.05200000 1475349.05856878 14074.83067465
0.05300000 1467850.40950588 14267.50664552
0.05400000 1460249.21394050 14456.46789217
0.05500000 1452547.87815077 13421.54302022
0.05600000 1444747.67015865 16058.37110316
0.05700000 1436853.68131714 13750.69037207
0.05800000 1428864.61454891 13909.99767212
0.05900000 1420783.18303219 23016.68864013
0.06000000 1412613.33305979 19388.11890204
0.06100000 1404356.17492909 18284.71825205
0.06200000 1396014.05702009 22426.96687434
0.06300000 1387589.88409062 18649.20891413
0.06400000 1379082.91790417 17479.87680191
0.06500000 1370499.07893025 14924.73566770
0.06600000 1361839.20993371 17792.43011027
0.06700000 1353104.69190003 15181.83535361
0.06800000 1344298.98928842 13913.49519041
0.06900000 1335424.74079232 15424.15647829
0.07000000 1326482.32394711 22603.25985853
0.07100000 1317475.44813160 18497.35615814
0.07200000 1308405.96651773 15759.75060500
0.07300000 1299277.01377981 20190.76574019
0.07400000 1290090.15073736 15964.86636355
0.07500000 1280847.88697635 17521.99991514
0.07600000 1271550.79948278 16155.05366479
0.07700000 1262204.48825225 20674.91048699
0.07800000 1252809.00936929 14845.78745724
0.07900000 1243366.47772421 17904.47811902
0.08000000 1233881.04289314 17989.98644931
0.08100000 1224353.90231667 16565.50907557
0.08200000 1214786.20523769 18148.90675789
0.08300000 1205181.93388594 19740.88100353
0.08400000 1195542.52356536 19816.11825824
0.08500000 1185870.32849012 16827.50075124
0.08600000 1176167.64720093 15348.98851663
0.08700000 1166437.97289636 21555.77475133
0.08800000 1156680.47954655 16985.85363986
0.08900000 1146901.25001676 18579.80112296
0.09000000 1137099.36390164 20177.82916030
0.09100000 1127278.27051318 17112.08495034
0.09200000 1117439.69602501 17147.11294119
0.09300000 1107588.61448601 21863.80027738
0.09400000 1097721.50435612 20335.29182390
0.09500000 1087844.44596964 20364.44898574
0.09600000 1077958.78042446 23526.45148869
0.09700000 1068068.47023229 20410.78942571
0.09800000 1058173.76985538 23570.82183177
0.09900000 1048276.88741809 15724.15405066
0.10000000 1038379.27799913 17304.59148164
0.10100000 1028482.98252284 25177.26459629
0.10200000 1018591.20848447 17310.95840244
0.10300000 1008704.89332825 20456.53619899
0.10400000 998827.05369144 20450.98488645
0.10500000 988960.74160980 18869.37183771
0.10600001 979102.85881107 20428.98211035
0.10700001 969261.26045131 21982.84642150
0.10800001 959434.07918088 23530.12189928
0.10900001 949625.27456136 17235.69954450
0.11000001 939834.88195213 23472.37728159
0.11100001 930066.20857386 15625.11303957
0.11200001 920319.84572874 15599.42211948
0.11300001 910598.01281695 18685.47210273
0.11400001 900903.12767190 17094.63765247
0.11500001 891236.83139319 18609.02591575
0.11600001 881599.70384617 17019.28308421
0.11700001 871995.06018550 21608.03860903
0.11800001 862421.72697679 16933.65140674
0.11900001 852882.77727023 19957.45792815
0.12000001 843379.38440138 18368.80385752
0.12100001 833916.19001453 18312.80039540
0.12200001 824490.39521894 15211.84850844
0.12300001 815106.69967507 25773.67505804
0.12400001 805763.80884178 22662.10819146
0.12500001 796463.93844010 18063.80297500
0.12600001 787210.32413250 16495.99311954
0.12700001 778002.37787544 20912.70490283
0.12800001 768841.79445612 23803.34307820
0.12900001 759730.19569490 20740.63532002
0.13000001 750668.94839543 16225.71008436
0.13100001 741657.95146853 19090.27657067
0.13200001 732700.04139994 21926.04977249
0.13300001 723795.95213488 16003.12925614
0.13400001 714945.33047390 17373.17234958
0.13500001 706151.79090725 15846.04693507
0.13600001 697415.00323123 22931.00638746
0.13700001 688735.98342928 17108.20263509
0.13800001 680114.24953178 17016.45932571
0.13900001 671554.12176320 19743.69211091
0.14000001 663053.44271212 14023.58097472
0.14100001 654615.52962166 16731.97372626
0.14200001 646239.28358553 20792.74993006
0.14300001 637927.41417851 19290.92591466
0.14400001 629676.63414365 23282.29464568
0.14500001 621493.49531905 16332.84982744
0.14600001 613374.94294433 14877.40994295
0.14700001 605324.00117217 14782.01280599
0.14800001 597337.60426430 17355.64491072
0.14900001 589419.59237395 19892.91218118
0.15000001 581569.36576750 17124.31078300
0.15100001 573787.89758493 17007.07408690
0.15200001 566076.71633326 14290.60737816
0.15300001 558435.04636538 16769.80523370
0.15400001 550861.68899379 17930.54882291
0.15500001 543360.70616660 16529.03346164
0.15600001 535928.54278302 17669.56488947
0.15700001 528570.88626130 21296.12201258
0.15800001 521281.71719663 13675.82649614
0.15900001 514066.82130018 14805.12515226
0.16000001 506921.87254451 13466.38017979
0.16100001 499851.84462915 18219.60059678
0.16200001 492853.89393114 14460.33393055
0.16300001 485928.67945014 11953.84607879
0.16400001 479077.27081473 21342.89342239
0.16500001 472297.95237828 11760.21956943
0.16600001 465593.05034183 11663.10646171
0.16700001 458960.50382538 13878.96629097
0.16800001 452401.84054531 13762.06463918
0.16900001 445917.91623114 14782.17962105
0.17000001 439506.23820676 18037.33686772
0.17100001 433168.75043461 15646.05600453
0.17200001 426904.45714423 12185.98830464
0.17300001 420713.79269003 15372.88271087
0.17400001 414597.19924669 14148.13009245
0.17500001 408552.74826693 11864.37237000
0.17600001 402580.42445527 14963.91508373
0.17700001 396683.80869654 12709.74983093
0.17800001 390858.14657378 12593.45007742
0.17900001 385104.52429880 12477.38717663
0.18000001 379424.94955390 15452.08180046
0.18100001 373817.74934326 12246.27004696
0.18200001 368280.06861162 11120.21719702
0.18300001 362815.04478659 11015.06528006
0.18400001 357420.93811706 12893.96095169
0.18500001 352098.31583551 11788.25217107
0.18600001 346846.42541865 9729.04269263
0.18700001 341663.83464166 9634.92059209
0.18800001 336549.77555886 18128.25451697
0.18900001 331508.59151762 10392.79483511
0.19000001 326532.40802949 16839.27707772
0.19100001 321627.65271358 10189.16451940
0.19200001 316789.04302643 10088.14755186
0.19300001 312020.29466051 9987.77010403
0.19400001 307316.75966780 10786.81877406
0.19500001 302680.62721592 11568.45411886
0.19600001 298109.52164892 10570.96413722
0.19700001 293606.03587186 11336.12958073
0.19800001 289166.51001022 12947.43109759
0.19900001 284791.86191260 12815.63439173
0.20000001 280479.86743447 13530.34944450
0.20100001 276232.84896880 11717.79800707
0.20200001 272047.63398705 11597.39118500
0.20300001 267925.13653909 9838.21147871
0.20400001 263864.47532839 11359.36619980
0.20500001 259864.44654118 9635.77413320
0.20600001 255924.69071331 9535.75442671
0.20700001 252045.01007305 8650.18515459
0.20800001 248224.15930124 7781.82776194
0.20900001 244464.13920040 9240.74489860
0.21000001 240758.99542571 8382.02482198
0.21100001 237112.89361922 7540.19037354
0.21200001 233522.19847081 8207.13805324
0.21300001 229987.43893769 13288.67485005
0.21400001 226508.44288381 7304.89762835
0.21500001 223085.17905836 9396.34818617
0.21600001 219714.14819684 8582.03503431
0.21700001 216397.20229789 9199.04550461
0.21800001 213132.82801583 9101.83785076
0.21900001 209919.49404116 7620.07799398
0.22000001 206757.09176783 10280.99687427
0.22100001 203646.74995802 10172.15564138
0.22200001 200585.72146889 6709.59270039
0.22300001 197573.52066492 7966.16472989
0.22400001 194609.12447262 6568.05826153
0.22500001 191694.86953344 7798.14766137
0.22600001 188825.51549388 7715.41092793
0.22700001 186003.82541094 6997.46424286
0.22800001 183227.05138806 7552.61941538
0.22900001 180495.04532605 7472.49522988
0.23000001 177808.06011535 9241.57436155
0.23100001 175165.61461846 10362.79825091
0.23200001 172564.64937484 8443.58869324
0.23300001 170007.13859168 5967.25084679
0.23400001 167490.23319539 6494.43409931
0.23500001 165014.30036011 8178.10911264
0.23600001 162579.22505334 6357.66089641
0.23700001 160183.79837492 7434.13043420
0.23800001 157826.99124968 6223.90769431
0.23900001 155508.83170438 6158.15002677
0.24000001 153227.76969123 6093.10254998
0.24100001 150985.09053488 8221.13856849
0.24200001 148778.77040921 5422.98643793
0.24300001 146607.42129177 5365.83187310
0.24400001 144471.48342421 10087.72180728
0.24500001 142369.66757558 6304.12917846
0.24600001 140301.96433475 5198.18802450
0.24700001 138268.44792263 6172.30380725
0.24800001 136267.36579787 6616.46225932
0.24900001 134296.97513143 7050.59152795
0.25000001 132359.60210656 7973.34280810
0.25100001 130452.59047780 6903.55141469
0.25200001 128577.62952824 4879.52127145
0.25300001 126730.87977890 6276.98077242
0.25400001 124914.52759954 6211.37517875
0.25500001 123125.37178058 4728.01450007
0.25600001 121365.98475146 5614.39072023
0.25700001 119633.26983969 5555.76931422
0.25800001 117927.68166102 5955.93784409
0.25900001 116249.94890005 5440.49786594
0.26000001 114597.16064972 5383.77486206
0.26100001 112969.97640501 4883.69231107
0.26200001 111369.02412131 5272.20985137
0.26300001 109791.28524761 4347.73510153
0.26400001 108238.75326500 6023.48690422
0.26500001 106709.84201360 5960.81205694
0.26600001 105203.81756095 5477.43702050
0.26700001 103721.04229082 4169.58609740
0.26800001 102260.97262729 4538.85348484
0.26900001 100821.83433893 4491.61293235
0.27000001 99405.05806897  5253.06054224
0.27100001 98009.09296555  5198.40253690
0.27200001 96634.58588926  4748.62377532
0.27300001 95280.08934122  5090.81541442
0.27400001 93944.20148524  5037.75804306
0.27500001 92629.92479832  3834.87906814
0.27600001 91332.64913108  4553.84610119
0.27700001 90056.39899475  6008.56322529
0.27800001 88797.26806616  4459.39901333
0.27900001 87556.80706565  4412.86328496
0.28000001 86333.68784212  4366.75813773
0.28100001 85128.39981696  4321.11777922
0.28200001 83940.53993602  4275.93130672
0.28300001 82769.60194340  4231.18225161
0.28400001 81614.41150309  4535.72113396
0.28500001 80476.22175984  6214.37413843
0.28600001 79353.71954622  4099.41334579
0.28700001 78247.63010552  3380.29778056
0.28800001 77155.38400872  5017.02908264
0.28900001 76080.26017752  3640.44062181
0.29000001 75018.87989031  4911.86139332
0.29100001 73973.06914326  4860.03087276
0.29200001 72941.22410378  3846.92034133
0.29300001 71923.91628085  4123.39831557
0.29400001 70919.89267764  4393.48755935
0.29500001 69930.89558983  3725.91829340
0.29600001 68954.31655542  3686.29793755
0.29700001 67991.36402041  4558.82117337
0.29800001 67042.18314588  4209.57887901
0.29900001 66106.18835417  4164.69006347
0.30000001 65181.76159135  3237.25234268
0.30100001 64271.46691358  4076.09662462
0.30200001 63372.44691307  3744.36120312
0.30300001 62486.63782900  3419.26898388
0.30400001 61612.66055235  3664.41315983
0.30500001 60751.32661112  3346.18322816
0.30600001 59900.48535564  3310.10097746
0.30700001 59062.29776549  2728.67828595
0.30800001 58235.48538001  3239.05785019
0.30900001 57420.29472519  4539.07451293
0.31000001 56616.64027677  2641.16639396
0.31100001 55823.36243005  2873.78683396
0.31200001 55042.25502201  3101.08079476
0.31300001 54271.30214622  3323.03198775
0.31400001 53512.61393999  3792.70669257
0.31500001 52763.20145911  3001.17104109
0.31600002 52025.88623870  2968.59720934
0.31700002 51298.47385192  2691.63105045
0.31800002 50581.21332978  3146.40452416
0.31900002 49875.11524017  2633.40620937
0.32000002 49179.54212521  3078.39358509
0.32100002 48493.70565221  2342.24609391
0.32200002 47819.07247292  2548.51758812
0.32300002 47153.06721940  2520.80309291
0.32400002 46498.42204473  2946.83763662
0.32500002 45853.09727083  4035.98981289
0.32600002 45217.96081307  2439.73519120
0.32700002 44593.06120636  2632.77445829
0.32800002 43978.68006825  2387.38276056
0.32900002 43372.11097777  3220.37939260
0.33000002 42776.67655891  2336.24830090
0.33100002 42189.85601208  3151.58239334
0.33200002 41614.09272586  3949.38565717
0.33300002 41047.17162799  2262.10973554
0.33400002 40490.37500155  2848.49801625
0.33500002 39942.78196170  2013.11630620
0.33600002 39404.12104090  2191.06625424
0.33700002 38874.93919679  2562.24736380
0.33800002 38355.95797743  2145.44061107
0.33900002 37845.43916983  3088.18798251
0.34000002 37344.36845767  2101.18099078
0.34100002 36852.72628321  2646.76292701
0.34200002 36370.83151168  2058.40730689
0.34300002 35897.30481473  2407.99132101
0.34400002 35433.78941501  2200.43842688
0.34500002 34978.84071088  1996.94211076
0.34600002 34533.68875594  2336.72216034
0.34700002 34096.31847426  1957.81069952
0.34800002 33668.88459215  1938.82281106
0.34900002 33249.84619142  2094.74040927
0.35000002 32840.10603550  2766.45066346
0.35100002 32439.93883755  2569.24327762
0.35200002 32047.01598799  2375.64540771
0.35300002 31664.13235577  2017.63860927
0.35400002 31289.30515229  1666.15557827
0.35500002 30923.72965857  2311.85813877
0.35600002 30566.30553629  2782.60375629
0.35700002 30217.54293259  1784.95034557
0.35800002 29877.56305284  2091.57890058
0.35900002 29546.70010502  1914.62625749
0.36000002 29223.95037861  2057.22008434
0.36100002 28909.10213185  2040.69361615
0.36200002 28604.18528691  2024.74735144
0.36300002 28306.09634797  1545.51293381
0.36400002 28016.97101373  1994.10800636
0.36500002 27735.19472377  2893.05829867
0.36600002 27462.64021058  1663.00025672
0.36700002 27197.62405541  1801.57070277
0.36800002 26941.55467461  1789.45814625
0.36900002 26693.14813316  1629.61677072
0.37000002 26452.14577550  1619.26818035
0.37100002 26218.93364663  1463.01656678
0.37200002 25994.39500844  1599.82511658
0.37300002 25777.33817398  1735.33048808
0.37400002 25567.70114711  1438.18325765
0.37500002 25365.96457740  1573.70451693
0.37600002 25171.91494118  1992.86060030
0.37700002 24985.31111345  2266.66753159
0.37800002 24805.99507999  1551.24297581
0.37900002 24634.84414509  1544.60480107
0.38000002 24470.25068307  2237.55982846
0.38100002 24312.18021442  1950.32318919
0.38200002 24162.47549965  1943.38799650
0.38300002 24019.00806961  1798.54340946
0.38400002 23882.99689289  1379.24313590
0.38500002 23753.06883518  1925.42385100
0.38600002 23631.10240113  1371.78555937
0.38700002 23514.90468700  1642.28102114
0.38800002 23405.31281915  1502.27007447
0.38900002 23302.43899359  1499.51202028
0.39000002 23206.35687186  1769.36876352
0.39100002 23115.93509512  1495.13875279
0.39200002 23032.51587417  2036.65031266
0.39300002 22954.42647262  2848.87400449
0.39400002 22883.78630751  1491.45084325
0.39500002 22817.70249208  1761.98306992
0.39600002 22757.78130980  1761.79372357
0.39700002 22703.07954249  1626.44869548
0.39800002 22655.19588669  1627.09624567
0.39900002 22611.70240815  1492.37242964
0.40000002 22574.10737039  1493.61588493
0.40100002 22541.48005250  2174.80209851
0.40200002 22514.52840530  2177.60529053
0.40300002 22492.50434765  1363.04582805
0.40400002 22475.40843192  2048.07169040
0.40500002 22462.75155427  1641.57796137
0.40600002 22455.81322031  1645.11295447
0.40700002 22452.86266684  1648.93831238
0.40800002 22454.38991981  1377.57688685
0.40900002 22460.14217779  1933.81833314
0.41000002 22470.76606185  1662.38735202
0.41100002 22485.31399651  1389.59247083
0.41200002 22502.97115444  1394.05912907
0.41300002 22526.14653685  1538.76114284
0.41400002 22552.28898755  2246.20808959
0.41500002 22582.02773186  1550.03045696
0.41600002 22614.56561321  1555.99526075
0.41700002 22651.90512736  1846.35687442
0.41800002 22693.03557681  1568.88308894
0.41900002 22735.49022188  2434.97111814
0.42000002 22781.71253955  1870.26477956
0.42100002 22831.62384213  2023.33860077
0.42200002 22883.93922242  2032.78041745
0.42300002 22938.75446938  1604.79533872
0.42400002 22996.02205160  1465.99647526
0.42500002 23056.47107257  1915.30114276
0.42600002 23117.90790743  1628.77227880
0.42700002 23182.87133891  1488.34041049
0.42800002 23249.23779364  2393.74163666
0.42900002 23318.44184247  2406.46331218
0.43000002 23389.40827691  1814.55038011
0.43100002 23460.63403227  1976.32390453
0.43200002 23534.93319629  1834.31278024
0.43300002 23609.88563428  2151.80507868
0.43400002 23686.91665388  2009.24280038
0.43500002 23764.64330124  1554.20774555
0.43600002 23844.30132938  2188.19163669
0.43700002 23924.31895832  2357.74174507
0.43800002 24004.75249341  2054.92693458
0.43900002 24087.21958421  1748.73222468
0.44000002 24169.57700880  1918.58111388
0.44100002 24253.06483856  2251.16958500
0.44200002 24336.84668951  1940.62024699
0.44300002 24421.14871921  2602.31773084
0.44400002 24505.54846149  2290.04361225
0.44500002 24589.64635247  2467.57112841
0.44600002 24673.78516443  2481.56606052
0.44700002 24759.00863006  1830.18600467
0.44800002 24842.90464199  2007.80364832
0.44900002 24927.26710214  2355.62685279
0.45000002 25011.56768337  1861.23589737
0.45100002 25094.46412168  1871.54522289
0.45200002 25177.44500040  2224.04970951
0.45300002 25259.25046019  2408.21705301
0.45400002 25340.78038723  2248.36084641
0.45500002 25421.78018351  1912.73483166
0.45600002 25501.32392225  3845.85484298
0.45700002 25580.34022333  2460.31723928
0.45800002 25657.87339225  2119.85360014
0.45900002 25734.19925479  2130.79179928
0.46000002 25809.96339746  1963.23495887
0.46100002 25883.43236274  2331.83853208
0.46200002 25956.23734906  2343.45900013
0.46300002 26027.51277110  1992.66647220
0.46400002 26096.65716841  2184.29030852
0.46500002 26165.37177425  2194.75148845
0.46600002 26231.27454892  2388.75113001
0.46700002 26295.56917034  2584.32866055
0.46800002 26358.78467831  2225.20870801
0.46900002 26419.27089447  2793.83802951
0.47000002 26478.19259515  2057.75283506
0.47100002 26535.25302344  1878.69600310
0.47200002 26590.37628467  2075.24601550
0.47300002 26643.32977538  2273.20900418
0.47400002 26693.50647428  2472.48615437
0.47500002 26741.97221355  2482.18997851
0.47600002 26788.89519797  2300.09465072
0.47700002 26832.30056795  2308.65125029
