# SAXS profile: number of points = 501, q_min = 0, q_max = 0.5, delta_q = 0.001
#    q    intensity    error
0.00000000 1682732.95097188 302.89193117
0.00100000 1682650.90320182 555.27481124
0.00200000 1682404.69573493 1362.74784670
0.00300000 1681994.55187246 1009.19676707
0.00400000 1681420.33619056 1387.17183007
0.00500000 1680682.56329488 1815.13724020
0.00600000 1679781.15787404 1763.77028757
0.00700000 1678716.64123351 2215.90605852
0.00800000 1677488.84697317 2943.99305073
0.00900000 1676099.03854706 2765.56353182
0.01000000 1674546.58520768 3868.20277886
0.01100000 1672832.76747141 3011.09911255
0.01200000 1670957.44146486 4561.71401520
0.01300000 1668921.86550940 4205.68328657
0.01400000 1666725.97679915 4125.14697545
0.01500000 1664371.22808347 5192.83846285
0.01600000 1661857.07628641 4661.50930737
0.01700000 1659185.73252386 6271.72235028
0.01800000 1656357.08762047 5192.67970335
0.01900000 1653371.93587275 6944.16244400
0.02000000 1650231.33386602 7797.34340523
0.02100000 1646937.30092641 8695.82934315
0.02200000 1643488.46471336 7371.04609912
0.02300000 1639888.08462207 6493.95711070
0.02400000 1636135.55433591 6749.05946938
0.02500000 1632233.55078972 8275.42448045
0.02600000 1628181.93328188 6594.13713140
0.02700000 1623982.96795313 6820.72877780
0.02800000 1619636.46097239 7749.96082116
0.02900000 1615144.96240443 8721.78319744
0.03000000 1610509.74551611 7488.87066088
0.03100000 1605731.21579254 10790.51426663
0.03200000 1600810.74001440 8716.41488084
0.03300000 1595752.29253922 11393.67189398
0.03400000 1590553.82698618 10855.53037006
0.03500000 1585218.66769858 11128.23556112
0.03600000 1579748.10361728 12274.64333236
0.03700000 1574143.87085793 9869.88252674
0.03800000 1568407.48479158 11010.22105279
0.03900000 1562541.05730804 10312.77145582
0.04000000 1556544.39869740 11487.29819470
0.04100000 1550421.54268553 11721.18740617
0.04200000 1544173.21714262 11951.90125517
0.04300000 1537800.61251895 11164.43296512
0.04400000 1531306.98937084 13437.21945578
0.04500000 1524693.75173915 13676.50358858
0.04600000 1517960.98493169 11771.78798538
0.04700000 1511112.92482394 14144.01763416
0.04800000 1504149.89217731 12161.05244408
0.04900000 1497075.82487225 13473.68305102
0.05000000 1489890.15091871 12537.42620380
0.05100000 1482597.63838371 12720.68832991
0.05200000 1475196.14867818 17591.71489278
0.05300000 1467692.34537512 13077.13940692
0.05400000 1460085.78161001 16863.99156403
0.05500000 1452379.11003893 13419.98360279
0.05600000 1444573.33492099 18526.65388489
0.05700000 1436673.95013815 14998.87673957
0.05800000 1428679.26945232 13908.19333753
0.05900000 1420592.30992395 12785.33138647
0.06000000 1412416.87197078 18093.06097523
0.06100000 1404154.18357577 20893.81522800
0.06200000 1395806.21585013 14509.40629198
0.06300000 1387376.57608155 15982.57890373
0.06400000 1378863.75792332 14788.31449533
0.06500000 1370274.19973796 14922.28673318
0.06600000 1361608.36094255 15052.58113451
0.06700000 1352868.20958360 16559.10766025
0.06800000 1344056.72351308 15302.08651347
0.06900000 1335176.56242206 15421.29001798
0.07000000 1326228.41227173 19774.06655296
0.07100000 1317215.80887110 18493.71082275
0.07200000 1308140.34476019 17188.96493540
0.07300000 1299005.47841188 14418.96148598
0.07400000 1289812.88309742 14510.39561486
0.07500000 1280564.63277142 16058.28124765
0.07600000 1271261.78465967 16151.38173129
0.07700000 1261909.72003208 23622.95106665
0.07800000 1252508.34566433 22263.33688825
0.07900000 1243059.85820476 19391.73469754
0.08000000 1233568.88767012 23980.58030126
0.08100000 1224035.84491927 19572.33407856
0.08200000 1214462.51956871 19656.07680158
0.08300000 1204852.34430260 22771.71037604
0.08400000 1195207.44838359 16762.78525040
0.08500000 1185529.51781458 27527.99669596
0.08600000 1175821.26843958 18413.36192830
0.08700000 1166085.90842705 15392.33471403
0.08800000 1156322.83237473 18524.29264461
0.08900000 1146537.95995266 15478.26318637
0.09000000 1136730.70173197 21722.92473054
0.09100000 1126904.31053558 17106.40823761
0.09200000 1117060.22287665 21816.18717785
0.09300000 1107203.62279125 21856.20054097
0.09400000 1097331.42582478 21891.76297406
0.09500000 1087449.23329311 21922.97757363
0.09600000 1077558.24684415 20382.01519717
0.09700000 1067662.92161837 17264.11025420
0.09800000 1057762.97809179 17278.55905953
0.09900000 1047861.44938905 17289.71472792
0.10000000 1037958.71268151 20442.59780762
0.10100000 1028057.68282442 15729.28328699
0.10200000 1018161.06200112 17303.64806261
0.10300000 1008270.12849136 22020.62064212
0.10400000 998387.94881700 20441.99421372
0.10500000 988516.83542631 17289.16026505
0.10600001 978654.40591552 18848.88474484
0.10700001 968808.60247412 26680.99016768
0.10800001 958976.96428111 20383.05633506
0.10900001 949164.06179588 15661.20775674
0.11000001 939369.65428986 15640.50548012
0.11100001 929596.76345562 18740.67163345
0.11200001 919846.64522494 21827.96191879
0.11300001 910121.01301103 20231.99107177
0.11400001 900422.41178751 20191.97353506
0.11500001 890752.54834008 17049.00457803
0.11600001 881111.85276051 23195.27061622
0.11700001 871503.75755378 15425.61723517
0.11800001 861927.10034588 21539.55925212
0.11900001 852385.02864584 16877.22436213
0.12000001 842878.48846645 18357.89434355
0.12100001 833412.32811051 16776.59095518
0.12200001 823983.73552202 19763.25082757
0.12300001 814597.39729142 21212.11722486
0.12400001 805251.75671859 18118.16537985
0.12500001 795949.25652503 16547.78582290
0.12600001 786693.50490749 20981.11676459
0.12700001 777483.33926778 14927.68081743
0.12800001 768320.39923483 16353.70046845
0.12900001 759206.91338164 16284.98905958
0.13000001 750143.69768256 16214.35678967
0.13100001 741130.91892019 20544.15004087
0.13200001 732171.36457954 16067.50135313
0.13300001 723265.75349276 20352.69926277
0.13400001 714413.76441377 15913.56735257
0.13500001 705619.02991619 17273.55466677
0.13600001 696880.99935873 20049.26729689
0.13700001 688200.99124485 18519.48954765
0.13800001 679578.29059976 15586.12882988
0.13900001 671017.25456387 21137.04451555
0.14000001 662516.32458381 16814.66511093
0.14100001 654077.81131334 15325.04384185
0.14200001 645701.28252336 13850.29316338
0.14300001 637389.24677085 17897.89089353
0.14400001 629138.44494953 15052.13800543
0.14500001 620955.45418971 14958.81759707
0.14600001 612837.12884466 16215.67119419
0.14700001 604786.47231104 14768.88635058
0.14800001 596800.46167059 17340.03823192
0.14900001 588883.22292910 18549.82239746
0.15000001 581033.56390062 17108.53409628
0.15100001 573253.04383505 15684.20401939
0.15200001 565542.96114004 14277.13272768
0.15300001 557902.45365395 14176.30201631
0.15400001 550330.38432995 16633.73665134
0.15500001 542830.57256311 15242.68319692
0.15600001 535400.26449412 16391.27987107
0.15700001 528044.63873588 13766.12438156
0.15800001 520757.01873850 22356.09986962
0.15900001 513544.30220807 12325.06383474
0.16000001 506401.26049789 14675.50922195
0.16100001 499333.55777330 15773.94783466
0.16200001 492337.93629064 19260.26097689
0.16300001 485415.26078449 11941.21597902
0.16400001 478566.45154392 13028.97225838
0.16500001 471790.08438807 14097.08838706
0.16600001 465088.12971150 12815.50401926
0.16700001 458458.62092991 12708.47357220
0.16800001 451903.13744708 17183.61761277
0.16900001 445422.73757566 12494.10837894
0.17000001 439014.38843252 12386.79155452
0.17100001 432680.44445175 16744.73399099
0.17200001 426419.79213360 11065.59412842
0.17300001 420232.96526182 14258.50518468
0.17400001 414120.31736590 16305.98826635
0.17500001 408079.97960546 11850.64316742
0.17600001 402111.89651708 14946.49989945
0.17700001 396219.64089929 11636.97140283
0.17800001 390398.23972348 15723.28984751
0.17900001 384649.37234609 15578.30031584
0.18000001 378974.54381110 15433.73902572
0.18100001 373372.11956187 11212.36528008
0.18200001 367839.32433010 11106.90892281
0.18300001 362379.36603352 13002.17226750
0.18400001 356990.34588589 13869.07559285
0.18500001 351672.98188588 10792.84432395
0.18600001 346426.44157025 11660.71457415
0.18700001 341249.35044840 10585.55535102
0.18800001 336140.70925203 13341.42538054
0.18900001 331105.34541069 12267.45362707
0.19000001 326135.09767571 14015.65648484
0.19100001 321235.96168209 9251.59613358
0.19200001 316403.38884812 9159.87853997
0.19300001 311640.65965436 9975.61798691
0.19400001 306943.34214456 8978.09318198
0.19500001 302313.38520005 13332.02091733
0.19600001 297748.66104864 9678.32068475
0.19700001 293251.47564126 11322.44000958
0.19800001 288818.45040015 11207.60049744
0.19900001 284450.38676446 12800.26800934
0.20000001 280145.15014858 10980.28967901
0.20100001 275905.00319065 10867.89858932
0.20200001 271726.48575338 9101.47907048
0.20300001 267610.90748252 9826.67298721
0.20400001 263557.16064527 12156.57460935
0.20500001 259564.17122640 8020.53327000
0.20600001 255631.61621815 9524.83447051
0.20700001 251759.09140760 10211.34923017
0.20800001 247945.22870709 10882.31660236
0.20900001 244192.60707916 11538.10122991
0.21000001 240494.81522566 12178.65801874
0.21100001 236856.19020184 10544.83808628
0.21200001 233272.93717995 8943.68483429
0.21300001 229745.80255865 8849.80873294
0.21400001 226274.18562816 8756.81139780
0.21500001 222858.52762984 7942.67830024
0.21600001 219495.25197047 7859.02786837
0.21700001 216185.82919646 9190.06003364
0.21800001 212929.19016741 11191.55876434
0.21900001 209723.65712937 8305.05721500
0.22000001 206568.95262877 7532.53721377
0.22100001 203466.53435197 10163.15387143
0.22200001 200413.35584685 9385.35789809
0.22300001 197409.01338798 8622.82611252
0.22400001 194452.45934435 9844.15621980
0.22500001 191546.17670440 8441.44040654
0.22600001 188684.68380070 7067.18516595
0.22700001 185870.95124202 6992.46551639
0.22800001 183102.12160666 6289.55817462
0.22900001 180378.05888024 9334.56498849
0.23000001 177698.97439325 6157.26975391
0.23100001 175064.69986819 6701.47702789
0.23200001 172471.58978815 7836.24705263
0.23300001 169922.07295888 7753.54455581
0.23400001 167413.10152547 6491.44331867
0.23500001 164945.12240144 7006.86913101
0.23600001 162518.08984276 6933.02204060
0.23700001 160130.56394045 6288.32754337
0.23800001 157781.64297163 8484.70825212
0.23900001 155471.34765857 6716.36253653
0.24000001 153198.24606455 8860.98697150
0.24100001 150963.32356727 7123.95957611
0.24200001 148764.82239516 5964.72583608
0.24300001 146601.42037560 6975.29591142
0.24400001 144473.20199283 5309.39042439
0.24500001 142379.19322143 6829.93022192
0.24600001 140319.20931969 7278.35773172
0.24700001 138293.34244355 6687.86635695
0.24800001 136299.87130487 5090.80043407
0.24900001 134337.16633200 6045.17277092
0.25000001 132407.35559921 6979.19204381
0.25100001 130507.75162846 6413.15121842
0.25200001 128640.28913555 5370.08912402
0.25300001 126801.04932920 4831.12020801
0.25400001 124991.95412363 5737.13096571
0.25500001 123210.21183715 5204.39959423
0.25600001 121457.94900854 5618.64498697
0.25700001 119732.55020577 5560.37989464
0.25800001 118034.08039694 5502.74908846
0.25900001 116363.30477183 6353.43674115
0.26000001 114717.61513538 5389.43381406
0.26100001 113097.29996166 6667.08614820
0.26200001 111503.19297616 5278.56140526
0.26300001 109932.32371387 6529.98033759
0.26400001 108386.39390570 6031.70310626
0.26500001 106864.20311570 4690.27009669
0.26600001 105364.80486043 4641.84669778
0.26700001 103888.41997123 5846.84055265
0.26800001 102434.77040876 4546.56749974
0.26900001 101002.01205695 5726.81435463
0.27000001 99591.33337800  4453.22668273
0.27100001 98201.50290401  4006.62150809
0.27200001 96833.02059968  5551.43733369
0.27300001 95484.63287821  5101.74417612
0.27400001 94154.50970454  4660.64845094
0.27500001 92846.18282329  4228.21536587
0.27600001 91554.64020328  4945.32412462
0.27700001 90283.77504382  5647.25039626
0.27800001 89030.17228165  4098.50417496
0.27900001 87795.08554405  4056.13314410
0.28000001 86577.31905775  4744.00442230
0.28100001 85377.15578705  4694.89001893
0.28200001 84194.49411048  4646.27337739
0.28300001 83028.33946053  4598.10965695
0.28400001 81878.10422976  4200.34694579
0.28500001 80744.78178973  5888.71721465
0.28600001 79626.97132251  4113.52953322
0.28700001 78525.32450309  4070.75301492
0.28800001 77437.53823721  3692.60918562
0.28900001 76366.76205237  3986.34516782
0.29000001 75309.66671998  4273.44724031
0.29100001 74267.86051202  3903.51893328
0.29200001 73239.99771375  3540.78785708
0.29300001 72226.54519533  3822.22895267
0.29400001 71226.28223274  4097.29207939
0.29500001 70240.93525834  4366.17674234
0.29600001 69267.84269567  3085.88253817
0.29700001 68308.44082038  3969.40368398
0.29800001 67362.41041705  3625.44510027
0.29900001 66429.63300945  4185.06707771
0.30000001 65508.35355735  2957.70230313
0.30100001 64600.94381569  3219.06518273
0.30200001 63704.73506735  3184.91838047
0.30300001 62821.58717515  4869.92966837
0.30400001 61950.18275531  3117.64309476
0.30500001 61091.25298945  3364.90637396
0.30600001 60242.76695140  3051.59750439
0.30700001 59406.81012785  3842.43266098
0.30800001 58582.02446266  3801.38774735
0.30900001 57768.83566198  3223.50118255
0.31000001 56967.03035638  3189.01451033
0.31100001 56175.52527814  3154.81764899
0.31200001 55395.95354382  2860.92415622
0.31300001 54626.43794849  4116.64855871
0.31400001 53869.09201361  2799.84618997
0.31500001 53120.90477512  2769.72410611
0.31600002 52384.76216196  3985.43289398
0.31700002 51658.30321048  3449.74165173
0.31800002 50941.92223061  3168.84242239
0.31900002 50236.61179062  3134.76472416
0.32000002 49541.68774207  3101.06209105
0.32100002 48856.34251601  3775.61832841
0.32200002 48182.15999587  2801.31091480
0.32300002 47516.41546351  3233.01706122
0.32400002 46861.85343274  2512.96700932
0.32500002 46216.63267475  3389.99016721
0.32600002 45581.42144648  2682.92259338
0.32700002 44956.27020650  2875.40317857
0.32800002 44341.49303871  3063.55389911
0.32900002 43734.57396633  2381.34766523
0.33000002 43138.64248968  2570.20044124
0.33100002 42551.12307202  3178.56904400
0.33200002 41974.68425928  2725.62625145
0.33300002 41406.93120456  3319.17976254
0.33400002 40849.04897763  2463.19777000
0.33500002 40300.36982309  2234.25260880
0.33600002 39760.62013870  2612.86927615
0.33700002 39229.97805489  2386.75197789
0.33800002 38709.63834299  3149.41632473
0.33900002 38197.61629399  2337.69422790
0.34000002 37694.95891918  2699.33613604
0.34100002 37201.52602434  2862.65756314
0.34200002 36717.89527714  2078.04938162
0.34300002 36242.47882380  2431.14559464
0.34400002 35776.88298150  2036.59916017
0.34500002 35319.84781392  2383.03024487
0.34600002 34872.50045567  1815.11373468
0.34700002 34432.75528940  2156.86789348
0.34800002 34002.97854720  3738.11762363
0.34900002 33581.44939987  2468.23664779
0.35000002 33169.15208822  2095.62712819
0.35100002 32766.23232849  2249.07429355
0.35200002 32370.53758439  1714.02004627
0.35300002 31984.88465445  2717.43592895
0.35400002 31607.14579771  1851.38865279
0.35500002 31238.44118216  1668.13283814
0.35600002 30878.05789721  2149.57610233
0.35700002 30526.00474975  1803.17118597
0.35800002 30182.91211150  2275.48985187
0.35900002 29848.69194254  2095.37827361
0.36000002 29522.56457391  2238.10572636
0.36100002 29204.21585791  1744.36789582
0.36200002 28895.75863501  1888.04895864
0.36300002 28594.06079217  2029.60653116
0.36400002 28301.18013210  2169.28555988
0.36500002 28015.82429383  2922.33077051
0.36600002 27739.36335754  2290.57803775
0.36700002 27470.43888247  1668.00512795
0.36800002 27210.48563258  1656.71049622
0.36900002 26958.11505338  1645.79300197
0.37000002 26713.05845150  1783.89812789
0.37100002 26475.70900833  2068.28248571
0.37200002 26247.15728129  3377.61559474
0.37300002 26025.76649327  1460.04556944
0.37400002 25811.91233907  1887.49617921
0.37500002 25605.90107379  1733.00746677
0.37600002 25407.57486370  1580.47826927
0.37700002 25216.48135978  1715.72947300
0.37800002 25032.70751834  2276.97518373
0.37900002 24857.11151949  2125.28313560
0.38000002 24688.04393762  1693.10613345
0.38100002 24525.41948237  1686.36792350
0.38200002 24371.07061326  2100.17710959
0.38300002 24223.06090464  1674.29804905
0.38400002 24082.35719706  1807.98305222
0.38500002 23947.80054726  1525.23548911
0.38600002 23821.17710685  2350.79297416
0.38700002 23700.23738535  2069.03082176
0.38800002 23585.88285678  1651.48359587
0.38900002 23478.20489784  2060.21257739
0.39000002 23377.41699858  1645.30268631
0.39100002 23282.18031052  1779.68994725
0.39200002 23193.93124868  1367.28231189
0.39300002 23111.01728949  1639.03342382
0.39400002 23035.54333012  1774.31280906
0.39500002 22964.47372652  1500.49878438
0.39600002 22899.80865113  1636.42040374
0.39700002 22840.21712896  1499.91712992
0.39800002 22787.40922715  1772.97445892
0.39900002 22739.16219080  1364.34979609
0.40000002 22696.63805435  1774.76369675
0.40100002 22659.09381159  1639.61210589
0.40200002 22627.35088512  1504.60576839
0.40300002 22600.41143282  1369.58499772
0.40400002 22578.43382123  1645.96790355
0.40500002 22561.00746170  1511.36196147
0.40600002 22549.17256998  1514.28975569
0.40700002 22541.44253629  1931.35088802
0.40800002 22538.08114182  1382.71134357
0.40900002 22539.01067991  1940.60891149
0.41000002 22544.91167174  1667.87264450
0.41100002 22554.66645753  1951.42983437
0.41200002 22567.64024845  1398.06537964
0.41300002 22586.07631616  1683.11448683
0.41400002 22607.45220287  1970.23955284
0.41500002 22632.51513075  1694.72281329
0.41600002 22660.36044740  1984.36785841
0.41700002 22693.10422711  2276.57232394
0.41800002 22729.55389710  2142.82879518
0.41900002 22767.42843801  1577.78286552
0.42000002 22809.14671187  1728.47721973
0.42100002 22854.58761711  1591.36501119
0.42200002 22902.42694489  1453.15905851
0.42300002 22952.83961150  1459.80066846
0.42400002 23005.71448556  1613.27580475
0.42500002 23061.73814673  1915.73867863
0.42600002 23118.89332121  1924.99474361
0.42700002 23179.49077660  1785.74805405
0.42800002 23241.64764281  1495.60009669
0.42900002 23306.70832152  1803.93930957
0.43000002 23373.48007739  1662.20511447
0.43100002 23440.58325421  3037.89973370
0.43200002 23510.79667810  1985.13421159
0.43300002 23581.80527393  1842.21071530
0.43400002 23654.83950065  2006.52185573
0.43500002 23728.65595278  1707.03959014
0.43600002 23804.42650540  1560.38023137
0.43700002 23880.61482931  1882.74776236
0.43800002 23957.32657466  1577.59002970
0.43900002 24036.06290102  1903.65627197
0.44000002 24114.82783325  2233.27431147
0.44100002 24194.68605472  2566.57241831
0.44200002 24274.91343944  2258.29530429
0.44300002 24355.66635828  1946.50494760
0.44400002 24436.68239574  2283.60807810
0.44500002 24517.46729343  2296.30609553
0.44600002 24598.26359422  1979.17638259
0.44700002 24680.27814027  2487.77215444
0.44800002 24760.94356369  2334.70947927
0.44900002 24842.13208952  2515.26599327
0.45000002 24923.40773647  2023.28233593
0.45100002 25003.33214752  1864.74859994
0.45200002 25083.29545872  2215.73300936
0.45300002 25162.30929454  2056.26401300
0.45400002 25241.00353847  2067.23828777
0.45500002 25319.22972649  1905.01893491
0.45600002 25396.11821004  2089.08478297
0.45700002 25472.53931392  2274.95259394
0.45800002 25547.52497975  2462.52604951
0.45900002 25621.41235305  1944.66528976
0.46000002 25694.60506204  2132.13842910
0.46100002 25765.79824395  2142.68388352
0.46200002 25836.31174524  1794.33193575
0.46300002 25905.35075849  2163.61499789
0.46400002 25972.39890530  2536.20487331
0.46500002 26039.03214316  2184.15411969
0.46600002 26102.92989322  2194.21239082
0.46700002 26165.20850752  2020.47749671
0.46800002 26226.59089180  2214.04890802
0.46900002 26285.29778848  2779.67037288
0.47000002 26342.42007847  2233.31048010
0.47100002 26397.77791086  1868.96276467
0.47200002 26451.30055320  2064.39184952
0.47300002 26502.74404763  3203.38682487
0.47400002 26551.43398470  3405.22156994
0.47500002 26598.50939089  2658.78712473
0.47600002 26644.04040128  2287.65741728
0.47700002 26686.29038991  2104.74782281
