# SAXS profile: number of points = 501, q_min = 0, q_max = 0.5, delta_q = 0.001
#    q    intensity    error
0.00000000 1700912.83420644 331.67800267
0.00100000 1700830.33934865 714.34875949
0.00200000 1700582.80054420 994.84096982
0.00300000 1700170.43250410 1224.12275501
0.00400000 1699593.09591934 1402.16435741
0.00500000 1698851.32670017 1987.65613091
0.00600000 1697945.02432894 2139.41081775
0.00700000 1696874.72430000 2647.12467992
0.00800000 1695640.25598713 3433.67166334
0.00900000 1694242.90526410 3049.63735984
0.01000000 1692681.99593950 3072.21795529
0.01100000 1690958.85038781 3652.47127586
0.01200000 1689073.33266755 3293.69314311
0.01300000 1687026.68040503 4605.58304063
0.01400000 1684818.81246735 4169.92674571
0.01500000 1682451.21083469 4441.67139439
0.01600000 1679923.31510274 4283.80464501
0.01700000 1677237.36057581 6339.95750738
0.01800000 1674393.26999401 5726.42524105
0.01900000 1671391.76190913 5014.17551198
0.02000000 1668233.93499528 5254.93713295
0.02100000 1664921.85503041 7691.93931898
0.02200000 1661454.10694902 6878.42031527
0.02300000 1657833.86921259 7161.84264099
0.02400000 1654060.68302810 11164.91011953
0.02500000 1650137.17061963 9653.30288900
0.02600000 1646063.17235592 9999.83422944
0.02700000 1641840.94831556 10343.59844814
0.02800000 1637470.38523251 8547.59580290
0.02900000 1632954.00251310 8083.12268357
0.03000000 1628293.02840409 9085.87551613
0.03100000 1623487.85454679 8572.01626643
0.03200000 1618540.04541405 8812.95095319
0.03300000 1613453.36576747 10697.19630818
0.03400000 1608225.71009989 12664.77805139
0.03500000 1602860.67624036 18176.44090792
0.03600000 1597359.38471274 9751.87949434
0.03700000 1591723.67227499 13609.23802734
0.03800000 1585954.92011696 12061.18772568
0.03900000 1580055.32890993 17064.59834249
0.04000000 1574024.63542978 11616.30234776
0.04100000 1567867.10292368 11853.07584769
0.04200000 1561583.23969307 16115.53978128
0.04300000 1555174.33842370 12316.98133204
0.04400000 1548643.58482011 13589.34808791
0.04500000 1541992.42276688 13831.67267491
0.04600000 1535220.97121512 11905.63918523
0.04700000 1528333.55502710 16506.00316195
0.04800000 1521330.23981199 16772.66667433
0.04900000 1514215.18119050 13627.93726506
0.05000000 1506987.93849281 11528.45826631
0.05100000 1499652.92137490 16376.21066428
0.05200000 1492208.25371708 15421.97302085
0.05300000 1484660.55263386 12025.75103695
0.05400000 1477009.31718443 14622.39292202
0.05500000 1469257.25304002 13575.93765140
0.05600000 1461405.45609798 13744.51895598
0.05700000 1453459.21566808 16438.62449654
0.05800000 1445416.90975991 16629.52232326
0.05900000 1437281.82069207 14229.09068943
0.06000000 1429057.40765170 15691.05106908
0.06100000 1420745.14023991 17176.80954820
0.06200000 1412347.00504256 14681.34780368
0.06300000 1403866.26527319 16172.54013210
0.06400000 1395301.92414957 17685.45271569
0.06500000 1386660.10565607 15100.72925697
0.06600000 1377941.28266429 15233.14159259
0.06700000 1369147.63705521 15361.83720668
0.06800000 1360281.95204145 25342.05395277
0.06900000 1351346.90794436 14189.14319774
0.07000000 1342343.23619721 14295.95613496
0.07100000 1333274.49678777 14399.36523974
0.07200000 1324142.29244015 14499.35878147
0.07300000 1314950.13081390 21893.92070390
0.07400000 1305699.71591393 14689.12249242
0.07500000 1296392.91358680 16256.76789837
0.07600000 1287030.90668361 19324.76996981
0.07700000 1277619.27941378 17937.77552405
0.07800000 1268157.71276711 18033.20352124
0.07900000 1258648.32596449 15103.78062000
0.08000000 1249096.04847577 24282.42832148
0.08100000 1239501.06183512 16770.45015347
0.08200000 1229865.38297699 16843.00721023
0.08300000 1220192.23185885 15374.42284297
0.08400000 1210483.88401182 16977.03727015
0.08500000 1200741.85402874 17038.52770854
0.08600000 1190969.05221072 18650.57623329
0.08700000 1181168.81814663 17150.57204484
0.08800000 1171340.37093428 18764.87362364
0.08900000 1161489.45854119 17248.11926948
0.09000000 1151615.76524716 22007.37830768
0.09100000 1141722.39002404 18906.92366707
0.09200000 1131810.97763100 18946.51665578
0.09300000 1121886.54776637 18982.32128023
0.09400000 1111945.99382754 17429.75427240
0.09500000 1101995.21245065 19042.47816619
0.09600000 1092035.10748350 19066.93387296
0.09700000 1082070.37980643 19087.72239715
0.09800000 1072100.59246601 22288.97236534
0.09900000 1062128.56665045 17525.12217381
0.10000000 1052155.22468196 28692.27432639
0.10100000 1042183.09095650 23918.10306236
0.10200000 1032214.89845232 19137.26511745
0.10300000 1022252.00239377 17541.84518626
0.10400000 1012297.72563406 19132.42791457
0.10500000 1002354.17177555 20718.66170540
0.10600001 992418.73010678 17521.15350447
0.10700001 982499.80561530 20691.44687995
0.10800001 972594.62538781 17492.11516081
0.10900001 962707.76128878 15884.67880889
0.11000001 952839.21172738 17451.25098421
0.11100001 942992.13480342 23763.40291567
0.11200001 933167.07173866 20562.33739378
0.11300001 923366.53212572 22105.39581983
0.11400001 913592.56983067 18911.36708593
0.11500001 903847.23932608 17299.63697531
0.11600001 894130.65330187 18830.39244529
0.11700001 884446.70216267 18785.64883864
0.11800001 874793.63913243 21861.09407154
0.11900001 865174.98171761 17130.46544488
0.12000001 855591.77259232 17081.89054445
0.12100001 846048.78530232 26320.57895067
0.12200001 836542.99621011 15434.21900720
0.12300001 827079.47345946 18460.41471737
0.12400001 817656.16840789 21463.47543201
0.12500001 808276.03830427 22914.62676567
0.12600001 798942.46511256 18263.82561313
0.12700001 789654.21354018 21225.90626026
0.12800001 780413.12637721 21141.39258994
0.12900001 771221.23514182 16542.69627348
0.13000001 762079.68192653 19467.32639240
0.13100001 752988.15566086 16400.08280335
0.13200001 743950.24033197 16325.98879370
0.13300001 734965.69584595 19204.65453782
0.13400001 726034.88675741 17642.64857998
0.13500001 717161.17512181 16093.09752849
0.13600001 708344.01230710 16012.11715319
0.13700001 699584.96196034 14481.40939542
0.13800001 690882.97573052 20166.87501256
0.13900001 682242.97898970 15759.81355787
0.14000001 673662.47946004 15672.75832377
0.14100001 665144.77564491 15584.34282836
0.14200001 656688.80875904 18311.76829593
0.14300001 648297.48675878 19604.51692428
0.14400001 639967.18895117 16703.14441951
0.14500001 631704.80266167 17984.63658015
0.14600001 623506.95474636 19247.66060102
0.14700001 615376.90843636 16393.64161414
0.14800001 607311.75252343 13573.41830927
0.14900001 599315.07003621 16181.50765443
0.15000001 591386.08677445 17413.36414669
0.15100001 583526.45644808 14634.84421826
0.15200001 575736.97589562 14534.48064232
0.15300001 568017.51529543 18369.68731150
0.15400001 560366.10552759 14331.36382518
0.15500001 552787.34052210 14228.74681654
0.15600001 545278.06869360 17977.81877329
0.15700001 537843.39978230 15296.26701174
0.15800001 530477.16590453 16447.44530517
0.15900001 523185.62163277 13812.10106304
0.16000001 515964.18360987 16198.69630905
0.16100001 508817.90489919 19782.84107631
0.16200001 501743.99801402 14721.16959666
0.16300001 494743.03042266 17038.95077213
0.16400001 487816.16794720 15695.48594468
0.16500001 480961.93241847 13173.54795088
0.16600001 474182.37805342 14253.92295726
0.16700001 467475.01885387 14136.44523759
0.16800001 460842.03072845 19859.98825196
0.16900001 454284.44246025 15059.52997864
0.17000001 447799.18534922 13783.25957589
0.17100001 441388.39478110 11387.82112310
0.17200001 435050.82691595 14676.44033907
0.17300001 428787.67711007 13429.63068129
0.17400001 422598.62263620 15530.50011532
0.17500001 416482.20875273 15393.18316248
0.17600001 410438.13267726 11986.84623097
0.17700001 404470.32684906 11879.29406062
0.17800001 398573.61913023 11771.87239702
0.17900001 392749.33990783 12725.07921406
0.18000001 386999.74498589 14709.86100173
0.18100001 381322.66778417 12492.13118669
0.18200001 375715.32668547 17532.75654799
0.18300001 370181.25906704 16347.20517263
0.18400001 364718.22200287 12145.11736644
0.18500001 359327.27674049 12030.27779361
0.18600001 354007.43649596 10922.89996912
0.18700001 348757.09715597 11801.94072534
0.18800001 343575.64708009 10714.40706041
0.18900001 338467.77629473 9646.33208016
0.19000001 333425.25239624 9552.63393250
0.19100001 328454.26244444 11351.37984643
0.19200001 323550.02299288 11240.12832988
0.19300001 318716.05622328 12057.02897665
0.19400001 313947.75388135 12856.16112894
0.19500001 309247.24463531 10910.24330630
0.19600001 304612.14858653 10801.54729932
0.19700001 300045.11620276 10693.60844682
0.19800001 295542.44069939 11468.52495333
0.19900001 291105.07979185 8733.15280648
0.20000001 286730.82284693 10373.92166089
0.20100001 282422.08162399 13691.82316424
0.20200001 278175.15099426 8470.43374812
0.20300001 273991.83189007 9222.56549732
0.20400001 269870.50572258 9128.37028753
0.20500001 265810.34822608 18069.78832651
0.20600001 261811.00225780 12193.84800654
0.20700001 257871.96712264 9654.72690544
0.20800001 253992.14103118 10351.45019704
0.20900001 250173.92903022 8668.52705067
0.21000001 246410.78485819 8578.79188038
0.21100001 242707.24117215 13892.56314144
0.21200001 239059.48605104 9165.54112849
0.21300001 235468.27923799 9070.23854505
0.21400001 231933.11704530 11219.76506750
0.21500001 228453.90745121 8882.28834164
0.21600001 225027.81515771 8789.58687562
0.21700001 221656.01686572 7248.15209420
0.21800001 218337.29476219 10758.57070808
0.21900001 215069.89177492 9226.49879339
0.22000001 211854.14894507 9129.85498047
0.22100001 208690.77518433 9034.22408490
0.22200001 205577.26221942 8251.87169567
0.22300001 202512.90574618 8165.32074579
0.22400001 199496.73697112 8079.61822939
0.22500001 196531.34164067 7328.65407633
0.22600001 193611.13565159 7251.70542875
0.22700001 190739.16522071 8480.26368674
0.22800001 187912.35084589 8391.22642384
0.22900001 185131.07829602 7025.72475359
0.23000001 182394.94614105 6319.98518267
0.23100001 179704.17632468 9380.55844778
0.23200001 177055.07037022 8663.30500293
0.23300001 174449.90662462 6735.51121333
0.23400001 171885.58422529 7876.65726965
0.23500001 169362.95465298 6594.99376611
0.23600001 166881.65306170 7119.17165633
0.23700001 164440.11532445 7631.66611317
0.23800001 162037.83391117 6970.86794457
0.23900001 159674.57645911 6897.94202930
0.24000001 157348.99279012 9101.06617346
0.24100001 155061.99141901 5628.75055476
0.24200001 152811.81778840 6683.98922623
0.24300001 150597.40713696 7165.42497052
0.24400001 148418.37514447 6545.25065348
0.24500001 146274.07580902 7016.76774848
0.24600001 144164.26473616 6409.54351337
0.24700001 142089.20073431 7928.57777604
0.24800001 140046.82705010 7323.04893288
0.24900001 138035.59049547 7246.86884384
0.25000001 136057.79357304 5122.57617037
0.25100001 134110.64692329 7604.07404029
0.25200001 132196.27223094 6521.90339906
0.25300001 130310.29916107 6454.26942280
0.25400001 128455.14669963 7861.45534995
0.25500001 126627.56509441 5834.99847562
0.25600001 124830.08331634 5774.63992743
0.25700001 123059.96161340 5238.66281374
0.25800001 121317.05407299 5655.80132848
0.25900001 119602.49312141 6063.84668816
0.26000001 117913.31363794 6001.19838155
0.26100001 116250.16242626 5025.49475947
0.26200001 114613.36968276 5877.94694231
0.26300001 113000.46239094 4922.30037466
0.26400001 111412.91859878 7085.86195817
0.26500001 109849.50557405 4821.29502778
0.26600001 108309.36396699 4771.56925535
0.26700001 106792.66810261 6010.29164522
0.26800001 105299.21083334 5948.35270146
0.26900001 103826.98913391 6307.48988837
0.27000001 102377.35286814 4577.80355013
0.27100001 100949.08896988 4530.59532737
0.27200001 99542.49955463  4076.26554967
0.27300001 98156.48533033  5244.50125939
0.27400001 96789.08826584  6388.08012786
0.27500001 95444.02270288  5136.79754497
0.27600001 94116.21094112  5083.68737457
0.27700001 92809.49370946  5418.21849918
0.27800001 91520.39727319  3830.12880715
0.27900001 90250.21742833  4927.66210480
0.28000001 88997.79841327  4126.38311873
0.28100001 87763.42237074  4083.63223618
0.28200001 86547.00594521  3673.92057626
0.28300001 85347.55926015  5453.70929485
0.28400001 84164.31415228  5397.03690046
0.28500001 82998.50603659  3916.69968525
0.28600001 81848.60635567  3523.58267039
0.28700001 80715.33361803  4184.28309281
0.28800001 79596.15877762  4140.59237560
0.28900001 78494.58958617  3755.96628948
0.29000001 77407.02241655  5406.10670147
0.29100001 76335.09223034  4012.17263754
0.29200001 75277.61373265  3970.14153619
0.29300001 74234.93300704  5238.01712092
0.29400001 73205.78453125  4535.09856639
0.29500001 72191.87844481  3205.31955468
0.29600001 71190.76082612  3171.54854494
0.29700001 70203.53900238  4079.52784455
0.29800001 69230.30036229  3415.47703006
0.29900001 68270.52287262  3686.60840964
0.30000001 67322.65673266  4863.38895260
0.30100001 66389.15545152  5112.62910335
0.30200001 65467.00677354  3273.02315859
0.30300001 64558.54388937  4121.41763701
0.30400001 63662.04627918  2912.53875516
0.30500001 62778.46050689  4034.14406316
0.30600001 61905.51338322  3135.82392889
0.30700001 61045.54155983  4512.48664574
0.30800001 60197.16943217  3348.16672233
0.30900001 59360.72666472  3588.35609677
0.31000001 58536.04225468  3822.98910065
0.31100001 57721.89900060  2971.52350124
0.31200001 56920.07719468  3474.11707606
0.31300001 56128.62179728  2643.65821182
0.31400001 55349.70452445  3922.91049391
0.31500001 54580.16777330  2587.10007495
0.31600002 53823.16270544  2815.22065860
0.31700002 53076.17698132  2784.90713807
0.31800002 52339.51971973  3255.77997832
0.31900002 51614.21462035  3220.72714481
0.32000002 50899.79836461  2695.90794803
0.32100002 50195.06980021  3151.74858199
0.32200002 49501.87330475  2398.36587518
0.32300002 48817.49692908  2609.78350940
0.32400002 48144.64472160  3051.16700371
0.32500002 47481.24358640  3482.74938198
0.32600002 46828.20623536  3215.69307445
0.32700002 46185.57483980  2499.56342869
0.32800002 45553.60191386  2697.68443308
0.32900002 44929.81428529  2224.02591244
0.33000002 44317.12605349  2640.41449530
0.33100002 43713.28473040  2612.30601919
0.33200002 43120.72511681  2153.88032158
0.33300002 42537.16119335  3409.77900273
0.33400002 41963.69860690  2319.54355034
0.33500002 41399.78930007  2086.54947953
0.33600002 40844.98538409  2271.18551984
0.33700002 40299.64941590  2043.19232215
0.33800002 39764.76600421  3033.05767061
0.33900002 39238.50366597  2601.51291626
0.34000002 38721.85523705  2178.68528809
0.34100002 38214.73071873  1960.41577871
0.34200002 37717.44902812  2134.61912884
0.34300002 37228.76076208  3457.80746334
0.34400002 36750.08946597  1901.81721993
0.34500002 36280.30404141  2259.53744271
0.34600002 35820.41433963  2237.34318561
0.34700002 35368.25980021  2215.46789881
0.34800002 34926.34142389  2011.23346615
0.34900002 34492.87771088  2535.22663182
0.35000002 34068.88449362  2331.84490961
0.35100002 33654.44679967  2310.04133774
0.35200002 33247.47861772  2640.68111428
0.35300002 32850.73975777  2267.68667288
0.35400002 32461.97980801  1901.46055731
0.35500002 32082.62551673  2227.17596886
0.35600002 31711.74251661  1698.16389220
0.35700002 31349.31669354  2188.49590203
0.35800002 30996.16944381  1669.14380361
0.35900002 30651.97209462  1986.24788581
0.36000002 30316.09846784  2462.42521469
0.36100002 29988.16769257  2605.37213254
0.36200002 29670.35426695  1615.55086636
0.36300002 29359.38525915  3366.34727327
0.36400002 29057.43295814  2227.25234174
0.36500002 28763.21128029  1894.92044890
0.36600002 28477.95910160  1881.25406736
0.36700002 28200.44358087  2179.33038316
0.36800002 27932.07640170  1546.04050207
0.36900002 27671.35495788  1996.48835478
0.37000002 27418.18086287  1525.82183730
0.37100002 27172.84777671  2122.74296887
0.37200002 26936.42282743  1657.80222144
0.37300002 26707.32173391  2247.42123037
0.37400002 26485.95060312  2383.73566720
0.37500002 26272.43074168  2519.00077884
0.37600002 26066.76837173  2063.70614975
0.37700002 25868.59318215  1760.09916349
0.37800002 25677.61202278  2043.68123771
0.37900002 25495.17769199  1598.54771702
0.38000002 25319.21846034  2170.49010533
0.38100002 25149.88750547  1729.30634680
0.38200002 24988.97903875  2009.86367930
0.38300002 24834.52725184  1573.51572122
0.38400002 24687.45043983  2423.69056175
0.38500002 24546.63218236  1705.50008483
0.38600002 24413.85890521  1700.66949191
0.38700002 24286.85224403  2120.24230135
0.38800002 24166.46878913  1692.13622478
0.38900002 24052.92252360  1688.51524115
0.39000002 23946.38849911  1544.90132721
0.39100002 23845.41392300  1542.32144561
0.39200002 23751.65608875  1960.22426987
0.39300002 23663.17503506  1538.34308191
0.39400002 23582.27382176  1536.97476915
0.39500002 23505.83906214  1954.74566902
0.39600002 23435.84409567  1535.16504022
0.39700002 23371.05965264  1395.25232737
0.39800002 23313.16988786  1813.88126906
0.39900002 23259.81294414  2093.38326415
0.40000002 23212.32508795  1396.22142019
0.40100002 23169.84494726  2514.85508973
0.40200002 23133.17456185  1678.08056222
0.40300002 23101.44018337  1819.93154387
0.40400002 23074.75274324  2102.68694335
0.40500002 23052.65840619  1825.07905249
0.40600002 23036.16590304  1687.62959402
0.40700002 23023.89685258  1409.06255414
0.40800002 23015.95742114  1553.23196016
0.40900002 23012.46072033  2405.95288231
0.41000002 23013.93883821  1560.69033626
0.41100002 23019.33465595  2133.89242372
0.41200002 23027.89788282  1711.89400972
0.41300002 23042.06968816  2289.46015270
0.41400002 23059.18165745  1435.43412619
0.41500002 23079.99518473  3600.47941942
0.41600002 23103.63301589  2023.18523907
0.41700002 23132.22970469  1885.50813257
0.41800002 23164.66536650  1892.66907345
0.41900002 23198.40101399  1607.64926645
0.42000002 23236.06246497  1760.82889703
0.42100002 23277.56900106  1620.81720635
0.42200002 23321.33160611  1775.68627263
0.42300002 23367.76779858  1932.04713314
0.42400002 23416.69242376  1492.81421275
0.42500002 23468.84093163  1499.65900659
0.42600002 23522.12233285  1807.91040817
0.42700002 23578.82485013  1816.51275253
0.42800002 23637.06820349  1825.25449317
0.42900002 23698.31162581  1987.10352399
0.43000002 23761.37290174  2150.64196325
0.43100002 23824.64843685  1698.22102105
0.43200002 23890.99891677  2017.23658913
0.43300002 23958.28708700  2027.58993226
0.43400002 24027.52753201  2665.25361779
0.43500002 24097.64934500  1575.98634185
0.43600002 24169.61406986  1584.31827736
0.43700002 24242.09431234  1751.97623898
0.43800002 24315.13366623  1761.26679058
0.43900002 24390.09800613  2092.67050810
0.44000002 24465.17078961  2913.06802397
0.44100002 24541.30788437  1789.79766883
0.44200002 24617.87493591  2780.95837393
0.44300002 24694.88561640  1644.67945999
0.44400002 24772.22229812  2149.60969179
0.44500002 24849.35837843  1994.90658516
0.44600002 24926.41898453  2506.97470818
0.44700002 25004.79624768  2352.45134247
0.44800002 25081.71696228  2027.10446096
0.44900002 25159.33683056  1868.08084820
0.45000002 25236.89816346  1707.27624167
0.45100002 25313.17885667  2231.10369016
0.45200002 25389.49598780  1897.73796755
0.45300002 25464.73977218  1907.56374674
0.45400002 25539.78381123  2091.70839327
0.45500002 25614.39125421  2277.63177827
0.45600002 25687.54732975  2289.14588878
0.45700002 25760.31098044  2477.62682752
0.45800002 25831.60278368  2667.75890392
0.45900002 25901.74770514  2144.66481163
0.46000002 25971.27053797  1975.50478710
0.46100002 26038.73559981  1804.48446259
0.46200002 26105.52058359  1813.02849046
0.46300002 26170.90599328  3096.54174389
0.46400002 26234.23120349  2195.80525580
0.46500002 26297.12286495  2205.80277046
0.46600002 26357.33419418  1846.33134781
0.46700002 26415.85542458  2039.83245257
0.46800002 26473.53402805  2048.65452786
0.46900002 26528.40884090  2244.30349431
0.47000002 26581.86891572  2629.21277907
0.47100002 26633.49356310  2639.91200710
0.47200002 26683.24738782  2461.12943947
0.47300002 26730.96582279  2090.62893609
0.47400002 26775.90058842  2289.33960882
0.47500002 26819.16997922  2489.35547546
0.47600002 26860.90686522  2306.27757276
0.47700002 26899.38354116  2314.42306958
