# SAXS profile: number of points = 501, q_min = 0, q_max = 0.5, delta_q = 0.001
#    q    intensity    error
0.00000000 1682732.95097188 378.61491397
0.00100000 1682650.90538276 504.79528360
0.00200000 1682404.70677648 1362.74785564
0.00300000 1681994.57610707 1211.03613794
0.00400000 1681420.38230460 1639.38493504
0.00500000 1680682.64138324 1663.87588083
0.00600000 1679781.25914125 2116.52447269
0.00700000 1678716.77341417 2417.35225418
0.00800000 1677489.02534576 2264.61027983
0.00900000 1676099.27624383 3771.22353276
0.01000000 1674546.85975323 3591.90316927
0.01100000 1672833.09923812 3011.09970973
0.01200000 1670957.85539167 4235.87834913
0.01300000 1668922.35572478 3504.73710160
0.01400000 1666726.53043473 4500.16183167
0.01500000 1664371.86688109 4793.39119006
0.01600000 1661857.81965939 5932.83268140
0.01700000 1659186.54194814 5823.74502348
0.01800000 1656358.01253177 7080.93082220
0.01900000 1653372.94700934 5952.14287781
0.02000000 1650232.44110810 7797.34863695
0.02100000 1646938.53201959 6521.87688249
0.02200000 1643489.84608953 6237.04424927
0.02300000 1639889.54549911 6493.96289577
0.02400000 1636137.13864525 6135.51454968
0.02500000 1632235.30854012 8912.00519165
0.02600000 1628183.79305877 6594.14466349
0.02700000 1623984.97321561 6820.73719990
0.02800000 1619638.60586460 8454.51391033
0.02900000 1615147.27295856 9448.61198063
0.03000000 1610512.16557299 7488.88191414
0.03100000 1605733.87319391 11561.28441897
0.03200000 1600813.53668366 9508.83284586
0.03300000 1595755.25076024 12207.52823109
0.03400000 1590556.91527634 8350.42419049
0.03500000 1585221.94172105 10272.23865670
0.03600000 1579751.55951702 8767.62156050
0.03700000 1574147.56297602 10767.16982871
0.03800000 1568411.32001305 11010.24797604
0.03900000 1562545.10735765 12187.85240181
0.04000000 1556548.60161319 10530.05177787
0.04100000 1550425.95164456 14651.52592238
0.04200000 1544177.83931846 11951.93703081
0.04300000 1537805.37639593 11164.46755087
0.04400000 1531312.03063241 14470.89936153
0.04500000 1524699.03137736 12624.50856640
0.04600000 1517966.44211753 10701.66391442
0.04700000 1511118.60198775 15232.07621645
0.04800000 1504155.75867512 21005.53614725
0.04900000 1497081.80778723 15719.35971346
0.05000000 1489896.43725425 13677.24993089
0.05100000 1482604.12050089 12720.74394648
0.05200000 1475202.87939996 11727.86343776
0.05300000 1467699.28872876 19021.38366866
0.05400000 1460092.97173964 14454.92109431
0.05500000 1452386.50880518 13420.05196740
0.05600000 1444581.05861397 13586.28549026
0.05700000 1436681.76896796 14998.95836815
0.05800000 1428687.35060603 13908.27200756
0.05900000 1420600.66258184 16621.02852851
0.06000000 1412425.34739454 20677.90805190
0.06100000 1404162.89030293 16976.33013709
0.06200000 1395815.21779770 14509.49986723
0.06300000 1387385.77337264 14650.79445182
0.06400000 1378873.20825970 16132.81729112
0.06500000 1370283.90883750 17635.55473169
0.06600000 1361618.31535306 17789.54412243
0.06700000 1352878.36338329 13799.35995231
0.06800000 1344067.10372303 19475.53324458
0.06900000 1335187.19424324 22431.14591349
0.07000000 1326239.27359311 22599.11828031
0.07100000 1317226.80660803 14226.05017768
0.07200000 1308151.62572003 15756.68706995
0.07300000 1299016.99982942 18744.81618584
0.07400000 1289824.63805165 17412.63342973
0.07500000 1280576.61820480 17518.28895817
0.07600000 1271273.91894480 20556.50023304
0.07700000 1261922.14186284 16240.93872729
0.07800000 1252520.98563421 19295.08668856
0.07900000 1243072.72809399 17900.24812414
0.08000000 1233581.90519113 20983.22919165
0.08100000 1224048.99408009 19572.54433365
0.08200000 1214475.93226190 15120.22606618
0.08300000 1204865.95267516 18217.57405944
0.08400000 1195221.28517919 19810.79373174
0.08500000 1185543.54133646 22940.26860179
0.08600000 1175835.50924245 21482.51576250
0.08700000 1166100.33444252 21549.53519241
0.08800000 1156337.33610925 15437.10416204
0.08900000 1146552.77709596 15478.46321781
0.09000000 1136745.65424434 17068.23680027
0.09100000 1126919.41592031 21772.08413846
0.09200000 1117075.50237941 20258.16518752
0.09300000 1107219.22087687 15611.79174800
0.09400000 1097346.99778847 15637.19545339
0.09500000 1087464.97886183 23489.24464747
0.09600000 1077574.13189714 15678.70435612
0.09700000 1067679.02811560 17264.37069628
0.09800000 1057779.33444745 20420.43101163
0.09900000 1047877.71022160 20433.61631016
0.10000000 1037975.22524607 18870.39048239
0.10100000 1028074.26967144 22021.35189207
0.10200000 1018177.86218096 18877.01845274
0.10300000 1008287.00527472 17302.20582442
0.10400000 998404.85298325 25159.80347882
0.10500000 988533.83934049 17289.45766352
0.10600001 978671.60865103 17278.44806375
0.10700001 968825.91453561 17264.47860945
0.10800001 958994.35620473 17247.51430804
0.10900001 949181.52347650 18793.79504938
0.11000001 939387.23103015 23461.19719929
0.11100001 929614.38575881 15617.52241592
0.11200001 919864.35912871 21828.38226974
0.11300001 910138.73104415 18676.04764031
0.11400001 900440.28540192 20192.37435088
0.11500001 890770.35947830 18599.28598171
0.11600001 881129.68587755 17010.20938690
0.11700001 871521.77224709 21596.31053336
0.11800001 861945.04656354 15385.71980580
0.11900001 852402.95838417 16877.57937097
0.12000001 842896.54673700 19888.14495709
0.12100001 833430.32928798 24402.84119112
0.12200001 824001.82305011 19763.68465695
0.12300001 814615.43195169 18182.21729781
0.12400001 805269.81434069 19628.45264940
0.12500001 795967.28719448 15043.78243685
0.12600001 786711.40557927 16485.53828077
0.12700001 777501.29090938 17913.63058676
0.12800001 768338.37339025 16354.08304837
0.12900001 759224.64845912 19246.34574556
0.13000001 750161.48837708 14740.67394141
0.13100001 741148.67573868 17609.69336563
0.13200001 732189.11880107 17528.60833040
0.13300001 723283.28568215 18899.39314585
0.13400001 714431.36798087 15913.95947205
0.13500001 705636.49529165 18713.48073744
0.13600001 696898.35191364 21481.89271063
0.13700001 688218.30340923 18519.95541802
0.13800001 679595.57462745 21254.35259874
0.13900001 671034.43945964 14091.72389319
0.14000001 662533.26375727 19617.61086503
0.14100001 654094.64476558 16718.65990871
0.14200001 645718.06421823 20775.97969613
0.14300001 637405.83864375 15144.76344052
0.14400001 629154.88007168 16420.94314444
0.14500001 620971.67578306 20398.92051173
0.14600001 612853.11568953 17567.43538997
0.14700001 604802.36296365 14769.27440034
0.14800001 596816.28084630 14672.72895685
0.14900001 588898.74640825 14575.24466128
0.15000001 581049.00641703 14476.83667794
0.15100001 573268.32272509 15684.62204984
0.15200001 565558.03317929 16873.42471611
0.15300001 557917.31509960 15465.46870436
0.15400001 550345.03645483 15354.62724169
0.15500001 542845.13947177 16513.34992205
0.15600001 535414.53897616 15130.81558556
0.15700001 528058.45887675 17520.98049247
0.15800001 520770.75217649 17388.53623589
0.15900001 513557.67643639 17255.53874273
0.16000001 506414.63991083 17121.87978358
0.16100001 499346.55142233 16987.77048128
0.16200001 492350.86690859 12037.97926418
0.16300001 485427.86221107 14329.83116895
0.16400001 478578.73744042 13029.30674192
0.16500001 471802.12408952 17621.81016669
0.16600001 465099.96504451 13980.90560932
0.16700001 458470.08755731 13864.13610232
0.16800001 451914.31651288 13747.23415742
0.16900001 445433.60275151 11358.55740649
0.17000001 439024.86858199 12387.08725196
0.17100001 432690.77139884 15628.79140094
0.17200001 426429.80911261 15492.19569665
0.17300001 420242.73596186 17549.33748253
0.17400001 414129.73260714 14132.17779263
0.17500001 408089.14950835 14005.62027258
0.17600001 402120.67327554 17082.08700752
0.17700001 396228.14697643 10579.29202394
0.17800001 390406.57149775 16771.86710371
0.17900001 384657.27467582 15578.62036020
0.18000001 378982.01922168 10289.36230789
0.18100001 373379.36927025 11212.58298883
0.18200001 367846.20077368 10097.37868822
0.18300001 362385.89316943 13002.40646114
0.18400001 356996.58507215 10897.32127412
0.18500001 351678.84872733 10793.02437733
0.18600001 346431.90921025 12632.64016616
0.18700001 341254.52486600 15397.40488940
0.18800001 336145.61664626 13341.62015503
0.18900001 331109.80221322 10380.29278983
0.19000001 326139.21132868 13081.44438448
0.19100001 321239.78218463 10176.87678047
0.19200001 316406.88037696 10075.97758171
0.19300001 311643.73075874 10882.59959233
0.19400001 306946.03539242 12569.44074327
0.19500001 302315.85458694 10665.70385384
0.19600001 297750.68089760 14077.65285810
0.19700001 293253.21034497 9580.58283473
0.19800001 288819.85503711 13794.03692846
0.19900001 284451.42856956 8533.54326038
0.20000001 280145.71767933 12669.59068083
0.20100001 275905.24033713 12539.89376599
0.20200001 271726.44571152 9101.47772927
0.20300001 267610.44861804 9007.76812623
0.20400001 263556.41776096 8914.79625213
0.20500001 259563.05412445 8822.54862670
0.20600001 255630.07432993 8731.04560144
0.20700001 251757.19656242 14138.68482727
0.20800001 247943.14696939 8550.31982741
0.20900001 244190.09296702 8461.18712128
0.21000001 240491.96711291 7611.57111894
0.21100001 236852.91802601 8285.11546422
0.21200001 233269.27451051 9688.83977483
0.21300001 229741.85252395 11062.07072199
0.21400001 226269.89000175 8026.92472730
0.21500001 222853.92812076 9386.60789622
0.21600001 219490.31253828 7144.41001090
0.21700001 216180.64316664 9896.75031208
0.21800001 212923.61111581 10491.81143379
0.21900001 209717.79380469 10381.03128416
0.22000001 206562.79821035 10271.33562666
0.22100001 203460.04416412 7452.74177012
0.22200001 200406.52890777 6703.59870894
0.22300001 197401.80002254 8622.51103270
0.22400001 194445.01486545 8531.27543063
0.22500001 191538.35388840 9090.41070540
0.22600001 188676.62965524 8994.21536099
0.22700001 185862.60111589 6992.15138463
0.22800001 183093.46468615 8176.03905221
0.22900001 180369.10979966 7467.28149884
0.23000001 177689.70341973 7388.33821760
0.23100001 175055.11109373 7919.49360041
0.23200001 172461.87585280 8438.55998457
0.23300001 169912.03732663 8349.47790911
0.23400001 167402.80289033 7671.23380526
0.23500001 164934.56195569 8758.02565407
0.23600001 162507.26021197 6932.56004853
0.23700001 160119.48920095 8574.39905226
0.23800001 157770.31661815 6787.27934194
0.23900001 155459.83563213 7275.52065171
0.24000001 153186.48836715 7198.99936133
0.24100001 150951.33038842 6575.44026275
0.24200001 148752.64390069 6506.44095198
0.24300001 146588.99169457 6974.70455475
0.24400001 144460.57446273 9025.17481648
0.24500001 142366.33078298 5778.64963984
0.24600001 140306.20446556 6238.01414563
0.24700001 138280.14628924 6687.22819089
0.24800001 136286.53699533 7126.42335661
0.24900001 134323.56155048 6044.56055572
0.25000001 132393.66915079 7476.93281901
0.25100001 130493.88797346 5919.20303851
0.25200001 128626.23636741 8298.32203183
0.25300001 126786.89552098 5313.63904267
0.25400001 124977.70950027 7170.59642183
0.25500001 123195.78356378 6149.93380647
0.25600001 121443.40460014 5149.80781572
0.25700001 119717.81112499 5096.38746072
0.25800001 118019.26501351 6419.06812780
0.25900001 116348.45988021 4537.59015002
0.26000001 114702.62301905 7184.97264587
0.26100001 113082.25277909 5777.37256785
0.26200001 111488.04514535 5277.84430691
0.26300001 109917.12843386 7399.62143630
0.26400001 108371.10497739 5169.30195202
0.26500001 106848.89147584 4263.27097162
0.26600001 105349.33755411 6328.86175304
0.26700001 103873.04943907 5010.83614205
0.26800001 102419.33954305 5372.40670996
0.26900001 100986.52860833 4498.95006240
0.27000001 99575.86106654  4047.75894390
0.27100001 98186.04084403  4807.18878721
0.27200001 96817.54324162  3964.67858337
0.27300001 95469.06474363  5100.91237065
0.27400001 94139.03394629  3883.23533406
0.27500001 92830.61393607  6917.73767790
0.27600001 91539.11489882  4564.14048486
0.27700001 90268.32384841  5269.86499568
0.27800001 89014.78593556  5587.90345156
0.27900001 87779.71979111  3686.74840571
0.28000001 86562.00503681  4378.30642198
0.28100001 85361.94040768  5416.21537521
0.28200001 84179.33313277  6074.80186304
0.28300001 83013.36044395  3536.36932229
0.28400001 81863.11461383  3849.61314692
0.28500001 80729.84487451  3809.64155994
0.28600001 79612.15411701  5140.95509544
0.28700001 78510.64756687  4069.99216251
0.28800001 77422.96400126  4363.17134281
0.28900001 76352.25089813  4317.71999266
0.29000001 75295.29776125  5258.62384456
0.29100001 74253.62240913  3577.53969701
0.29200001 73225.95553315  4183.76516743
0.29300001 72212.67226972  3821.49479741
0.29400001 71212.52595179  3466.26986478
0.29500001 70227.27251799  4053.51836162
0.29600001 69254.41305154  3702.34109699
0.29700001 68295.13445685  3358.07192021
0.29800001 67349.35377761  3624.74239190
0.29900001 66416.76419067  3287.62998307
0.30000001 65495.66668770  3252.84244003
0.30100001 64588.43330576  3511.02740071
0.30200001 63692.41929344  3184.30265332
0.30300001 62809.49788065  2864.11323895
0.30400001 61938.32925940  3400.41443732
0.30500001 61079.62765775  2803.55504222
0.30600001 60231.32661905  4160.47908318
0.30700001 59395.64247767  3018.48669362
0.30800001 58571.04612762  4072.15217481
0.30900001 57758.12078144  2954.32801784
0.31000001 56956.54999147  2657.02318290
0.31100001 56165.34670391  3679.95369027
0.31200001 55385.99716343  3640.52176592
0.31300001 54616.76141357  3601.42941812
0.31400001 53859.69702680  2799.35788551
0.31500001 53111.77384693  3020.99783945
0.31600002 52375.93152984  3486.66592703
0.31700002 51649.73361938  2463.69241030
0.31800002 50933.64672608  2437.17511124
0.31900002 50228.63043661  2652.07181263
0.32000002 49533.92370507  3339.08195506
0.32100002 48848.87471220  2595.34083635
0.32200002 48175.02718815  2800.89621334
0.32300002 47509.59425184  2308.96638997
0.32400002 46855.36444240  3197.87877462
0.32500002 46210.43526107  2485.65943039
0.32600002 45575.56502872  3353.22235577
0.32700002 44950.67342885  3538.51717988
0.32800002 44336.34671356  2406.79869532
0.32900002 43729.69182800  2814.00580239
0.33000002 43134.02329290  2784.08566528
0.33100002 42546.81821569  2966.36430647
0.33200002 41970.73833160  2096.43847894
0.33300002 41403.28104168  2281.73492626
0.33400002 40845.81576847  2257.75257352
0.33500002 40297.44397534  2640.28865430
0.33600002 39757.94265875  2612.69332555
0.33700002 39227.79403167  2784.38895223
0.33800002 38707.72617444  1968.28796918
0.33900002 38196.02593954  2532.39663972
0.34000002 37693.72517665  1928.03413409
0.34100002 37200.63121623  2862.58870766
0.34200002 36717.29283896  1889.10480603
0.34300002 36242.22809012  2992.15849283
0.34400002 35776.99821420  2777.18961790
0.34500002 35320.29351885  2016.43565249
0.34600002 34873.28198959  2722.73162029
0.34700002 34433.91915524  2336.68586454
0.34800002 34004.38871453  2136.15580022
0.34900002 33583.24501503  1939.43249147
0.35000002 33171.28499236  1921.11506132
0.35100002 32768.73739559  1730.18941643
0.35200002 32373.40108224  2057.00600219
0.35300002 31988.06876133  2208.13649118
0.35400002 31610.64279595  1851.59348947
0.35500002 31242.30716580  1835.17320984
0.35600002 30882.16590705  1984.48807518
0.35700002 30530.50523852  1803.43702986
0.35800002 30187.72342436  2113.29167842
0.35900002 29853.87180266  2418.16373055
0.36000002 29528.02002024  2078.62506778
0.36100002 29209.99090889  1586.10258148
0.36200002 28901.86528926  2360.55995931
0.36300002 28600.44010497  1717.74251407
0.36400002 28307.98582878  1859.83475705
0.36500002 28022.82066895  2615.36997692
0.36600002 27746.71752107  1527.45687189
0.36700002 27478.11109212  1516.79180413
0.36800002 27218.43536428  1657.19451565
0.36900002 26966.34485553  1646.29543141
0.37000002 26721.58627531  1784.46761599
0.37100002 26484.54902008  1625.62169586
0.37200002 26256.23587421  1615.94011343
0.37300002 26035.22651324  1752.69153190
0.37400002 25821.56398424  1597.70934721
0.37500002 25615.83417250  2022.62636207
0.37600002 25417.77959618  2012.32570596
0.37700002 25227.00130950  2002.51945881
0.37800002 25043.42083893  1708.46225057
0.37900002 24868.14168170  1559.23255731
0.38000002 24699.28828629  1411.56439243
0.38100002 24536.85451993  2108.94274589
0.38200002 24382.79165024  1821.02888067
0.38300002 24234.99656978  1814.71662912
0.38400002 24094.55473429  1948.04484255
0.38500002 23960.18782964  1526.02443516
0.38600002 23833.83208263  1521.90941974
0.38700002 23713.10673609  1656.12345291
0.38800002 23598.97550784  2340.90048640
0.38900002 23491.48144428  1511.67690256
0.39000002 23390.85936868  1783.43615706
0.39100002 23295.82721129  1643.75364590
0.39200002 23207.75600220  1641.71673737
0.39300002 23125.00956187  1913.36338180
0.39400002 23049.67165765  2048.53966563
0.39500002 22978.93276113  1637.93840481
0.39600002 22914.29907620  2183.27451942
0.39700002 22854.90341440  1500.88157833
0.39800002 22802.27195628  1774.13085361
0.39900002 22754.11111950  1365.24673185
0.40000002 22711.77626582  1639.33608854
0.40100002 22674.38010384  1914.17125906
0.40200002 22642.71160816  2053.12797235
0.40300002 22615.88133728  1918.73146356
0.40400002 22594.02451115  1509.84575949
0.40500002 22576.69057923  1649.90462570
0.40600002 22565.03620576  1653.11463076
0.40700002 22557.35278603  1518.56106151
0.40800002 22554.10294601  1522.06370943
0.40900002 22555.08210353  1664.56513811
0.41000002 22561.04822729  1529.97755803
0.41100002 22570.88130699  1534.36858395
0.41200002 22583.87988194  1538.97856748
0.41300002 22602.35931454  1684.32789593
0.41400002 22623.82167050  1549.16626229
0.41500002 22648.94590490  1554.62372058
0.41600002 22676.80612976  1560.27771969
0.41700002 22709.60587076  1566.28159112
0.41800002 22746.09502378  1715.51056798
0.41900002 22783.98367133  1866.00835110
0.42000002 22825.67477284  1729.72971625
0.42100002 22871.12539281  1882.06499776
0.42200002 22918.97249437  2035.89242315
0.42300002 22969.31404296  1606.93328659
0.42400002 23022.18115533  2054.72976548
0.42500002 23078.23662929  1769.63926859
0.42600002 23135.32985118  1629.99974190
0.42700002 23195.96111135  1638.09885131
0.42800002 23257.99424564  2095.31280088
0.42900002 23323.02056614  2106.06885692
0.43000002 23389.77267515  2570.65308768
0.43100002 23456.85055328  2584.00677940
0.43200002 23526.95797065  1680.88359187
0.43300002 23597.90230537  1843.46821545
0.43400002 23670.88416628  1544.52526504
0.43500002 23744.56355993  1863.47343649
0.43600002 23820.27337245  1561.41899356
0.43700002 23896.34160832  2825.98149252
0.43800002 23972.99199854  1578.62159791
0.43900002 24051.57923566  1587.40430478
0.44000002 24130.26964705  1596.21741280
0.44100002 24209.98996878  1605.12241100
0.44200002 24290.11404121  1936.89378544
0.44300002 24370.77531407  1623.09371284
0.44400002 24451.61504274  2448.21807218
0.44500002 24532.27744836  1805.33038298
0.44600002 24612.92998097  2145.38614346
0.44700002 24694.75213101  2157.33364840
0.44800002 24775.31305762  2669.78786161
0.44900002 24856.36191064  2181.14586103
0.45000002 24937.44728002  1855.72022729
0.45100002 25017.21163404  2374.63384084
0.45200002 25097.05692889  2216.94862888
0.45300002 25175.89417492  2057.37416948
0.45400002 25254.35951077  1895.97113013
0.45500002 25332.45094793  2425.83561774
0.45600002 25409.14340393  1741.79686289
0.45700002 25485.38348404  2276.09970683
0.45800002 25560.13368633  1935.79681648
0.45900002 25633.84914913  2122.48281014
0.46000002 25706.90488388  1955.39581267
0.46100002 25777.87281219  2858.25067288
0.46200002 25848.19496157  2692.73583774
0.46300002 25917.00607644  1803.82370841
0.46400002 25983.83671640  3081.03358467
0.46500002 26050.23790652  2185.09405916
0.46600002 26113.91967136  1829.28015968
0.46700002 26176.02477962  2021.31272928
0.46800002 26237.16026919  1845.78431242
0.46900002 26295.65709936  2595.38147872
0.47000002 26352.54617412  2606.53046562
0.47100002 26407.70318726  2991.46475884
0.47200002 26461.02932062  3003.85619085
0.47300002 26512.20905343  3016.02904487
0.47400002 26560.64013963  3027.91311943
0.47500002 26607.47111983  2469.70558640
0.47600002 26652.80370273  2288.40983438
0.47700002 26694.77265054  2679.62140567
