# SAXS profile: number of points = 501, q_min = 0, q_max = 0.5, delta_q = 0.001
#    q    intensity    error
0.00000000 1700912.83420644 408.21908021
0.00100000 1700830.33346454 765.37366824
0.00200000 1700582.77799948 1147.89341150
0.00300000 1700170.38011858 1530.15339662
0.00400000 1699592.99863633 1529.63375690
0.00500000 1698851.18039092 2752.13902117
0.00600000 1697944.80516752 2674.26317701
0.00700000 1696874.43681864 2647.12423145
0.00800000 1695639.88075724 3204.75950994
0.00900000 1694242.42567420 3557.90924601
0.01000000 1692681.38801664 4189.38661624
0.01100000 1690958.13754702 3348.09725812
0.01200000 1689072.47567265 3623.06061917
0.01300000 1687025.66020845 3897.02944696
0.01400000 1684817.65540133 4549.00787125
0.01500000 1682449.88024652 4845.45587087
0.01600000 1679921.79077203 5568.94098536
0.01700000 1677235.67420542 6339.95113290
0.01800000 1674391.34379776 4772.01554455
0.01900000 1671389.63674970 6518.41987745
0.02000000 1668231.58326400 6831.40864249
0.02100000 1664919.25613514 8241.35069152
0.02200000 1661451.25510162 6878.40850862
0.02300000 1657830.75731485 8952.28649699
0.02400000 1654057.29786841 7443.25817980
0.02500000 1650133.54929902 6435.52113618
0.02600000 1646059.23611763 10666.46433791
0.02700000 1641836.71274266 8274.85741122
0.02800000 1637465.78358450 9972.16707935
0.02900000 1632949.08235726 9552.75257040
0.03000000 1628287.73730336 12114.46132238
0.03100000 1623482.28461059 10909.80145458
0.03200000 1618534.08859251 12818.79057206
0.03300000 1613447.00153633 9051.43809589
0.03400000 1608219.02205251 10976.09533195
0.03500000 1602853.55741904 12117.57345365
0.03600000 1597351.91484075 13297.95530560
0.03700000 1591715.73036177 11794.61410745
0.03800000 1585946.56938748 10205.56664632
0.03900000 1580046.54454758 12324.36361821
0.04000000 1574015.47752624 10648.21519889
0.04100000 1567857.43627754 10865.25253719
0.04200000 1561573.13793899 10072.14720698
0.04300000 1555163.71340016 11290.48908337
0.04400000 1548632.48800388 16725.23164719
0.04500000 1541980.88104554 12767.60228830
0.04600000 1535208.89337357 12987.86784171
0.04700000 1528320.96977852 12104.30264359
0.04800000 1521317.11214783 15654.35381237
0.04900000 1514201.58573034 13627.81490591
0.05000000 1506973.78953823 12681.18502948
0.05100000 1499638.20592916 16376.04997161
0.05200000 1492193.03720754 11862.93519863
0.05300000 1484644.70562923 18038.43401431
0.05400000 1476992.88882599 15840.74947137
0.05500000 1469240.26985779 13575.78072679
0.05600000 1461387.96821688 16243.32802471
0.05700000 1453441.05836659 15173.92535764
0.05800000 1445398.24743444 15350.13010449
0.05900000 1437262.49625130 16815.97199154
0.06000000 1429037.48553790 14383.26296391
0.06100000 1420724.59480086 15855.28721892
0.06200000 1412325.83543394 17350.42369933
0.06300000 1403844.40997485 18867.66975223
0.06400000 1395279.41076802 14964.37238032
0.06500000 1386636.97614315 17846.01871776
0.06600000 1377917.55797159 15232.87931610
0.06700000 1369123.22131732 13965.05751099
0.06800000 1360256.80441479 15486.52444317
0.06900000 1351321.18859129 14188.87314452
0.07000000 1342316.75941364 14295.67415720
0.07100000 1333247.33421828 14399.07188398
0.07200000 1324114.42872310 17398.86440850
0.07300000 1314921.65857963 20433.88353177
0.07400000 1305670.43640308 20564.31033708
0.07500000 1296363.04607439 17734.24730155
0.07600000 1287000.25110275 17837.82431653
0.07700000 1277587.87168257 16442.55667952
0.07800000 1268125.64249695 22540.93435247
0.07900000 1258615.67293476 22655.08317543
0.08000000 1249062.46974578 16693.72069127
0.08100000 1239466.92934877 16769.98834091
0.08200000 1229830.44013271 21435.94557740
0.08300000 1220156.53057137 16911.37030740
0.08400000 1210447.37676501 18519.84573380
0.08500000 1200704.62459343 15489.09038439
0.08600000 1190931.14995954 17095.81746034
0.08700000 1181130.18705592 15590.91920125
0.08800000 1171300.93092734 21891.61542714
0.08900000 1161449.25447674 21951.39194066
0.09000000 1151574.82083974 17290.89674716
0.09100000 1141680.72217803 15755.19470625
0.09200000 1131768.65424645 20524.62550914
0.09300000 1121843.43919252 17399.79255953
0.09400000 1111902.06530177 17429.06569273
0.09500000 1101950.45973313 25388.93978560
0.09600000 1091989.70157986 17477.29599535
0.09700000 1082024.18299681 17496.33186161
0.09800000 1072053.64735737 15919.99741178
0.09900000 1062080.78153834 20710.57621386
0.10000000 1052106.74613108 22315.18513486
0.10100000 1042133.79468165 15944.64780853
0.10200000 1032164.93605361 20731.03371575
0.10300000 1022201.23486913 15946.34001409
0.10400000 1012246.12154694 22320.02803016
0.10500000 1002301.84896512 23904.90022253
0.10600001 992365.76380468 22298.45976191
0.10700001 982446.07617151 19098.75261952
0.10800001 972540.22541656 15901.03343389
0.10900001 962652.57166927 23825.65227018
0.11000001 952783.30608375 20622.99563090
0.11100001 942935.42004928 26930.23686430
0.11200001 933109.64690491 18979.45111154
0.11300001 923308.41173955 20525.14695931
0.11400001 913533.73556407 23637.68652069
0.11500001 903787.67682096 20443.67821234
0.11600001 894070.31735314 21967.30873184
0.11700001 884385.71751160 20349.71631831
0.11800001 874731.95551657 20298.15598377
0.11900001 865112.60021139 18686.43304473
0.12000001 855528.71529836 20186.20098833
0.12100001 845985.08388829 15481.52776446
0.12200001 836478.52828967 26236.15027582
0.12300001 827014.35145836 21535.45472661
0.12400001 817590.44538813 16862.80373066
0.12500001 808209.71104490 18330.19711023
0.12600001 798875.32713728 18262.29083894
0.12700001 789586.42464064 28804.11412832
0.12800001 780344.93833570 27179.41548318
0.12900001 771152.29198922 22556.20560381
0.13000001 762010.09995596 16470.84908690
0.13100001 752918.00140670 16398.55484363
0.13200001 743879.34127850 17808.47226970
0.13300001 734894.32996862 22157.06509310
0.13400001 725962.86072232 17640.89834724
0.13500001 717088.60836796 16091.46913046
0.13600001 708270.95588961 17465.96259577
0.13700001 699511.26032145 15927.87214857
0.13800001 690808.73191733 15843.69901365
0.13900001 682168.25828601 17190.64091949
0.14000001 673587.18581611 14246.36965188
0.14100001 665068.95787568 21248.95420629
0.14200001 656612.46481499 14084.33803457
0.14300001 648220.73489098 16801.88224088
0.14400001 639889.92945835 18092.88860887
0.14500001 631627.09869046 13832.63411384
0.14600001 623428.83120578 15121.26701423
0.14700001 615298.38530195 16391.54975774
0.14800001 607232.75700936 19000.31386323
0.14900001 599235.57450570 13482.80106251
0.15000001 591306.19769745 18750.32041368
0.15100001 583446.20103033 14632.83141229
0.15200001 575656.38237702 18495.84043854
0.15300001 567936.48792430 18367.06688620
0.15400001 560284.83744596 14329.28539389
0.15500001 552705.76181817 16813.31006798
0.15600001 545196.06629064 14123.30476381
0.15700001 537761.06834457 12744.93792129
0.15800001 530394.54920997 16444.88377443
0.15900001 523102.80503860 15065.36149621
0.16000001 515881.13120793 12458.52990674
0.16100001 508734.53872640 17307.14982444
0.16200001 501660.39207899 18398.39574801
0.16300001 494659.24241483 15819.20331922
0.16400001 487732.18594408 13278.50938920
0.16500001 480877.78085939 14368.62877044
0.16600001 474098.06494310 16626.61992255
0.16700001 467390.62970070 15311.71775193
0.16800001 460757.42714650 18688.32212746
0.16900001 454199.68284138 15056.72019714
0.17000001 447714.32630158 13780.64761428
0.17100001 441303.42577045 12524.19181477
0.17200001 434965.88970934 12416.10190808
0.17300001 428702.74542475 12308.05640239
0.17400001 422513.64557722 16636.47558028
0.17500001 416397.25317796 13191.46560368
0.17600001 410353.18480980 11984.36532838
0.17700001 404385.28433816 11876.79636196
0.17800001 398488.64700234 12839.30481284
0.17900001 392664.35214536 13782.51941130
0.18000001 386914.95268056 12605.68975376
0.18100001 381237.97429244 11448.57690879
0.18200001 375630.67568433 10311.06253461
0.18300001 370096.77465270 11236.13860924
0.18400001 364633.94422806 14166.02940247
0.18500001 359243.17318743 11025.17350597
0.18600001 353923.47892938 19855.10810596
0.18700001 348673.43567950 10815.85048577
0.18800001 343492.23417567 11685.60635876
0.18900001 338384.54331595 12537.14792220
0.19000001 333342.28009052 11460.30813100
0.19100001 328371.68515568 11348.52597520
0.19200001 323467.72067342 13110.14733837
0.19300001 318634.07532938 14835.60324836
0.19400001 313866.11348546 13770.87637990
0.19500001 309166.06206729 10907.37918516
0.19600001 304531.24972323 9898.78874003
0.19700001 299964.68986302 11581.63722293
0.19800001 295462.44531854 12347.37617338
0.19900001 291025.45937525 10476.91703265
0.20000001 286651.68907850 12963.82325126
0.20100001 282343.49331015 11121.51072712
0.20200001 278097.13078944 11008.47544260
0.20300001 273914.25100641 13410.84236313
0.20400001 269793.52039286 10784.99648747
0.20500001 265733.86095984 11495.64736849
0.20600001 261735.07310197 8126.87440396
0.20700001 257796.72919533 9651.90999731
0.20800001 253917.58374001 9552.37995184
0.20900001 250099.93864338 11029.40781555
0.21000001 246337.52599884 10915.21629300
0.21100001 242634.69227777 9258.94029502
0.21200001 238987.54060104 10689.91319644
0.21300001 235397.03261204 8311.86961448
0.21400001 231862.59994896 8225.32612205
0.21500001 228384.30421982 10359.51252918
0.21600001 224958.83036681 13180.33849434
0.21700001 221587.92295431 10144.29559247
0.21800001 218270.07027761 7887.18936239
0.21900001 215003.44590205 7804.62545526
0.22000001 211788.49087901 9127.02544598
0.22100001 208625.98706487 7641.97026753
0.22200001 205513.44138393 6874.42493935
0.22300001 202449.94660298 8162.78223301
0.22400001 199434.72707126 7404.01459263
0.22500001 196470.21580914 7992.40875706
0.22600001 193551.01146624 8567.53592770
0.22700001 190679.97999488 6521.25562421
0.22800001 187854.23276140 9033.91048071
0.22900001 185073.87525183 6385.04899814
0.23000001 182338.81943006 7581.64847045
0.23100001 179649.03422087 6876.96535521
0.23200001 177001.08786912 7423.42597631
0.23300001 174396.98500337 7957.73480206
0.23400001 171833.74867806 9085.70989106
0.23500001 169312.23690773 8391.11485801
0.23600001 166832.02105059 7710.14221752
0.23700001 164391.65939510 5868.78251799
0.23800001 161990.44132445 7549.56487501
0.23900001 159628.46293988 10343.92488777
0.24000001 157304.03186973 6823.84922528
0.24100001 155018.24767328 7315.31145372
0.24200001 152769.33903319 7795.81973962
0.24300001 150556.02649449 6612.42099642
0.24400001 148378.28784760 7088.77303724
0.24500001 146235.18012297 6475.29408215
0.24600001 144126.71478090 6941.86354581
0.24700001 142052.88815774 6341.24122734
0.24800001 140011.81784254 7321.21830133
0.24900001 138001.82171633 6727.58912694
0.25000001 136025.39741759 9218.44161910
0.25100001 134079.54953312 6588.66937576
0.25200001 132166.42825750 6018.85942760
0.25300001 130281.89982490 6452.86280362
0.25400001 128428.10056867 5894.85009499
0.25500001 126601.79547040 5833.81101128
0.25600001 124805.78949770 7216.89511915
0.25700001 123036.97063287 6666.14338429
0.25800001 121295.45289380 4712.32856788
0.25900001 119582.30528963 5130.08113965
0.26000001 117894.51966015 4615.57066308
0.26100001 116232.74693755 5938.33132202
0.26200001 114597.35140240 4972.95229941
0.26300001 112985.88510453 4921.66538803
0.26400001 111399.78680091 4870.95590835
0.26500001 109837.82531712 4820.78238128
0.26600001 108299.05352673 5638.59048868
0.26700001 106783.84462451 6439.06613556
0.26800001 105291.86717971 6372.79056262
0.26900001 103821.09550857 4204.75456707
0.27000001 102372.91747131 4993.75115057
0.27100001 100946.09311073 4530.46087320
0.27200001 99540.99266457  4891.44461102
0.27300001 98156.37389186  4034.22715787
0.27400001 96790.47882258  5589.65041653
0.27500001 95446.83130820  6717.54830538
0.27600001 94120.55382745  3910.70919661
0.27700001 92815.33700310  3870.39973620
0.27800001 91527.68304056  4596.52045984
0.27900001 90259.02348100  6444.49458155
0.28000001 89008.04433347  4877.19602008
0.28100001 87775.13899351  4826.75512170
0.28200001 86560.10799260  4409.37210984
0.28300001 85362.24145117  5091.00432111
0.28400001 84180.40305036  4318.45488088
0.28500001 83016.02506727  3917.52640835
0.28600001 81867.54613805  3876.83783087
0.28700001 80735.74933276  3836.56298989
0.28800001 79618.07386844  4141.73239868
0.28900001 78517.89973181  4440.18744000
0.29000001 77431.72895392  3717.88464171
0.29100001 76361.29994179  7023.71270111
0.29200001 75305.21108601  3640.63060228
0.29300001 74263.92231751  3275.03912923
0.29400001 73236.19876963  3888.84233875
0.29500001 72223.72074544  3206.73335289
0.29600001 71223.93758642  4759.53985452
0.29700001 70238.15470290  3453.61023023
0.29800001 69266.28113861  3727.91142735
0.29900001 68307.90729090  4918.16955777
0.30000001 67361.37319952  4257.91260151
0.30100001 66429.14345302  3009.24034088
0.30200001 65508.35063915  3572.82561300
0.30300001 64601.14636473  2945.81241369
0.30400001 63706.02569287  3788.91605746
0.30500001 62823.68751676  4037.05035095
0.30600001 61952.05588039  4279.33846253
0.30700001 61093.35855934  3951.51861870
0.30800001 60246.22849522  3071.65410525
0.30900001 59410.99117837  3038.87234265
0.31000001 58587.53214261  3553.04105501
0.31100001 57774.60549889  4326.16266458
0.31200001 56973.98311616  4012.39295092
0.31300001 56183.71094053  2646.25291059
0.31400001 55406.00970233  3141.52089886
0.31500001 54637.55338028  3366.76619870
0.31600002 53881.69901274  2562.07490936
0.31700002 53135.80070086  3801.86672016
0.31800002 52400.22606883  3259.55621695
0.31900002 51676.04184476  2480.45012600
0.32000002 50962.62061291  2699.23532857
0.32100002 50258.93794158  3398.50954453
0.32200002 49566.73773363  3362.11197967
0.32300002 48883.38742894  3088.45256400
0.32400002 48211.51437883  2585.34258098
0.32500002 47549.09245554  3022.69595053
0.32600002 46896.92185834  2760.35295129
0.32700002 46255.23082885  2730.90895745
0.32800002 45624.22501241  2476.71117208
0.32900002 45001.23325065  3564.09784222
0.33000002 44389.39322451  2865.11352135
0.33100002 43786.32263760  2180.55897061
0.33200002 43194.63025895  2589.08626033
0.33300002 42611.80893995  2134.85172899
0.33400002 42039.08864719  2112.46430456
0.33500002 41475.83503730  2508.45862185
0.33600002 40921.78416632  2275.45591633
0.33700002 40377.17191213  2865.97179805
0.33800002 39842.83167561  2836.41132131
0.33900002 39317.25917065  2205.69834393
0.34000002 38801.09803542  2183.14388435
0.34100002 38294.63954521  3339.67567290
0.34200002 37797.92380387  2917.05490771
0.34300002 37309.70748254  2310.21719673
0.34400002 36831.53274854  3240.25424701
0.34500002 36362.17708298  2453.35620398
0.34600002 35902.71967202  2429.35764166
0.34700002 35450.94672802  2035.59345753
0.34800002 35009.43901926  2749.11632919
0.34900002 34576.31105855  1815.25641655
0.35000002 34152.64976332  2157.76451424
0.35100002 33738.57351338  1781.39676588
0.35200002 33331.78972669  1764.91834962
0.35300002 32935.28433620  2273.52278541
0.35400002 32546.73549767  2079.73649680
0.35500002 32167.54369759  1717.74691481
0.35600002 31796.77506474  1872.98912390
0.35700002 31434.50400719  1856.83623965
0.35800002 31081.42697449  2175.85539841
0.35900002 30737.32533774  2489.72347028
0.36000002 30401.45430746  2140.11047734
0.36100002 30073.48850451  2122.88765409
0.36200002 29755.68164475  2106.25602499
0.36300002 29444.61545936  2250.74651232
0.36400002 29142.66940877  1755.11734828
0.36500002 28848.24012275  2217.27584086
0.36600002 28562.89171226  2044.10344221
0.36700002 28285.21295729  1561.34382920
0.36800002 28016.55249019  1860.85950455
0.36900002 27755.61402622  1848.52398171
0.37000002 27502.13250760  2907.93811844
0.37100002 27256.51933967  1520.91385120
0.37200002 27019.73492683  2116.45593708
0.37300002 26790.33634862  2254.40691053
0.37400002 26568.47803307  1643.92465617
0.37500002 26354.52751247  2229.59313317
0.37600002 26148.45174161  1626.56451764
0.37700002 25949.79397161  2207.03008184
0.37800002 25758.33277157  1903.66967366
0.37900002 25575.35017117  2332.47204611
0.38000002 25398.79182181  1887.00332779
0.38100002 25228.85092809  1590.17454933
0.38200002 25067.27879337  1584.12675839
0.38300002 24912.21546018  1721.93241418
0.38400002 24764.49142448  2145.22417127
0.38500002 24622.89861396  1853.36566647
0.38600002 24489.37312689  1705.92981284
0.38700002 24361.59413558  1559.62933045
0.38800002 24240.40901150  1414.42793283
0.38900002 24125.98966278  1834.78160078
0.39000002 24018.59503662  1690.42879876
0.39100002 23916.67695728  1687.56080606
0.39200002 23822.01510738  1685.16942853
0.39300002 23732.61352433  1542.85727831
0.39400002 23650.71212079  1821.69618741
0.39500002 23573.34996990  2100.38558183
0.39600002 23502.27170879  2099.34051985
0.39700002 23436.46749151  1818.90432819
0.39800002 23377.51125824  2098.71617264
0.39900002 23322.99302748  1679.25557754
0.40000002 23274.41140955  1819.94268640
0.40100002 23230.76724245  1540.89686420
0.40200002 23192.89497899  1542.21162470
0.40300002 23159.95600275  1684.19208032
0.40400002 23132.09093360  2248.43934528
0.40500002 23108.69834607  1407.31979596
0.40600002 23090.96298189  1691.64402820
0.40700002 23077.37149208  1553.56872246
0.40800002 23068.16003765  1415.23168537
0.40900002 23063.34410137  1702.07487533
0.41000002 23063.39801548  1848.41612153
0.41100002 23067.44597259  1425.56822865
0.41200002 23074.60025004  1572.41870854
0.41300002 23087.34984115  2007.21429030
0.41400002 23102.98847216  1725.79332064
0.41500002 23122.36918109  1587.11949579
0.41600002 23144.48815799  1881.99414374
0.41700002 23171.65782631  1452.86301455
0.41800002 23202.52497592  1749.93451660
0.41900002 23234.73759164  1610.16739140
0.42000002 23270.78202267  2057.36993611
0.42100002 23310.74261439  2803.58314708
0.42200002 23352.93113105  2518.96403581
0.42300002 23397.74338285  2232.14482450
0.42400002 23445.06962962  1793.54791165
0.42500002 23495.57517367  1951.77752216
0.42600002 23547.23684973  1960.66076920
0.42700002 23602.25814856  1666.79154943
0.42800002 23658.81235355  1826.93357651
0.42900002 23718.44559028  1835.80777568
0.43000002 23779.73877776  1691.09620332
0.43100002 23841.36261423  1544.92037061
0.43200002 23905.97782281  1707.96266649
0.43300002 23971.53204462  1872.65617207
0.43400002 24039.04337156  1725.40241976
0.43500002 24107.39567986  2207.27325305
0.43600002 24177.63093888  2377.26567472
0.43700002 24248.32824547  2548.98438596
0.43800002 24319.62103668  1761.59183327
0.43900002 24392.82186852  1770.91895158
0.44000002 24466.08759465  1780.27494819
0.44100002 24540.43460712  1789.73398071
0.44200002 24615.19410634  1799.24769847
0.44300002 24690.45826889  2302.13843809
0.44400002 24765.96426285  3306.25638578
0.44500002 24841.28925253  1828.07056273
0.44600002 24916.55492950  1837.72059592
0.44700002 24993.11511905  2015.44489872
0.44800002 25068.23252306  2194.84920257
0.44900002 25143.99041023  2036.66331975
0.45000002 25219.76276371  1876.72873500
0.45100002 25294.28231451  2572.42863330
0.45200002 25368.82843051  1896.19317090
0.45300002 25442.26894934  2079.14231708
0.45400002 25515.52312510  2612.15180373
0.45500002 25588.29547434  1750.23949339
0.45600002 25659.68161216  2110.76550945
0.45700002 25730.64592111  1944.46500441
0.45800002 25800.11733351  2131.60579512
0.45900002 25868.53002044  2141.91438721
0.46000002 25936.30038641  1793.49525672
0.46100002 26001.95899710  2162.32301268
0.46200002 26066.98636094  2172.42274628
0.46300002 26130.63319151  2182.43058759
0.46400002 26192.21231649  2374.97896436
0.46500002 26253.37948209  2202.13357533
0.46600002 26311.84505301  2580.40276665
0.46700002 26368.68302799  1851.08163630
0.46800002 26424.66950074  2230.77070498
0.46900002 26477.89696975  2426.69937229
0.47000002 26529.60535174  2249.18004832
0.47100002 26579.60554699  2070.01977811
0.47200002 26627.69031914  2267.08166122
0.47300002 26673.80080873  2844.76099108
0.47400002 26717.09908190  2665.03075974
0.47500002 26758.75361714  2292.69011859
0.47600002 26798.93317271  2492.70288721
0.47700002 26835.82310762  1924.12860802
