# SAXS profile: number of points = 501, q_min = 0, q_max = 0.5, delta_q = 0.001
#    q    intensity    error
0.00000000 1682732.95097187 277.65093691
0.00100000 1682650.88977147 656.23386260
0.00200000 1682404.64298859 908.49853598
0.00300000 1681994.42929502 1412.87537094
0.00400000 1681420.11734436 1639.38467670
0.00500000 1680682.23342356 1815.13688394
0.00600000 1679780.66981089 2292.90070764
0.00700000 1678715.97969781 2215.90518529
0.00800000 1677487.97596793 2717.53063580
0.00900000 1676097.95183239 2514.14703522
0.01000000 1674545.22226486 2762.99973604
0.01100000 1672831.12398197 3613.31538512
0.01200000 1670955.51112068 3258.36338954
0.01300000 1668919.59120580 5257.09694416
0.01400000 1666723.34414970 4875.16599776
0.01500000 1664368.18891137 4393.93221438
0.01600000 1661853.64530719 5509.04508047
0.01700000 1659181.85952965 5375.74946603
0.01800000 1656352.71954173 6136.78710204
0.01900000 1653367.09023407 4960.10149451
0.02000000 1650225.94585075 6237.85435749
0.02100000 1646931.36888663 7065.33589286
0.02200000 1643481.97638209 8505.01961418
0.02300000 1639880.95824078 8265.00040574
0.02400000 1636127.83134740 6135.47964732
0.02500000 1632225.23453520 7638.81444649
0.02600000 1628172.88647184 9231.74068854
0.02700000 1623973.25309030 7502.75677291
0.02800000 1619625.96671858 11272.59724532
0.02900000 1615133.68490889 11628.96306528
0.03000000 1610497.66991802 10484.34031308
0.03100000 1605718.51440312 10019.68399091
0.03200000 1600797.14017965 11093.52469239
0.03300000 1595737.81187881 10579.74218049
0.03400000 1590538.48439707 10020.39291405
0.03500000 1585202.40792073 11984.13075728
0.03600000 1579731.00347446 11397.75971680
0.03700000 1574125.81162201 12561.52455768
0.03800000 1568388.44907027 12845.10199235
0.03900000 1562521.04612496 10312.63938200
0.04000000 1556523.34008092 13401.66657912
0.04100000 1550399.44911578 13674.52377524
0.04200000 1544150.10821474 10955.74552605
0.04300000 1537776.31839040 14209.05384148
0.04400000 1531281.67718076 11369.76698110
0.04500000 1524667.32953885 15780.30759396
0.04600000 1517933.36837544 13911.85996788
0.04700000 1511084.16728002 10879.80651041
0.04800000 1504119.88056186 13266.33796381
0.04900000 1497044.53095727 16841.75175721
0.05000000 1489857.78946927 13676.89514421
0.05100000 1482563.95832029 19658.79900311
0.05200000 1475161.28693117 15245.79261091
0.05300000 1467656.02080925 14265.61718730
0.05400000 1460048.23029866 18068.09769253
0.05500000 1452340.24490369 13419.62448893
0.05600000 1444533.24167992 14820.91175124
0.05700000 1436632.33157264 17498.18261534
0.05800000 1428636.34460042 20229.49158411
0.05900000 1420548.09001855 17898.90677022
0.06000000 1412371.12741540 18092.47498745
0.06100000 1404106.94307309 19587.29277121
0.06200000 1395757.66924958 21103.85694552
0.06300000 1387326.36100631 15982.00042604
0.06400000 1378812.12896437 13443.41888611
0.06500000 1370221.10279253 13565.18955220
0.06600000 1361553.80606627 15051.97803032
0.06700000 1352812.03481660 15178.55174098
0.06800000 1343998.98662328 15301.42917895
0.06900000 1335117.41375388 19626.22690106
0.07000000 1326167.53975437 16948.42195173
0.07100000 1317153.27222570 18492.83280821
0.07200000 1308076.27893169 15755.77951784
0.07300000 1298939.99860825 20185.52852418
0.07400000 1289745.62196972 15960.60281986
0.07500000 1280495.84808200 18976.94935807
0.07600000 1271191.23015668 19086.93721561
0.07700000 1261837.60537427 16239.85074263
0.07800000 1252434.50197289 14841.34954438
0.07900000 1242984.45543827 17898.97699784
0.08000000 1233491.63441133 17984.30887338
0.08100000 1223956.99354112 15054.67172689
0.08200000 1214381.89805243 22678.58301033
0.08300000 1204770.11319623 19734.13538032
0.08400000 1195123.29076869 16761.60493980
0.08500000 1185443.72957936 21409.11476126
0.08600000 1175733.78791290 16877.65931792
0.08700000 1165996.70814957 18469.38872437
0.08800000 1156231.74520809 16979.26397579
0.08900000 1146445.28144225 15477.01202642
0.09000000 1136636.11905215 17066.59212928
0.09100000 1126808.10108046 18659.94303056
0.09200000 1116962.24604217 23372.43609663
0.09300000 1107104.06088647 17171.18479126
0.09400000 1097229.88380269 21889.73721063
0.09500000 1087345.90221847 15657.78172790
0.09600000 1077453.15126262 17244.63849659
0.09700000 1067556.07755306 15693.07507781
0.09800000 1057654.58059176 21988.63976436
0.09900000 1047750.87175601 17287.89019689
0.10000000 1037846.63719711 17295.71502226
0.10100000 1027943.70166762 20445.80118777
0.10200000 1018045.51732914 23593.20597384
0.10300000 1008152.70813664 18872.61958410
0.10400000 998268.54117428 17295.00328949
0.10500000 988395.86600775 20430.14351161
0.10600001 978531.82588308 17275.98019886
0.10700001 968684.19124046 17261.95310021
0.10800001 958850.95881327 18812.65669727
0.10900001 949036.36752873 18790.92096148
0.11000001 939240.06691003 18766.01742017
0.11100001 929465.58933805 23422.53395390
0.11200001 919713.65653656 17148.06193341
0.11300001 909986.28097629 23341.14920596
0.11400001 900286.08142627 18635.92276299
0.11500001 890614.37948866 23245.03639922
0.11600001 880972.13832830 20099.38028247
0.11700001 871362.41571318 23134.67322671
0.11800001 861784.15543857 23074.27184863
0.11900001 852240.43846052 18408.39433781
0.12000001 842732.39567938 22943.39055312
0.12100001 833264.64808599 19823.36691181
0.12200001 823834.39683866 18239.69440530
0.12300001 814446.42664516 18178.44509919
0.12400001 805099.25758395 21133.85650735
0.12500001 795795.36193642 24064.85287890
0.12600001 786537.77178408 16481.89978442
0.12700001 777326.27600606 19402.06476346
0.12800001 768161.99584887 23782.29651232
0.12900001 759046.87652043 16281.55626875
0.13000001 749982.27640892 16210.86766868
0.13100001 740968.26825365 16138.28964328
0.13200001 732007.24307726 17524.25422537
0.13300001 723100.15730766 15987.74523178
0.13400001 714246.75720606 17356.19701838
0.13500001 705450.66366417 14391.19421727
0.13600001 696711.55538019 15749.16545195
0.13700001 688030.20320301 18514.89364123
0.13800001 679406.38701481 18415.31098842
0.13900001 670844.12313436 16905.27270021
0.14000001 662341.76340488 22413.64633066
0.14100001 653902.15151516 16713.73978100
0.14200001 645524.51283654 18000.45188944
0.14300001 637211.24056627 17892.89247907
0.14400001 628959.40332090 17783.82796776
0.14500001 620775.33930283 19032.97280085
0.14600001 612655.82234008 14859.96767187
0.14700001 604604.26088347 17448.87979227
0.14800001 596617.42224455 20001.60002440
0.14900001 588699.10372575 17219.44959641
0.15000001 580848.71561534 15787.46883532
0.15100001 573067.23753051 19598.90044832
0.15200001 565356.35318453 16867.40759318
0.15300001 557714.96469672 16748.18118017
0.15400001 550142.19161211 15348.96787031
0.15500001 542641.91709097 13967.60360509
0.15600001 535210.73307128 13864.63469455
0.15700001 527854.14979097 15012.17272858
0.15800001 520566.11758503 13657.05273944
0.15900001 513352.69988427 17248.65153026
0.16000001 506209.30944197 14669.94648009
0.16100001 499141.04912718 12129.12806634
0.16200001 492145.01424356 12032.94616628
0.16300001 485221.90592981 14323.75133924
0.16400001 478372.77712825 13023.69947216
0.16500001 471596.04825563 12917.01637155
0.16600001 464893.66374024 17468.38023977
0.16700001 458264.04685673 11548.25452604
0.16800001 451708.28380897 12595.88608875
0.16900001 445227.59366240 12488.63459192
0.17000001 438819.07832253 15757.99384665
0.17100001 432485.07773672 14505.55019226
0.17200001 426224.52154764 13272.63222777
0.17300001 420037.68852172 17540.77470102
0.17400001 413925.09632069 14125.19457902
0.17500001 407884.86826939 10768.16103087
0.17600001 401916.77886744 11737.98008120
0.17700001 396024.68808841 14803.40353992
0.17800001 390203.68785655 11524.66646518
0.17900001 384454.97845825 11418.31339954
0.18000001 378780.27351092 12340.66189390
0.18100001 373178.38771747 14262.87865229
0.18200001 367645.96436761 13119.44685819
0.18300001 362186.42585393 10995.98040837
0.18400001 356797.93079222 10891.25735194
0.18500001 351481.11874850 11767.58841163
0.18600001 346235.15150797 13596.65504207
0.18700001 341058.69584712 11541.42681274
0.18800001 335950.87567202 11429.04933034
0.18900001 330916.11572087 10374.22071800
0.19000001 325946.60280110 11206.04473377
0.19100001 321048.50239598 11095.43676707
0.19200001 316216.73515747 10069.92240691
0.19300001 311454.88709727 10876.00517136
0.19400001 306758.52178046 13459.03077911
0.19500001 302129.66301071 9770.87376349
0.19600001 297565.90885532 9672.38032442
0.19700001 293069.93151345 9574.59511502
0.19800001 288638.13990505 11200.60354834
0.19900001 284271.22703004 10233.76465673
0.20000001 279967.22236282 8441.01215317
0.20100001 275728.31296991 10860.93876120
0.20200001 271551.29904085 9922.48493592
0.20300001 267437.05150242 9001.93157904
0.20400001 263384.85577428 12958.53551659
0.20500001 259393.35799313 9618.30616901
0.20600001 255462.17084560 15070.99148141
0.20700001 251591.31305153 8634.61427208
0.20800001 247779.38358545 10098.24925537
0.20900001 244028.34910962 10761.65070445
0.21000001 240332.26669648 11409.77490078
0.21100001 236695.42115321 10537.68064789
0.21200001 233113.98134631 11171.98808417
0.21300001 229588.66134128 7369.79637747
0.21400001 226119.07333702 10938.51068981
0.21500001 222705.42253318 7215.65603121
0.21600001 219344.03855352 9281.54343021
0.21700001 216036.94708583 7770.84935408
0.21800001 212782.31627757 8387.87930425
0.21900001 209578.98259934 7607.71742806
0.22000001 206426.50784358 8211.64687029
0.22100001 203326.30438189 7447.84288167
0.22200001 200275.34265188 7369.13158132
0.22300001 197273.24782913 9279.73401668
0.22400001 194319.18087353 7214.09993106
0.22500001 191415.29118568 9084.57014926
0.22600001 188556.29913750 7062.37651816
0.22700001 185745.05472608 7622.97740644
0.22800001 182978.65546540 7542.38053496
0.22900001 180257.24398599 6840.76273277
0.23000001 177580.82819125 8614.44638295
0.23100001 174949.11967417 8523.52151363
0.23200001 172358.79132779 6626.33404598
0.23300001 169811.97921000 5960.40075217
0.23400001 167305.81005082 7077.03609986
0.23500001 164840.59666407 6418.89313769
0.23600001 162416.36482404 8083.46285962
0.23700001 160031.77186923 6855.76143114
0.23800001 157685.78840133 5653.03578157
0.23900001 155378.41087169 5593.62305596
0.24000001 153108.31717125 6641.83911305
0.24100001 150876.36444315 5476.81228835
0.24200001 148680.99094171 5961.36461379
0.24300001 146520.53625517 6971.44744479
0.24400001 144395.42224137 6898.49162390
0.24500001 142304.60383260 5776.14414280
0.24600001 140247.74045600 7274.65064158
0.24700001 138225.03970744 6170.36606444
0.24800001 136234.81858911 8650.23021553
0.24900001 134275.30745245 7552.98640151
0.25000001 132348.81437745 5979.51971645
0.25100001 130452.45673836 4931.10309800
0.25200001 128588.27374211 5855.91026326
0.25300001 126752.37954958 5795.11906718
0.25400001 124946.65513085 5257.13076335
0.25500001 123168.26615537 6621.52630179
0.25600001 121419.49733202 4680.72184361
0.25700001 119697.35594933 5095.51668385
0.25800001 118002.28333821 5042.82781706
0.25900001 116335.11082399 5898.19039785
0.26000001 114692.78715643 6735.33424445
0.26100001 113075.90730917 4888.27170427
0.26200001 111485.33809270 4837.90647545
0.26300001 109917.90119427 5658.57382123
0.26400001 108375.57888680 6461.89419689
0.26500001 106856.85907263 6821.74220599
0.26600001 105360.90723754 4641.67498799
0.26700001 103888.12778529 4176.30293459
0.26800001 102438.04940023 5373.38813556
0.26900001 101008.78213617 5727.19821814
0.27000001 99601.71674899  4453.69097519
0.27100001 98215.44759393  6010.78567720
0.27200001 96850.55861671  5155.83973195
0.27300001 95505.62532123  4710.33766376
0.27400001 94179.12360654  3884.88903262
0.27500001 92874.24176775  4229.49317027
0.27600001 91586.23838267  5327.57173885
0.27700001 90319.01063418  5649.45438254
0.27800001 89069.00146931  4845.79925428
0.27900001 87837.45163052  4427.00777170
0.28000001 86623.19241653  5476.75159974
0.28100001 85426.58433918  5420.31703286
0.28200001 84247.49082574  4649.19800126
0.28300001 83084.94188271  6017.01177593
0.28400001 81938.18487222  5604.57211053
0.28500001 80808.21274010  4853.34148689
0.28600001 79693.84579862  5146.23033603
0.28700001 78595.80895860  4413.94084004
0.28800001 77511.41982121  3696.13222912
0.28900001 76444.05537125  3657.84822265
0.29000001 75390.35484347  4278.02588809
0.29100001 74352.03191461  4559.26681282
0.29200001 73327.61509186  3867.29860300
0.29300001 72317.49854942  3189.20183699
0.29400001 71320.58276569  5680.68468619
0.29500001 70338.54236798  4684.54714346
0.29600001 69368.79076073  3708.45572962
0.29700001 68412.54883905  3363.84518565
0.29800001 67469.93863301  4236.43764731
0.29900001 66540.33754526  4192.04146380
0.30000001 65622.10773656  5629.39277867
0.30100001 64718.00908318  4983.93411544
0.30200001 63824.83924102  4061.17471316
0.30300001 62944.88980945  3444.34453343
0.30400001 62076.58575627  4260.00589920
0.30500001 61220.72591162  3372.03774285
0.30600001 60375.22251895  3892.39078007
0.30700001 59542.23490202  3576.10679752
0.30800001 58720.39437754  3266.02848990
0.30900001 57910.11135828  2962.10233621
0.31000001 57111.18662229  3996.35547310
0.31100001 56322.46186623  3953.83701020
0.31200001 55545.77175127  3129.44892863
0.31300001 54779.03524445  3096.11121861
0.31400001 54024.34701787  3573.71072444
0.31500001 53278.84732820  2525.41748293
0.31600002 52545.31215028  4247.50050878
0.31700002 51821.47556388  2966.26140172
0.31800002 51107.65629613  3668.25220434
0.31900002 50404.82242672  2903.31790925
0.32000002 49712.32997267  2393.64880152
0.32100002 49029.35746199  2841.74169305
0.32200002 48357.56985953  2577.21680770
0.32300002 47694.13022809  2549.72832273
0.32400002 47041.90190626  2751.95139182
0.32500002 46398.81022869  2949.57250591
0.32600002 45765.80279698  2244.81273349
0.32700002 45142.78682379  2443.12773859
0.32800002 44530.17052679  2637.07682347
0.32900002 43925.17350676  2609.15542985
0.33000002 43331.24503003  2796.81534290
0.33100002 42745.57952580  2341.60295731
0.33200002 42170.99407698  4423.52663318
0.33300002 41604.96536048  2292.84974959
0.33400002 41049.00907743  2268.98408420
0.33500002 40501.92665024  2449.55663981
0.33600002 39963.69031291  2828.23049738
0.33700002 39434.77282000  2399.21169199
0.33800002 38915.98279150  2968.31672799
0.33900002 38405.35007722  3133.87671471
0.34000002 37904.10923960  2520.43386325
0.34100002 37412.12078359  2111.16607580
0.34200002 36929.67119116  2280.03800732
0.34300002 36455.51897422  2821.65730224
0.34400002 35991.13172864  2421.30350172
0.34500002 35535.22285946  1844.27815375
0.34600002 35088.89212028  2009.01461349
0.34700002 34650.22102128  1989.61578527
0.34800002 34221.29269560  2866.37561194
0.34900002 33800.62375159  2306.89268030
0.35000002 33389.11923921  1757.93721120
0.35100002 32987.00770900  2264.22831639
0.35200002 32592.06631173  2070.89999153
0.35300002 32206.96799121  2052.22809760
0.35400002 31829.80465696  2542.40576739
0.35500002 31461.69600583  2352.07650480
0.35600002 31101.66387077  1832.04359708
0.35700002 30750.17654589  1981.54147047
0.35800002 30407.23754544  1801.17280132
0.35900002 30073.32173720  1948.75134087
0.36000002 29747.40176543  2255.15063465
0.36100002 29429.21680517  1757.80720303
0.36200002 29120.82497662  1902.75479410
0.36300002 28819.22538802  2202.94169301
0.36400002 28526.32553680  1717.99803683
0.36500002 28240.78161782  1550.41898426
0.36600002 27964.24607786  1693.37500146
0.36700002 27695.16835038  1681.65070189
0.36800002 27434.84534595  1670.37063801
0.36900002 27182.17891194  1810.33320129
0.37000002 26936.72771041  2098.64055533
0.37100002 26698.98644438  1638.78386558
0.37200002 26469.81383367  1480.98615415
0.37300002 26247.92581905  1472.50870820
0.37400002 26033.43481761  1464.38077786
0.37500002 25826.69743639  1893.61354574
0.37600002 25627.59830269  1739.08890320
0.37700002 25435.80270667  1586.43108997
0.37800002 25251.17997036  2009.74150905
0.37900002 25074.71902084  1572.18495708
0.38000002 24904.59505940  1565.62744258
0.38100002 24740.96490007  1417.65735593
0.38200002 24585.62435207  1694.93302313
0.38300002 24436.41182149  1689.04486512
0.38400002 24294.60067290  1543.31458086
0.38500002 24158.77532718  2657.70699965
0.38600002 24030.83618509  1534.48911730
0.38700002 23908.63917079  1391.48286566
0.38800002 23792.90257502  1804.81071033
0.38900002 23683.82865872  1385.50404217
0.39000002 23581.49202901  1383.05457303
0.39100002 23484.77564119  1657.08584775
0.39200002 23394.90444311  1517.04265049
0.39300002 23310.37385652  1515.40747621
0.39400002 23233.20477741  1789.53768276
0.39500002 23160.52751586  2338.75017936
0.39600002 23094.03367374  1512.77474747
0.39700002 23032.66907643  2062.57561351
0.39800002 22978.05073675  1512.76004193
0.39900002 22927.76718044  1925.93253441
0.40000002 22883.42552255  1376.43811040
0.40100002 22843.94039596  1790.73657248
0.40200002 22810.13159576  1516.75977232
0.40300002 22781.15461430  1656.64564204
0.40400002 22757.12792077  1658.99470403
0.40500002 22737.51432590  1800.12909447
0.40600002 22723.54794150  2080.90900134
0.40700002 22713.63775195  1390.07469628
0.40800002 22708.08946243  1671.76962544
0.40900002 22706.75826462  1675.75883933
0.41000002 22710.34871708  1960.13029065
0.41100002 22717.73577300  1684.74736475
0.41200002 22728.34515634  1830.42736390
0.41300002 22744.37722010  1412.42589229
0.41400002 22763.40602214  1558.72430122
0.41500002 22786.04771108  1848.40427791
0.41600002 22811.43660343  1426.85542715
0.41700002 22841.67146157  1575.39015535
0.41800002 22875.66038159  1581.50885542
0.41900002 22911.03516257  1876.41386873
0.42000002 22950.15663886  1884.09319854
0.42100002 22993.01512546  1455.45792641
0.42200002 23038.24574362  1461.77676170
0.42300002 23085.97286058  1908.74832656
0.42400002 23136.24314868  2064.90979887
0.42500002 23189.66638645  1778.18370277
0.42600002 23244.11960141  1637.66452412
0.42700002 23302.11219596  1645.59524126
0.42800002 23361.53681500  1954.30945487
0.42900002 23423.86361279  1661.92320208
0.43000002 23487.97217168  1822.19696743
0.43100002 23552.34976892  1526.19233735
0.43200002 23619.89120514  1840.93440777
0.43300002 23688.08020379  2004.72232265
0.43400002 23758.34182713  1860.27825322
0.43500002 23829.45154044  2181.82468644
0.43600002 23902.45144899  2663.56980344
0.43700002 23975.88412168  1732.73722759
0.43800002 24049.84469827  1742.05058327
0.43900002 24125.77714612  1910.76164052
0.44000002 24201.76172576  2561.51458244
0.44100002 24278.86431317  1609.68878025
0.44200002 24356.32620388  1618.47795295
0.44300002 24434.38802940  2440.99547982
0.44400002 24512.60310872  1636.21633505
0.44500002 24590.64053229  2632.18228732
0.44600002 24668.66109659  1819.43718540
0.44700002 24747.92954574  2494.59141643
0.44800002 24825.85752026  2675.23453317
0.44900002 24904.43034516  2017.25895356
0.45000002 24982.88935414  1690.09254490
0.45100002 25060.12027646  2378.70672937
0.45200002 25137.49700994  1708.09300278
0.45300002 25213.76322312  2232.17456393
0.45400002 25289.77457719  1726.02719669
0.45500002 25365.35538894  2255.48750808
0.45600002 25439.61820504  1918.27450166
0.45700002 25513.43115034  2453.88192434
0.45800002 25585.78515917  1761.58139170
0.45900002 25657.05940240  1947.37090094
0.46000002 25727.80213516  2134.89312236
0.46100002 25796.42093696  1787.69205566
0.46200002 25864.35594362  2335.16348704
0.46300002 25930.99192673  2165.75654837
0.46400002 25995.51489473  2357.14342480
0.46500002 26059.65255810  2550.19772020
0.46600002 26121.13817202  2561.70014194
0.46700002 26181.03534582  2021.69964522
0.46800002 26239.99902433  2030.58242074
0.46900002 26296.31247854  2410.05715289
0.47000002 26351.22358606  1861.71403459
0.47100002 26404.31343128  2056.36802749
0.47200002 26455.55116283  2064.72358836
0.47300002 26504.70048003  2261.38115214
0.47400002 26551.21124863  2837.66083669
0.47500002 26596.06537919  2468.64690550
0.47600002 26639.50521504  2668.47936387
0.47700002 26679.57220004  2104.21795915
