# SAXS profile: number of points = 501, q_min = 0, q_max = 0.5, delta_q = 0.001
#    q    intensity    error
0.00000000 1664650.74656090 374.54641798
0.00100000 1664569.20500632 599.24492803
0.00200000 1664324.51205024 1048.52447579
0.00300000 1663916.89044275 1098.18518681
0.00400000 1663346.20737212 1497.01164352
0.00500000 1662612.97582686 2094.89243246
0.00600000 1661717.12031154 2268.24396157
0.00700000 1660659.15463083 1992.79106838
0.00800000 1659438.92233362 2688.29116768
0.00900000 1658057.68054175 3730.62994069
0.01000000 1656514.79236765 3006.57447797
0.01100000 1654811.54665165 5063.72355323
0.01200000 1652947.77751029 4834.87246120
0.01300000 1650924.76701167 3466.94216363
0.01400000 1648742.43952383 4080.63771872
0.01500000 1646402.24921420 4346.50213147
0.01600000 1643903.63548319 5449.54079524
0.01700000 1641248.83796831 4874.50926743
0.01800000 1638437.69518357 5136.50240553
0.01900000 1635471.00688621 7359.61986307
0.02000000 1632349.94415081 5141.90255667
0.02100000 1629076.34345142 6988.73783027
0.02200000 1625648.91469397 6169.33791155
0.02300000 1622070.94693733 8175.23794469
0.02400000 1618341.79650153 7282.53841632
0.02500000 1614464.09969445 6926.05130401
0.02600000 1610437.74263181 6522.27315598
0.02700000 1606265.04087041 8770.20752484
0.02800000 1601945.71465392 8362.15701398
0.02900000 1597482.29757664 10064.13893682
0.03000000 1592876.17207051 7406.87454059
0.03100000 1588127.67231733 8385.31449567
0.03200000 1583238.08964864 8620.73179519
0.03300000 1578211.47198776 10463.54254165
0.03400000 1573045.89273176 10736.03871326
0.03500000 1567744.42023608 9312.40228623
0.03600000 1562308.45645595 9537.89356745
0.03700000 1556739.64553457 9760.75802891
0.03800000 1551039.73428185 9073.58286547
0.03900000 1545210.53362923 11125.51635735
0.04000000 1539252.07753956 10413.04078708
0.04100000 1533168.26518723 9658.96051853
0.04200000 1526959.84884298 10833.78063015
0.04300000 1520628.03404256 11039.76003959
0.04400000 1514176.05737672 12264.82663435
0.04500000 1507605.32720600 13523.22041339
0.04600000 1500915.89623274 10581.45756034
0.04700000 1494112.04795002 10757.60724555
0.04800000 1487194.04542479 10930.87674247
0.04900000 1480165.82968775 14431.61751121
0.05000000 1473026.78433622 12395.52096740
0.05100000 1465781.70189888 16006.33693038
0.05200000 1458428.58280670 13913.40932836
0.05300000 1450973.75084611 24681.06465247
0.05400000 1443417.12625619 17862.28777041
0.05500000 1435761.04086683 15678.51129766
0.05600000 1428006.66381765 12209.45754539
0.05700000 1420159.38599378 12355.38723488
0.05800000 1412217.76874709 19997.00453917
0.05900000 1404184.34657449 13901.42568036
0.06000000 1396063.38170162 16606.17470116
0.06100000 1387855.76019799 14197.76509031
0.06200000 1379563.61147925 18251.62743302
0.06300000 1371190.58145547 13163.43019743
0.06400000 1362735.03666674 21258.66756620
0.06500000 1354203.37554741 16087.93685406
0.06600000 1345596.20873979 20284.86379585
0.06700000 1336915.20921911 17727.49650387
0.06800000 1328163.68765273 15121.14429173
0.06900000 1319344.27036662 18009.05013367
0.07000000 1310457.23510884 18143.28126970
0.07100000 1301506.60919649 19678.78085276
0.07200000 1292493.69718698 21229.20997082
0.07300000 1283421.93671289 14245.98416502
0.07400000 1274293.04301562 17202.95688691
0.07500000 1265109.21188851 15864.47026069
0.07600000 1255871.39804966 15955.84686024
0.07700000 1246584.78192565 24794.57247508
0.07800000 1237249.52486689 14661.40755724
0.07900000 1227867.66493420 17681.29520437
0.08000000 1218443.85765125 14804.09356494
0.08100000 1208978.53408899 20818.61133378
0.08200000 1199473.35719976 17920.13279747
0.08300000 1189932.09304958 17991.77409130
0.08400000 1180356.30844902 16554.49800304
0.08500000 1170748.31388892 19633.45014561
0.08600000 1161110.17425517 19698.23503110
0.08700000 1151445.49937339 18238.89756653
0.08800000 1141753.56711552 22863.61625525
0.08900000 1132040.44616940 24452.07478577
0.09000000 1122305.25827823 21447.25449319
0.09100000 1112551.37643872 16888.53068778
0.09200000 1102780.13232584 16922.16192566
0.09300000 1092997.03960398 18493.51077915
0.09400000 1083198.59027656 23153.37095531
0.09500000 1073390.48895631 21639.55327448
0.09600000 1063574.04404849 21665.00429569
0.09700000 1053753.43783508 18588.21151729
0.09800000 1043928.79206604 21703.28060749
0.09900000 1034102.82680619 23267.31469723
0.10000000 1024276.00095613 17069.56035867
0.10100000 1014451.31245359 20177.43755368
0.10200000 1004631.24775816 20178.01956032
0.10300000 994817.16208955 20174.89299622
0.10400000 985012.03768990 17065.33435582
0.10500000 975218.49104489 24809.55957946
0.10600001 965433.85663819 20143.77836659
0.10700001 955665.85489303 18578.14509336
0.10800001 945912.56653000 21651.93966685
0.10900001 936178.11502661 24715.10339994
0.11000001 926462.30903430 21595.83744010
0.11100001 916768.32945998 16941.87952593
0.11200001 907097.25905482 18450.35911776
0.11300001 897450.87530183 18415.69282822
0.11400001 887831.83283873 16846.60982133
0.11500001 878241.44603601 15281.40188060
0.11600001 868680.68494742 18294.41608650
0.11700001 859152.55759708 16727.70108421
0.11800001 849656.15565035 22749.54463900
0.11900001 840194.38355896 19660.54950132
0.12000001 830768.13839130 16586.28666428
0.12100001 821382.44467478 19540.68927934
0.12200001 812034.46614468 16480.24026681
0.12300001 802728.62232290 17916.90369439
0.12400001 793463.85332496 16365.19274591
0.12500001 784242.07163682 23715.48136378
0.12600001 775067.20663459 16241.53408039
0.12700001 765937.94518259 16176.61016460
0.12800001 756856.07320215 21967.74856002
0.12900001 747823.60562218 16040.81709663
0.13000001 738841.41607973 21777.35176542
0.13100001 729909.88028677 15897.43794201
0.13200001 721031.08255608 17261.48493010
0.13300001 712206.53571019 15746.88724691
0.13400001 703435.57816797 17093.48535536
0.13500001 694721.80116694 15589.55795321
0.13600001 686064.79086100 18328.22175204
0.13700001 677465.53493504 14023.53723441
0.13800001 668923.83902482 16736.47524162
0.13900001 660443.43396003 16643.17532065
0.14000001 652023.14421949 17927.37719578
0.14100001 643665.30894243 15081.07889979
0.14200001 635369.25169616 19080.13952836
0.14300001 627137.49254099 13546.17047783
0.14400001 618967.08927900 16155.04179221
0.14500001 610864.28401680 17391.30698634
0.14600001 602826.03074829 14621.54606556
0.14700001 594855.16327212 15846.94229717
0.14800001 586948.80189166 19677.45951177
0.14900001 579111.12926371 15636.00122784
0.15000001 571341.09113132 16823.13922213
0.15100001 563639.55155899 17991.37533469
0.15200001 556008.52507961 15312.47550324
0.15300001 548446.79326870 13936.03367459
0.15400001 540953.57054659 17608.03955223
0.15500001 533532.16747349 14981.58396968
0.15600001 526180.08547418 13630.69575751
0.15700001 518902.43071658 18446.98228261
0.15800001 511692.68676849 15865.03250207
0.15900001 504557.53155218 14531.25759459
0.16000001 497491.76177089 16820.19725943
0.16100001 490501.25532270 11919.18106698
0.16200001 483582.41187231 14188.30863411
0.16300001 476736.37065930 16418.80138060
0.16400001 469963.79469386 13957.92536136
0.16500001 463263.36222841 12688.78409049
0.16600001 456636.81782138 12582.62810913
0.16700001 450083.06571290 12476.30317063
0.16800001 443602.73947930 12369.86297444
0.16900001 437196.94188522 12263.37479893
0.17000001 430863.03525730 12156.80111382
0.17100001 424603.24292554 16432.14627717
0.17200001 418416.65816093 16286.86918803
0.17300001 412303.03610430 13989.44267566
0.17400001 406263.77159735 14930.19431130
0.17500001 400296.19848774 15851.73020875
0.17600001 394400.52536514 16754.13510879
0.17700001 388580.36521089 12450.11548938
0.17800001 382830.71219597 15418.50766194
0.17900001 377153.36398554 10183.14130860
0.18000001 371549.30083959 13113.83319257
0.18100001 366017.62531559 11990.73797174
0.18200001 360555.23615526 10886.96586999
0.18300001 355165.02458582 12743.32168412
0.18400001 349845.72589039 12620.68515771
0.18500001 344597.31154209 11537.11853547
0.18600001 339419.53115560 14281.07744806
0.18700001 334310.78511273 11313.07750270
0.18800001 329270.10976035 14002.21207911
0.18900001 324302.21434422 12015.39760915
0.19000001 319398.91279373 11896.01306907
0.19100001 314566.54228536 9965.46853047
0.19200001 309800.30826403 11659.33515244
0.19300001 305103.30660682 9766.35730597
0.19400001 300471.33739831 9667.66573763
0.19500001 295906.34099866 10439.57620376
0.19600001 291406.18358353 12055.47438455
0.19700001 286973.08773724 11080.03144115
0.19800001 282603.61126183 10966.43365328
0.19900001 278298.71733973 10018.75429772
0.20000001 274056.26007979 8262.79663191
0.20100001 269878.33706342 10630.50819935
0.20200001 265761.70615090 8901.68876825
0.20300001 261707.51834750 10410.72557192
0.20400001 257714.84549143 9509.67824812
0.20500001 253782.35390421 10194.43763819
0.20600001 249909.64187815 9311.63369652
0.20700001 246096.80383165 9981.68683524
0.20800001 242342.05182527 9876.65078901
0.20900001 238648.06434699 9020.89725875
0.21000001 235008.44872662 8181.81952919
0.21100001 231427.50918804 8095.33465409
0.21200001 227901.51860394 8009.59924999
0.21300001 224431.09325436 8645.08612086
0.21400001 221015.82112907 9266.08873890
0.21500001 217655.94290568 8462.46346026
0.21600001 214347.92800072 8372.43046354
0.21700001 211093.38822200 7593.02953334
0.21800001 207891.16989021 10243.83788067
0.21900001 204739.64727410 10810.25388720
0.22000001 201638.40641764 7352.74483768
0.22100001 198588.99800697 7935.61673558
0.22200001 195588.16617934 8505.15180847
0.22300001 192635.86464162 8414.33496542
0.22400001 189730.95617994 7043.76208125
0.22500001 186875.67935342 7602.10299558
0.22600001 184064.75428477 7520.88621572
0.22700001 181301.11022555 10540.84704698
0.22800001 178582.05411169 6134.29384883
0.22900001 175907.04252644 7282.55190499
0.23000001 173276.70277710 7805.24944572
0.23100001 170690.64372583 7128.04161909
0.23200001 168145.23679305 6464.34393423
0.23300001 165642.94424524 6976.88114158
0.23400001 163180.95169594 6327.34170126
0.23500001 160759.23690728 6259.96498124
0.23600001 158378.05722632 6193.37422076
0.23700001 156036.07343077 5570.48808495
0.23800001 153732.05690089 7164.68285075
0.23900001 151466.19812695 6543.34006858
0.24000001 149237.13688035 5934.41502875
0.24100001 147045.77753088 6939.09056991
0.24200001 144890.38601495 6337.50578407
0.24300001 142769.53276847 5225.36514650
0.24400001 140683.62484029 6204.14814894
0.24500001 138631.41134883 6138.59918491
0.24600001 136612.78375426 6073.80465304
0.24700001 134627.71463512 6510.59658774
0.24800001 132674.62324464 5450.93715387
0.24900001 130751.92842336 6374.15681218
0.25000001 128861.70583135 6307.13649029
0.25100001 127001.12727386 4800.64283807
0.25200001 125172.23507962 5225.31520061
0.25300001 123371.28106949 5170.49063424
0.25400001 121600.02379924 6046.56146949
0.25500001 119855.71737944 6443.44367117
0.25600001 118140.35193936 5920.60401756
0.25700001 116451.38717903 4957.33578676
0.25800001 114789.08508671 4905.51178328
0.25900001 113153.96081440 5736.90608473
0.26000001 111543.60072204 6113.70504485
0.26100001 109958.00818416 4321.34992611
0.26200001 108398.50420733 4703.95331265
0.26300001 106861.51388512 5078.05938010
0.26400001 105349.41009445 4187.63924941
0.26500001 103860.45860613 5387.24224282
0.26600001 102393.95641998 6151.31722301
0.26700001 100949.96664584 6493.10216192
0.26800001 99528.34748933  6023.95351685
0.26900001 98127.36156695  5563.82166413
0.27000001 96748.10754898  5112.65398537
0.27100001 95389.18037407  4670.25449212
0.27200001 94051.31596757  5006.82204247
0.27300001 92733.04887939  4954.72703610
0.27400001 91432.83687108  4525.92563931
0.27500001 90154.00630235  5598.56405633
0.27600001 88891.43981033  3693.43949891
0.27700001 87649.35060910  3654.97809338
0.27800001 86424.31506373  3978.54353225
0.27900001 85217.22480668  3579.12361127
0.28000001 84027.20043434  4250.09599912
0.28100001 82854.46746234  4556.16738139
0.28200001 81698.91153134  3814.93085452
0.28300001 80559.40654130  3431.83088109
0.28400001 79435.61099935  3735.45978405
0.28500001 78328.29584724  4032.34086107
0.28600001 77236.23204554  4322.52593102
0.28700001 76160.12167804  3619.12915344
0.28800001 75097.47510343  3581.02326981
0.28900001 74051.46692131  5153.98234168
0.29000001 73018.92507536  4462.18672257
0.29100001 72001.34731793  3469.02507798
0.29200001 70997.40938710  4680.50443540
0.29300001 70007.61836604  3704.80333930
0.29400001 69030.73496651  3665.53220023
0.29500001 68068.47682867  4231.13671996
0.29600001 67118.09869478  3588.13372608
0.29700001 66181.31548697  3549.96593077
0.29800001 65257.48001377  3219.47792888
0.29900001 64346.62817880  2895.59840512
0.30000001 63447.10056156  3724.02774375
0.30100001 62561.17649018  4251.03214375
0.30200001 61686.15150776  3364.36286250
0.30300001 60823.99931256  2773.57449996
0.30400001 59973.28360855  3018.15564049
0.30500001 59134.80888065  3257.14542735
0.30600001 58306.55804971  3222.02055037
0.30700001 57490.64155727  3984.10164854
0.30800001 56685.61810155  3678.32993276
0.30900001 55891.96098808  2598.97630899
0.31000001 55109.29931578  3599.18850872
0.31100001 54336.96566860  2797.26712506
0.31200001 53576.31954022  2766.94915366
0.31300001 52825.50946624  2736.88977503
0.31400001 52086.64013487  2707.20324919
0.31500001 51356.79826783  3164.60605910
0.31600002 50638.61197852  2648.65272494
0.31700002 49930.00613695  2619.82754605
0.31800002 49231.33717634  2591.29155497
0.31900002 48543.58011886  2330.09195603
0.32000002 47865.90144316  3918.06354815
0.32100002 47197.66439396  2963.54148762
0.32200002 46540.41319629  3382.32468919
0.32300002 45891.38333169  3345.48200329
0.32400002 45253.28994606  2426.70778827
0.32500002 44624.61063715  3273.21534523
0.32600002 44005.73509128  2158.48140844
0.32700002 43396.65252374  2775.65002685
0.32800002 42797.85842637  2323.28185469
0.32900002 42206.64679965  2924.92076172
0.33000002 41626.43167533  2480.10291666
0.33100002 41054.46156449  2248.96351100
0.33200002 40493.35503466  2629.43613369
0.33300002 39940.79592812  2401.24076491
0.33400002 39398.11626209  2573.68206670
0.33500002 38864.25280521  2350.51012097
0.33600002 38339.30606070  2519.46761709
0.33700002 37823.41998413  2301.17698081
0.33800002 37317.69509772  3036.16781693
0.33900002 36820.10129859  3755.65051032
0.34000002 36331.81428498  2415.88410529
0.34100002 35852.46675397  2391.00112106
0.34200002 35382.97022162  2548.63546576
0.34300002 34921.63085254  1801.95623733
0.34400002 34469.97917415  1783.82150674
0.34500002 34026.70682621  2119.18340150
0.34600002 33592.91205435  2273.06450181
0.34700002 33166.90420173  1731.31248133
0.34800002 32750.51111343  2400.28507318
0.34900002 32342.41052373  2207.36962279
0.35000002 31943.39493513  1850.00180529
0.35100002 31553.75197453  1832.64200148
0.35200002 31171.19060496  1815.56608278
0.35300002 30798.48913514  2453.09977580
0.35400002 30433.85473764  1620.60284154
0.35500002 30078.09683265  1927.40453633
0.35600002 29730.44396310  1592.06534963
0.35700002 29391.16990874  1736.13648874
0.35800002 29060.66913760  2190.88395006
0.35900002 28739.07996432  2172.67454821
0.36000002 28425.45985277  1847.08646872
0.36100002 28119.57408883  1679.58223988
0.36200002 27823.44929585  2120.98164029
0.36300002 27534.18152255  2405.38621175
0.36400002 27253.53499717  2387.40977884
0.36500002 26980.36098542  2221.83283239
0.36600002 26716.06128691  2059.00694091
0.36700002 26459.24054501  1752.66017672
0.36800002 26211.29266681  1450.79511783
0.36900002 25970.93936441  2017.94208420
0.37000002 25737.88728219  1718.77619412
0.37100002 25512.41248998  1423.59268438
0.37200002 25295.65549316  1839.87958945
0.37300002 25086.05777780  1688.79348960
0.37400002 24883.97514313  1679.66840173
0.37500002 24689.68372712  2227.99716508
0.37600002 24502.95705277  1662.77074437
0.37700002 24323.44868438  1654.96752688
0.37800002 24151.32172640  1647.60324623
0.37900002 23987.30949797  1777.45971800
0.38000002 23829.71598436  2042.80249953
0.38100002 23678.54549901  1763.81493778
0.38200002 23535.63996518  1622.54709607
0.38300002 23398.94303467  1617.33501918
0.38400002 23269.62045191  1478.20270924
0.38500002 23146.40618773  2010.26547264
0.38600002 23031.02169554  1470.64596004
0.38700002 22921.29158165  1467.42115658
0.38800002 22818.18953444  1597.72970689
0.38900002 22721.74247584  1595.06639737
0.39000002 22632.05986035  1327.37037370
0.39100002 22547.97345310  1856.14926260
0.39200002 22470.77020292  1589.58235946
0.39300002 22398.92656432  1720.90960947
0.39400002 22334.48868657  1720.31407259
0.39500002 22274.43033459  1455.41134702
0.39600002 22220.74951418  1720.21940514
0.39700002 22172.07283649  2117.87649768
0.39800002 22130.16015975  1986.73522247
0.39900002 22092.81097622  1325.56872138
0.40000002 22061.11019343  2255.85892971
0.40100002 22034.48128311  1594.41514119
0.40200002 22013.52489795  1330.71764313
0.40300002 21997.33418230  1466.34236607
0.40400002 21986.09052709  1469.22056908
0.40500002 21979.35630199  2275.52286576
0.40600002 21978.22306239  2012.65587230
0.40700002 21981.13935307  1748.81952979
0.40800002 21988.48048581  1618.79201007
0.40900002 21999.94082739  1758.89535249
0.41000002 22016.38864292  1493.04146656
0.41100002 22036.63704861  1770.42350437
0.41200002 22060.17243066  1366.62774683
0.41300002 22089.05541978  1920.42256919
0.41400002 22120.87062619  1377.02426173
0.41500002 22156.38056044  1520.81403373
0.41600002 22194.64476950  1527.10260573
0.41700002 22237.75753410  1533.73820980
0.41800002 22284.43160857  1680.69191156
0.41900002 22332.70867605  1406.96071326
0.42000002 22384.65196909  2261.74534213
0.42100002 22440.21269424  1562.51208394
0.42200002 22498.34446984  1713.02402911
0.42300002 22558.85096198  1578.21728808
0.42400002 22621.86681305  2019.00170874
0.42500002 22687.92172759  2029.66157393
0.42600002 22755.10351956  1894.70378434
0.42700002 22825.79464330  1758.49930265
0.42800002 22897.90383926  1620.82820007
0.42900002 22972.87156076  1926.27537165
0.43000002 23049.53749165  1490.15266945
0.43100002 23126.46916882  1948.17385510
0.43200002 23206.54525690  2411.62429738
0.43300002 23287.29658036  1667.60338714
0.43400002 23369.99046938  1524.89195039
0.43500002 23453.51638880  2300.79006677
0.43600002 23538.90736700  1851.57054123
0.43700002 23624.70950871  1552.14348828
0.43800002 23710.92971995  2029.77423487
0.43900002 23799.17770544  2041.96954389
0.44000002 23887.36766486  1896.17933510
0.44100002 23976.65729846  1748.61769964
0.44200002 24066.19581520  1919.03854525
0.44300002 24156.31630010  2091.45396438
0.44400002 24246.58405353  2589.53529964
0.44500002 24336.52683941  1953.73646726
0.44600002 24426.48521927  1801.57550273
0.44700002 24517.52462186  2141.85105247
0.44800002 24607.27928611  2651.68054154
0.44900002 24697.44473174  1833.78535824
0.45000002 24787.53612845  1844.56458842
0.45100002 24876.32117705  2361.26051803
0.45200002 24965.10305551  2374.93036622
0.45300002 25052.89795950  2388.54340466
0.45400002 25140.24102610  1887.40368448
0.45500002 25227.04370208  2588.29480650
0.45600002 25312.53585961  2255.72674004
0.45700002 25397.41127693  2093.76268490
0.45800002 25480.82128883  2456.09648043
0.45900002 25563.05741929  2293.00635919
0.46000002 25644.59783350  2305.32123150
0.46100002 25723.97831182  1960.93895965
0.46200002 25802.69053452  2150.39633106
0.46300002 25879.77982039  2341.60258913
0.46400002 25954.84069101  1810.35022400
0.46500002 26029.38864099  2183.34522269
0.46600002 26101.15287002  2559.74018328
0.46700002 26171.25057554  2755.83281622
0.46800002 26240.30265998  2584.40753147
0.46900002 26306.70874782  2040.08536009
0.47000002 26371.41632818  2049.45471708
0.47100002 26434.25793462  2807.31832571
0.47200002 26495.15554421  2255.79764995
0.47300002 26553.90163549  2265.57899492
0.47400002 26609.88711945  2464.74091126
0.47500002 26664.13737426  3236.49314789
0.47600002 26716.79722039  2293.90431807
0.47700002 26766.02298378  3070.59830224
