# SAXS profile: number of points = 501, q_min = 0, q_max = 0.5, delta_q = 0.001
#    q    intensity    error
0.00000000 1664650.74656090 274.66737318
0.00100000 1664569.41898350 499.37083755
0.00200000 1664325.37824771 823.84108832
0.00300000 1663918.84020043 1397.69187556
0.00400000 1663349.67023725 1497.01476010
0.00500000 1662618.39995380 1795.62794302
0.00600000 1661724.90598574 2791.69795571
0.00700000 1660669.77412661 2590.64495531
0.00800000 1659452.78971421 4032.47044926
0.00900000 1658075.20132235 3481.95807162
0.01000000 1656536.39322713 4373.25626695
0.01100000 1654837.65486790 2978.70790845
0.01200000 1652978.85592078 3545.63980140
0.01300000 1650961.20802098 3467.01868976
0.01400000 1648784.65123915 5193.67188164
0.01500000 1646450.69201970 5927.22275520
0.01600000 1643958.64904072 4611.30421670
0.01700000 1641310.90368908 5317.84756650
0.01800000 1638507.15431310 7471.59295987
0.01900000 1635548.32254803 5397.30970795
0.02000000 1632435.45024071 6684.82347113
0.02100000 1629170.49606482 6451.51545692
0.02200000 1625752.10283102 6169.72951055
0.02300000 1622183.55649241 6423.84717611
0.02400000 1618464.15502812 8496.93720134
0.02500000 1614596.65310468 7556.31268163
0.02600000 1610580.88044053 9131.99400978
0.02700000 1606419.06502080 9445.74453495
0.02800000 1602110.98784594 7666.10142841
0.02900000 1597659.18346264 7908.41332125
0.03000000 1593065.11014879 10370.85434377
0.03100000 1588328.95428064 9911.17313076
0.03200000 1583452.11543262 13324.75016508
0.03300000 1578438.46202371 9660.04383292
0.03400000 1573286.21424450 10737.67890766
0.03500000 1567998.46961189 9313.91133959
0.03600000 1562576.60434428 10406.76066587
0.03700000 1557022.11462160 11537.53440293
0.03800000 1551336.73402034 10890.38437683
0.03900000 1545522.54218527 12982.38995557
0.04000000 1539579.38580852 13255.77912607
0.04100000 1533511.11624880 10627.23252835
0.04200000 1527318.64109359 9851.20569208
0.04300000 1521002.75239020 10038.61863175
0.04400000 1514567.16356051 12267.99459459
0.04500000 1508013.13512759 12486.34933903
0.04600000 1501340.54955888 14818.23191300
0.04700000 1494553.81765685 13989.02438387
0.04800000 1487653.16604290 12027.67640708
0.04900000 1480642.52547689 13325.78334957
0.05000000 1473521.36156601 13526.92672907
0.05100000 1466294.19057307 16011.93330696
0.05200000 1458959.42838202 12758.60079577
0.05300000 1451523.01902477 11757.33700220
0.05400000 1443984.98391998 15486.73967475
0.05500000 1436347.71937528 14478.38568671
0.05600000 1428612.56240721 12214.63797857
0.05700000 1420784.28085601 13596.90620248
0.05800000 1412862.04285663 15004.59559574
0.05900000 1404848.05832820 13907.99642703
0.06000000 1396746.61829857 15336.27858541
0.06100000 1388558.77748850 15496.31668094
0.06200000 1380286.57811375 18261.19228204
0.06300000 1371933.52361731 19755.84366378
0.06400000 1363498.09718812 18611.74989703
0.06500000 1354986.61611648 18780.11537787
0.06600000 1346399.90631578 14884.45166074
0.06700000 1337739.16656399 20467.41020628
0.06800000 1329008.04695213 15130.75732281
0.06900000 1320209.07419926 19407.07429935
0.07000000 1311342.73798553 15362.38089490
0.07100000 1302412.52353755 16879.26709563
0.07200000 1293420.35779333 19828.13501386
0.07300000 1284369.24053954 25661.69862837
0.07400000 1275260.96498377 14346.68652841
0.07500000 1266097.91435471 18763.57197023
0.07600000 1256880.73766303 15968.67052063
0.07700000 1247614.65424606 18976.21978085
0.07800000 1238300.04762625 24945.55562928
0.07900000 1228939.01242912 16221.99572494
0.08000000 1219535.60263405 16299.09409381
0.08100000 1210090.80454046 16372.52935360
0.08200000 1200606.05771870 14947.54612001
0.08300000 1191085.25833219 16508.44245526
0.08400000 1181529.68870565 24103.20678097
0.08500000 1171941.98871076 19653.46807331
0.08600000 1162324.05437986 24269.32739493
0.08700000 1152679.45174831 22823.05421633
0.08800000 1143007.58121127 22888.72788870
0.08900000 1133314.21340546 22949.61389940
0.09000000 1123598.78937681 15337.12419546
0.09100000 1113864.32564984 18445.59409936
0.09200000 1104112.52164843 16942.60744077
0.09300000 1094348.68577471 16973.34891398
0.09400000 1084569.33025368 20091.64778721
0.09500000 1074780.02646665 17024.51641943
0.09600000 1064982.42746310 24792.79207680
0.09700000 1055180.46376600 17062.26890124
0.09800000 1045374.09608973 15523.80605683
0.09900000 1035566.27827072 21746.89286628
0.10000000 1025757.40555767 18648.27051001
0.10100000 1015950.31629511 15544.04057038
0.10200000 1006147.87907426 20208.48110174
0.10300000 996350.95599522 15543.07564468
0.10400000 986562.72755720 23307.54553504
0.10500000 976785.91451286 17083.98644862
0.10600001 967017.90766798 20176.82959288
0.10700001 957265.93664496 17058.47979375
0.10800001 947528.74059220 18590.51476532
0.10900001 937809.88195557 17021.25015861
0.11000001 928109.44005200 20088.92977550
0.11100001 918430.54562600 15429.63389284
0.11200001 908774.12635193 18484.46660019
0.11300001 899142.37395493 21525.46944592
0.11400001 889537.32298784 23016.77931604
0.11500001 879960.78959903 18373.58215200
0.11600001 870413.44196404 24441.21060132
0.11700001 860898.44121083 16761.69343977
0.11800001 851414.89144098 16717.53218081
0.11900001 841965.58089336 19701.99552090
0.12000001 832551.39042042 16621.88929272
0.12100001 823177.33687008 15064.14597437
0.12200001 813840.85736359 18018.43743090
0.12300001 804545.91355714 20950.37657609
0.12400001 795291.92071584 23858.75874564
0.12500001 786080.44147302 16342.61314830
0.12600001 776915.27368222 16280.26032719
0.12700001 767795.43230632 14741.67299500
0.12800001 758722.72193775 19085.67096984
0.12900001 749698.76049153 17542.95182234
0.13000001 740724.80405162 16010.76739424
0.13100001 731801.17067577 15938.63024863
0.13200001 722929.75828080 18749.18416486
0.13300001 714112.32955724 15789.02435085
0.13400001 705348.00409103 15711.62753186
0.13500001 696640.39228088 17053.75760709
0.13600001 687988.94169270 18379.62544393
0.13700001 679395.11467886 15469.82749069
0.13800001 670858.29805809 18183.61502633
0.13900001 662382.56416791 18083.04485455
0.14000001 653965.99575928 16597.65775513
0.14100001 645611.69177476 16501.83562004
0.14200001 637318.84381932 13670.48984470
0.14300001 629089.75457902 17664.84114179
0.14400001 620921.51559515 16206.05232147
0.14500001 612820.40254892 14762.84419380
0.14600001 604783.54326175 16002.57330962
0.14700001 596813.66479729 17224.04317862
0.14800001 588907.64809382 17110.71252263
0.14900001 581069.89632143 15688.88794089
0.15000001 573299.42203073 15582.27902601
0.15100001 565597.07692070 18053.85954718
0.15200001 557964.58054759 14085.81650059
0.15300001 550401.00384462 13985.69016766
0.15400001 542905.33283089 12622.54958399
0.15500001 535481.41313713 12530.26565875
0.15600001 528125.97358760 17412.31417096
0.15700001 520844.45284277 18516.02117246
0.15800001 513630.68304222 13475.10160562
0.15900001 506490.93084898 15802.51778838
0.16000001 499420.26036885 12060.99985722
0.16100001 492424.12161562 15555.67873613
0.16200001 485499.53425619 13057.51059021
0.16300001 478647.04198333 16484.60490411
0.16400001 471867.64048389 14014.46958399
0.16500001 465159.83707872 15057.22463711
0.16600001 458525.76108731 11486.07085753
0.16700001 451963.66344037 12528.43334209
0.16800001 445474.76782232 16939.17884625
0.16900001 439059.79022791 19033.24280509
0.17000001 432716.55576316 12209.09819737
0.17100001 426446.94829576 14303.03132125
0.17200001 420249.94157272 13086.58379856
0.17300001 414125.78288782 11889.55178819
0.17400001 408075.31317975 12854.37297222
0.17500001 402096.08711651 13799.93836158
0.17600001 396188.53196834 15778.20903083
0.17700001 390355.88413381 15633.75389795
0.17800001 384593.58242568 12391.60581104
0.17900001 378902.96309439 12276.45658412
0.18000001 373285.36838551 12161.63787646
0.18100001 367739.60097957 13051.07905525
0.18200001 362262.85909202 10938.52754700
0.18300001 356857.86843057 11819.13316075
0.18400001 351523.40836230 10730.25254716
0.18500001 346259.62615745 10626.70842880
0.18600001 341065.86332652 15307.03666925
0.18700001 335940.99785602 9473.53658712
0.18800001 330883.80422745 10318.61192235
0.18900001 325898.93314303 13932.18005012
0.19000001 320978.28051488 15633.24789113
0.19100001 316128.31248273 11835.84457860
0.19200001 311344.18970214 9013.41471777
0.19300001 306628.99489514 16953.51792885
0.19400001 301978.33040656 11482.72655631
0.19500001 297394.56645339 11366.42086697
0.19600001 292875.17367155 9519.90797007
0.19700001 288422.63519221 8566.15267002
0.19800001 284033.33516340 11869.75363743
0.19900001 279708.35976252 10908.62654628
0.20000001 275445.52457027 9965.61954994
0.20100001 271246.95849225 9862.53987690
0.20200001 267109.48907381 12200.22649007
0.20300001 263034.07444041 9658.61166996
0.20400001 259020.08921734 9557.84174388
0.20500001 255065.85075514 10245.99570913
0.20600001 251171.32827848 8578.75712285
0.20700001 247336.36117760 13118.72121697
0.20800001 243559.37029452 8399.14528164
0.20900001 239842.78582521 10577.06735488
0.21000001 236180.46822039 7475.11217254
0.21100001 232576.50172846 7395.93310460
0.21200001 229027.38466719 8049.16781465
0.21300001 225533.58007497 10135.47956773
0.21400001 222094.85008526 9311.32703003
0.21500001 218711.42815420 7794.87566794
0.21600001 215379.48748688 8412.72317898
0.21700001 212101.06604706 9016.41674395
0.21800001 208874.71402496 10978.45548822
0.21900001 205698.97616841 6788.06653451
0.22000001 202573.31910744 7386.83643052
0.22100001 199499.38400654 7307.66278169
0.22200001 196474.07025532 7886.46955296
0.22300001 193497.06255987 7801.80193133
0.22400001 190567.37112747 6431.64907968
0.22500001 187687.11529350 6998.85286025
0.22600001 184851.39277448 6294.19022161
0.22700001 182062.70055999 8094.50804968
0.22800001 179318.63096421 6775.55479140
0.22900001 176618.43787349 6702.67003427
0.23000001 173962.94054950 7233.37941013
0.23100001 171351.58305809 7751.94598416
0.23200001 168781.08013451 7078.67883562
0.23300001 166253.57162032 6419.05070385
0.23400001 163766.28802559 8081.86669630
0.23500001 161319.37544545 7423.91800912
0.23600001 158912.85350737 5649.35220938
0.23700001 156545.58243649 6706.41306878
0.23800001 154216.41049524 6081.52443553
0.23900001 151925.53742304 6563.18352711
0.24000001 149671.21242194 5951.67604347
0.24100001 147454.84991923 5887.87243578
0.24200001 145274.39982216 6883.82776119
0.24300001 143128.60937383 5238.50735088
0.24400001 141017.81573544 6218.88596811
0.24500001 138940.69005334 6152.29404659
0.24600001 136897.49405952 6086.46287381
0.24700001 134887.72030935 7526.73514932
0.24800001 132910.08297889 6949.86856774
0.24900001 130962.91842545 6384.44257527
0.25000001 129048.38641910 5344.53917639
0.25100001 127163.73232811 5768.14717129
0.25200001 125310.77898564 7608.87085998
0.25300001 123485.83709471 5175.29167748
0.25400001 121691.02139967 5585.61814651
0.25500001 119922.94659498 5526.04964054
0.25600001 118184.20456574 6834.00195235
0.25700001 116471.95249898 4958.21125247
0.25800001 114786.57634168 6243.24218262
0.25900001 113128.49121610 6176.81591265
0.26000001 111495.29316956 6111.05730777
0.26100001 109887.26536648 5182.28367989
0.26200001 108305.41450914 5981.70832638
0.26300001 106746.38016614 5918.01959644
0.26400001 105212.33474475 5018.62860480
0.26500001 103701.58997510 5379.00172654
0.26600001 102213.56418781 5731.11481520
0.26700001 100748.40847126 5265.11207585
0.26800001 99305.79092389  4407.68773873
0.26900001 97884.00287757  5550.02322579
0.27000001 96484.33069146  5098.71469667
0.27100001 95105.15760463  5044.37779806
0.27200001 93747.26724397  5374.53108544
0.27300001 92409.21127120  4557.62251558
0.27400001 91089.65042431  4133.19308361
0.27500001 89791.44832221  4832.57597740
0.27600001 88510.04027231  5148.62928630
0.27700001 87249.39869610  5821.28015651
0.27800001 86005.89989588  3959.28178909
0.27900001 84780.88665642  4272.95688971
0.28000001 83573.07235683  4227.12619987
0.28100001 82382.94025949  5227.19780686
0.28200001 81209.99804026  4136.83749597
0.28300001 80053.89740798  3410.29619099
0.28400001 78913.48745033  4048.26209781
0.28500001 77789.91814534  4672.06270494
0.28600001 76682.01537267  4291.50919346
0.28700001 75590.31816447  4571.70265898
0.28800001 74512.43482391  3876.13704301
0.28900001 73451.46990923  4473.19472920
0.29000001 72404.30317088  3792.53757961
0.29100001 71372.53203406  5627.01069192
0.29200001 70354.68304823  3401.29731297
0.29300001 69351.26518701  3975.90822137
0.29400001 68361.15217154  5747.46414089
0.29500001 67385.98068512  3590.32522086
0.29600001 66423.12416282  3550.98038584
0.29700001 65474.03424109  3804.69630986
0.29800001 64538.39264824  3184.00175203
0.29900001 63615.98297344  3435.26324319
0.30000001 62705.36452638  3114.26207663
0.30100001 61808.55014991  3359.91294521
0.30200001 60923.16353789  3322.74949666
0.30300001 60050.76814050  3012.14667253
0.30400001 59190.37662490  3520.34781643
0.30500001 58342.47256491  3749.08746451
0.30600001 57505.20381154  3177.73771307
0.30700001 56680.61600472  3666.10241675
0.30800001 55867.29880878  3625.22919133
0.30900001 55065.63780694  3072.66273510
0.31000001 54275.34031441  3038.33369465
0.31100001 53495.78056520  3254.68344368
0.31200001 52728.14289692  2970.70371146
0.31300001 51970.81489508  3671.73824618
0.31400001 51225.78898152  2904.50237277
0.31500001 50490.03767443  2393.22789908
0.31600002 49766.44355931  3549.59175493
0.31700002 49052.60395514  3275.73304722
0.31800002 48349.17940950  2313.50834429
0.31900002 47656.92196496  2745.03883516
0.32000002 46975.09215723  3166.59111226
0.32100002 46303.13517631  2460.08568840
0.32200002 45642.44702651  2432.51432946
0.32300002 44990.29363745  2842.48688661
0.32400002 44349.52980206  2810.65158429
0.32500002 43718.50074617  2137.83478772
0.32600002 43097.45861861  2536.71653441
0.32700002 42486.61385312  2717.44395072
0.32800002 41886.48225444  2687.22739628
0.32900002 41294.18764964  2861.68733963
0.33000002 40713.07815445  2829.96619653
0.33100002 40140.67633481  2198.90635375
0.33200002 39579.46811419  2174.69397852
0.33300002 39027.09193430  2541.83461805
0.33400002 38484.84270992  2320.63612530
0.33500002 37951.86194627  2104.05132594
0.33600002 37428.00283148  2459.58132255
0.33700002 36913.63515320  3181.58636452
0.33800002 36409.47731856  2221.70641119
0.33900002 35913.84798086  1831.60633376
0.34000002 35427.82475317  2355.77331853
0.34100002 34951.12959882  2510.19024667
0.34200002 34484.45436424  2306.49283939
0.34300002 34026.17063584  1931.32553676
0.34400002 33577.92456579  2085.18921429
0.34500002 33138.24853964  2407.82525293
0.34600002 32708.42820374  2383.46327609
0.34700002 32286.57636781  2190.96717609
0.34800002 31874.60036351  2002.36248967
0.34900002 31471.18877976  2643.57998270
0.35000002 31077.09564139  1963.45099562
0.35100002 30692.64252690  1944.68592261
0.35200002 30315.46242821  1765.72419276
0.35300002 29948.45874228  2385.39485180
0.35400002 29589.61472972  1890.77647078
0.35500002 29240.00566527  1561.41637648
0.35600002 28898.49670122  2476.02331464
0.35700002 28565.76397154  1687.37975772
0.35800002 28241.97551252  1520.83045338
0.35900002 27927.33109355  1658.88354553
0.36000002 27620.77228269  1495.66488995
0.36100002 27322.16858329  2077.03135408
0.36200002 27033.54011411  1619.17396183
0.36300002 26751.82987703  1606.71497852
0.36400002 26479.14051355  1594.70631297
0.36500002 26213.81566880  1870.88011290
0.36600002 25957.74561847  1571.87136038
0.36700002 25709.23850613  1419.15003276
0.36800002 25469.67566250  1691.69593764
0.36900002 25237.91762323  1680.84539333
0.37000002 25013.57351231  1670.40651828
0.37100002 24797.02722350  1798.77644000
0.37200002 24589.23054022  1513.34426528
0.37300002 24388.84547478  2189.14287352
0.37400002 24195.90347231  1497.12159827
0.37500002 24010.95385297  1489.63964760
0.37600002 23833.73347555  2426.03584540
0.37700002 23663.83057751  1475.91318304
0.37800002 23501.31630294  1469.65488462
0.37900002 23347.00998553  1730.01352188
0.38000002 23199.20995750  2651.66982376
0.38100002 23057.93977842  1453.34201308
0.38200002 22925.05704179  1712.15796628
0.38300002 22798.37404656  1575.82368875
0.38400002 22679.17380674  1833.61128914
0.38500002 22566.07715729  1829.20630103
0.38600002 22460.93444172  1434.24303672
0.38700002 22361.40408020  1691.86391286
0.38800002 22268.62603757  1819.12414719
0.38900002 22182.49288674  1686.97866396
0.39000002 22103.17885071  1685.25695131
0.39100002 22029.39943241  1554.39449759
0.39200002 21962.59447452  1942.04250842
0.39300002 21901.18318760  1294.35998771
0.39400002 21847.10682264  2847.77050925
0.39500002 21797.59330718  1294.77710379
0.39600002 21754.18584914  1425.00801156
0.39700002 21715.99977889  1426.08977305
0.39800002 21684.50727150  2076.50851470
0.39900002 21657.45951047  1949.17144829
0.40000002 21636.17096288  1561.69889409
0.40100002 21619.82604866  1825.14580150
0.40200002 21609.12535534  1828.78036547
0.40300002 21603.25849056  1701.90478452
0.40400002 21602.21647293  1837.26859807
0.40500002 21605.61909693  2236.82985109
0.40600002 21614.71470226  1451.53623461
0.40700002 21627.59692334  1853.05259219
0.40800002 21645.00556826  1460.71326998
0.40900002 21666.40621754  1865.47766372
0.41000002 21692.68716717  1471.08964994
0.41100002 21722.83088656  2282.20072108
0.41200002 21756.04247868  1617.34427450
0.41300002 21794.60333032  1624.13391713
0.41400002 21835.98719702  1631.14832091
0.41500002 21881.01850031  1365.37561912
0.41600002 21928.63600773  2331.78162037
0.41700002 21981.07276702  1791.67732614
0.41800002 22037.03511162  1800.53603911
0.41900002 22094.35067571  1948.72182194
0.42000002 22155.27546321  1539.01628298
0.42100002 22219.74939754  1969.11428492
0.42200002 22286.66277859  1555.49770234
0.42300002 22355.82233974  2132.74555227
0.42400002 22427.40583527  2144.62078462
0.42500002 22501.92895707  1869.23532704
0.42600002 22577.43169914  1735.30148263
0.42700002 22656.31775446  1599.98923564
0.42800002 22736.49017476  1902.02117570
0.42900002 22819.41396306  1619.03749740
0.43000002 22903.83075715  1628.80600148
0.43100002 22988.49417735  1638.61994261
0.43200002 23076.04810163  1648.66833475
0.43300002 23164.18063670  1809.58587709
0.43400002 23254.23877400  1820.80698229
0.43500002 23344.76519930  1984.77203130
0.43600002 23437.17924712  1689.93788970
0.43700002 23529.77259895  1545.90613301
0.43800002 23622.66967452  2177.77402050
0.43900002 23717.46281601  2034.95840605
0.44000002 23812.04733420  1890.20040696
0.44100002 23907.53657221  2377.60462478
0.44200002 24003.17242702  2233.01523671
0.44300002 24099.23687905  2247.01295309
0.44400002 24195.26189544  1776.53718886
0.44500002 24290.79105573  1787.55939851
0.44600002 24386.22389494  1798.60602861
0.44700002 24482.58103089  1809.75247557
0.44800002 24577.48724663  2151.88199786
0.44900002 24672.53920894  2498.09471329
0.45000002 24767.54866533  2010.62969594
0.45100002 24861.02599906  2359.80869967
0.45200002 24954.33325358  2034.77642993
0.45300002 25046.44429942  2729.06070020
0.45400002 25137.98770302  2401.93483886
0.45500002 25228.85148457  1898.21887566
0.45600002 25318.13846413  1909.11432137
0.45700002 25406.72975983  2792.70786756
0.45800002 25493.68770967  1755.24048200
0.45900002 25579.33872616  1764.97445575
0.46000002 25664.14363885  2129.61074008
0.46100002 25746.58145182  2497.93345084
0.46200002 25828.23670497  2152.52534901
0.46300002 25908.07668233  1983.52244481
0.46400002 25985.71151671  2175.00415703
0.46500002 26062.77381761  2003.96677382
0.46600002 26136.86715941  2013.97639442
0.46700002 26209.13512461  2207.85764754
0.46800002 26280.20232148  2218.57478513
0.46900002 26348.48074404  2786.35197075
0.47000002 26414.82740382  2426.06993789
0.47100002 26479.30253522  1874.73470835
0.47200002 26541.63236802  3013.00624922
0.47300002 26601.65554662  2269.65335881
0.47400002 26658.74408591  1899.43560615
0.47500002 26714.00061402  2098.11770767
0.47600002 26767.54740550  2298.26172917
0.47700002 26817.44929854  2884.21680876
