# SAXS profile: number of points = 501, q_min = 0, q_max = 0.5, delta_q = 0.001
#    q    intensity    error
0.00000000 1682732.95097188 403.85590823
0.00100000 1682651.11078139 807.67255236
0.00200000 1682405.53940392 1211.33202673
0.00300000 1681996.44531704 1110.11769346
0.00400000 1681423.68747531 1513.28137623
0.00500000 1680687.81732750 1512.61909547
0.00600000 1679788.70401921 2469.28949544
0.00700000 1678726.91621150 3021.70857476
0.00800000 1677502.27921990 2491.09098982
0.00900000 1676116.01804709 2765.59154800
0.01000000 1674567.51073253 3315.64381442
0.01100000 1672858.06920585 4817.83144908
0.01200000 1670987.53964830 3910.11101421
0.01300000 1668957.15167028 3855.29119040
0.01400000 1666766.87782543 4875.29333377
0.01500000 1664418.14318418 5592.44521012
0.01600000 1661910.35873438 5509.23308549
0.01700000 1659245.86030031 5375.95682853
0.01800000 1656424.36582757 6137.05255154
0.01900000 1653446.80926909 5456.37471679
0.02000000 1650314.19231297 8837.43289960
0.02100000 1647028.52969073 5978.71383384
0.02200000 1643588.45115107 9072.60866254
0.02300000 1639997.18776378 8855.98521703
0.02400000 1636254.11913945 9203.92983984
0.02500000 1632362.04924696 10822.56088078
0.02600000 1628320.63061896 7254.16874120
0.02700000 1624132.24457917 7503.49131362
0.02800000 1619796.64477417 11273.78516464
0.02900000 1615316.45454111 8722.70925502
0.03000000 1610692.87657270 8238.69444236
0.03100000 1605926.27938731 11562.66974362
0.03200000 1601018.19771812 7925.04044372
0.03300000 1595972.37260383 10581.29731817
0.03400000 1590786.88550075 9186.79468765
0.03500000 1585465.02505183 8561.51153063
0.03600000 1580008.13058197 11399.75918897
0.03700000 1574417.76776662 9871.59986043
0.03800000 1568695.54972771 9176.86939061
0.03900000 1562843.60600748 12190.18069139
0.04000000 1556861.83353315 11489.64086389
0.04100000 1550754.10425437 11723.70157175
0.04200000 1544521.21062294 12950.81095190
0.04300000 1538164.14034576 12182.26055701
0.04400000 1531686.42143848 12406.66058984
0.04500000 1525089.39079440 14732.36419961
0.04600000 1518372.98346532 10704.53003105
0.04700000 1511541.61985700 13059.72020294
0.04800000 1504595.47485882 11058.77725476
0.04900000 1497538.49881640 15724.15496949
0.05000000 1490370.21168908 12541.46591537
0.05100000 1483095.13011859 12724.95680920
0.05200000 1475711.55389885 12905.09814024
0.05300000 1468225.64439457 13081.89110141
0.05400000 1460637.22418815 13255.28342765
0.05500000 1452948.89456465 14645.72554042
0.05600000 1445161.88922076 12356.13472943
0.05700000 1437280.91405916 15005.21344320
0.05800000 1429305.15765970 18974.02685388
0.05900000 1421237.11602544 16628.47503414
0.06000000 1413080.72692656 18101.56495761
0.06100000 1404837.42476216 13064.98866083
0.06200000 1396508.82655233 18475.81263891
0.06300000 1388098.75490176 18656.04813815
0.06400000 1379605.53440964 14796.27004852
0.06500000 1371035.75690498 20359.88194243
0.06600000 1362389.74669494 17799.62287339
0.06700000 1353669.43366443 15188.17175651
0.06800000 1344877.90751035 15311.43569372
0.06900000 1336017.86196259 18236.64466961
0.07000000 1327089.77081120 15546.85739309
0.07100000 1318097.26883143 19929.63163819
0.07200000 1309041.99611257 17200.81263472
0.07300000 1299927.36722098 14429.19445224
0.07400000 1290754.98767109 17425.19315018
0.07500000 1281527.18106023 16070.35160375
0.07600000 1272244.55640159 17633.31037839
0.07700000 1262912.64521620 17731.29437023
0.07800000 1253531.64805172 14854.35072603
0.07900000 1244103.43891340 19408.01455736
0.08000000 1234632.56379150 28501.49407216
0.08100000 1225119.67097433 15068.97265999
0.08200000 1215566.45771693 15133.80310873
0.08300000 1205976.30363008 16714.83235277
0.08400000 1196351.31001716 18304.17590244
0.08500000 1186693.34614637 18370.01386073
0.08600000 1177004.95942728 26111.85625089
0.08700000 1167289.41859778 16949.04315393
0.08800000 1157546.07482555 21634.53715453
0.08900000 1147780.58518385 18594.04635334
0.09000000 1137993.00832568 18640.32635201
0.09100000 1128185.86623237 21796.55195964
0.09200000 1118360.85353273 23401.70195974
0.09300000 1108523.34792900 17193.19793432
0.09400000 1098669.96779374 18787.25733223
0.09500000 1088806.45715184 17246.69509193
0.09600000 1078934.16358483 17268.34209992
0.09700000 1069057.32285880 18858.17206180
0.09800000 1059175.52556157 17301.63302353
0.09900000 1049292.02581106 18887.25735272
0.10000000 1039407.10502565 15747.01838168
0.10100000 1029523.67938893 20477.22694613
0.10200000 1019644.50735341 18904.21005552
0.10300000 1009770.53793656 20478.14747266
0.10400000 999905.40751769 22047.91527301
0.10500000 990050.98113119 15741.81134063
0.10600001 980205.18480186 18878.75274760
0.10700001 970375.43058968 26724.14061602
0.10800001 960560.00559905 18846.18819679
0.10900001 950762.63906582 23531.37642440
0.11000001 940983.63235998 23501.06732437
0.11100001 931225.99128416 18773.51686802
0.11200001 921490.48477897 18743.11734278
0.11300001 911779.75348946 18709.72142247
0.11400001 902095.20257824 18673.37157259
0.11500001 892439.39732107 21739.82474243
0.11600001 882812.21355318 20141.36160070
0.11700001 873217.61384402 17001.54774223
0.11800001 863653.99855816 16957.84706038
0.11900001 854124.61101688 18449.09246695
0.12000001 844630.39502087 18396.05087010
0.12100001 835176.29018220 16812.09951335
0.12200001 825759.43479134 16758.78851862
0.12300001 816384.37793715 21258.65020307
0.12400001 807049.71203439 16645.40109500
0.12500001 797757.76142721 15077.62240144
0.12600001 788512.15609879 15021.15728153
0.12700001 779311.82948229 14962.78783120
0.12800001 770158.66343032 16392.82792370
0.12900001 761053.92495000 16324.60745959
0.13000001 751999.50480977 19209.82825582
0.13100001 742995.19497330 16182.43610932
0.13200001 734043.38684327 17572.99950942
0.13300001 725145.55096769 16032.96888774
0.13400001 716300.66346182 15955.59803085
0.13500001 707512.69503431 20206.56352288
0.13600001 698780.74154437 18667.92839056
0.13700001 690106.68970985 18570.77189576
0.13800001 681489.52254275 17050.86865807
0.13900001 672933.87087947 22610.57912782
0.14000001 664437.31318536 19673.98977126
0.14100001 656002.98914592 20959.29649171
0.14200001 647630.29904738 13891.67056977
0.14300001 639321.73894324 13809.35021253
0.14400001 631073.92302037 20588.78770971
0.14500001 622893.50431317 15005.50522675
0.14600001 614777.22274144 13555.83840094
0.14700001 606728.22430921 16163.24065812
0.14800001 598743.41299736 14720.10750302
0.14900001 590826.89580099 19940.40867409
0.15000001 582977.67946727 14524.88956925
0.15100001 575197.22053386 13114.49724698
0.15200001 567486.50330753 16930.96062510
0.15300001 559845.07395771 19398.63272804
0.15400001 552271.55680856 19260.47145262
0.15500001 544770.01933585 16571.90477027
0.15600001 537337.32114307 15185.15341217
0.15700001 529978.82170552 21352.84773430
0.15800001 522688.09379757 21192.38976328
0.15900001 515471.81596156 19794.11866722
0.16000001 508324.91594264 17186.46621926
0.16100001 501252.59116253 12180.43854022
0.16200001 494252.23865451 18126.70170834
0.16300001 487324.22028783 21578.71749303
0.16400001 480469.53814655 14269.94595663
0.16500001 473686.90059997 12974.28481997
0.16600001 466978.51408302 17546.71849510
0.16700001 460341.85476086 12760.67681646
0.16800001 453778.82450047 11503.29374423
0.16900001 447290.35833689 12546.49514377
0.17000001 440873.87792949 12439.25705316
0.17100001 434531.20844280 11210.90570722
0.17200001 428261.29009263 12224.71910298
0.17300001 422065.01086363 11015.89730376
0.17400001 415942.49896087 10918.49111336
0.17500001 409891.74568892 11903.25685697
0.17600001 403912.76454038 15013.43816704
0.17700001 398009.20328461 13814.90009850
0.17800001 392176.35433685 12635.92273355
0.17900001 386415.40197217 12519.85961526
0.18000001 380728.24516897 15505.15851689
0.18100001 375113.08437842 16384.94029962
0.18200001 369567.08120628 13188.00191582
0.18300001 364093.66485736 14068.57987468
0.18400001 358690.77677637 13935.13733607
0.18500001 353359.21255129 11830.46699511
0.18600001 348098.05772919 13669.81137283
0.18700001 342906.05112658 10636.94620849
0.18800001 337782.09125671 15321.79638330
0.18900001 332730.96446194 14224.24940281
0.19000001 327744.55833217 10328.87024386
0.19100001 322829.16291535 9297.48033127
0.19200001 317979.97406394 12887.72895777
0.19300001 313200.30687433 10936.95523285
0.19400001 308485.54953276 9925.52302524
0.19500001 303838.24454577 11612.69825530
0.19600001 299255.44430848 9727.29867692
0.19700001 294740.13555888 10504.53892774
0.19800001 290288.45765157 9531.62195744
0.19900001 285901.56209150 10292.45672172
0.20000001 281577.23203642 8489.55394712
0.20100001 277317.69200378 13444.36234375
0.20200001 273119.52282143 14138.03276706
0.20300001 268984.04291711 11523.27694321
0.20400001 264910.25027852 12218.98587164
0.20500001 260896.71198141 9674.05053753
0.20600001 256943.46828089 11169.33309412
0.20700001 253050.15534724 10263.71478604
0.20800001 249215.24143891 10156.76764496
0.20900001 245441.27090756 9277.68047887
0.21000001 241721.93628713 9945.64953869
0.21100001 238061.48360862 8327.39109029
0.21200001 234456.37461951 8989.05782786
0.21300001 230906.96351083 10376.95943075
0.21400001 227413.06992940 7334.07185195
0.21500001 223974.91510844 9433.82387038
0.21600001 220588.88549598 9334.21913107
0.21700001 217256.79294413 12077.30569077
0.21800001 213977.28386536 7732.06951805
0.21900001 210748.54312324 11822.99382822
0.22000001 207570.61455993 7569.06281781
0.22100001 204444.74051477 8169.61221726
0.22200001 201368.11137889 6735.76364412
0.22300001 198340.12068096 9996.34255500
0.22400001 195359.89437546 7912.07609634
0.22500001 192429.54827979 8480.37059370
0.22600001 189544.35161680 9680.97821662
0.22700001 186706.53632376 7023.90022865
0.22800001 183913.68968224 8212.66620114
0.22900001 181165.40743296 10000.33096322
0.23000001 178462.14532969 9275.57044217
0.23100001 175803.56542778 6117.96436622
0.23200001 173186.38027162 7263.43713211
0.23300001 170612.50517639 6587.34913641
0.23400001 168079.12025288 6517.26819604
0.23500001 165586.88762218 6447.95370897
0.23600001 163135.36964927 6379.40893186
0.23700001 160723.42165906 5737.82642462
0.23800001 158350.12052276 5676.85208925
0.23900001 156015.59941101 5616.56184446
0.24000001 153718.08696345 7779.67274920
0.24100001 151458.83872498 6047.75171635
0.24200001 149236.04816274 6527.58505541
0.24300001 147048.49833320 6996.56788165
0.24400001 144896.05506458 7454.90238572
0.24500001 142777.89802184 5268.50468623
0.24600001 140694.06582901 6776.53000122
0.24700001 138644.16453238 7220.58843042
0.24800001 136626.72333709 6123.61002966
0.24900001 134640.16992947 7068.60925569
0.25000001 132686.70672083 5495.22021881
0.25100001 130763.47147041 5437.14540097
0.25200001 128872.54186916 5379.78451484
0.25300001 127009.90743260 4839.07770212
0.25400001 125177.73469116 5266.85343631
0.25500001 123372.70181128 6632.51676317
0.25600001 121597.61441650 5625.10590905
0.25700001 119849.35101302 7884.88917621
0.25800001 118128.20351555 4589.28092372
0.25900001 116434.94158861 6357.34811153
0.26000001 114766.82430373 6290.36993772
0.26100001 113124.28156107 6668.67671356
0.26200001 111508.16840126 5278.79694189
0.26300001 109915.63515516 5658.45716553
0.26400001 108348.05726469 5168.20257608
0.26500001 106804.39220453 4687.64499567
0.26600001 105283.78950057 4216.61596903
0.26700001 103786.36528279 4589.43328998
0.26800001 102311.97564964 4541.11725410
0.26900001 100858.55952112 6127.15778085
0.27000001 99427.66492324  7275.12258671
0.27100001 98017.70496969  4798.94706242
0.27200001 96629.39712117  4352.67139931
0.27300001 95261.21240486  4306.75961664
0.27400001 93911.89854348  5423.41239755
0.27500001 92584.29059367  4216.28879317
0.27600001 91273.84622618  5688.64273527
0.27700001 89984.43058762  4127.58602640
0.27800001 88712.48376628  3712.61762133
0.27900001 87459.38515517  5877.27096059
0.28000001 86223.75777376  3997.76471839
0.28100001 85006.13892470  3955.33583137
0.28200001 83806.09557053  5692.11028056
0.28300001 82623.18185729  4223.69725645
0.28400001 81456.18371688  4526.92762433
0.28500001 80306.43284360  4134.17535846
0.28600001 79172.60791446  4771.73330486
0.28700001 78055.24844066  3709.18558147
0.28800001 76951.99767884  4003.04310873
0.28900001 75866.10133802  4950.26334662
0.29000001 74794.15814302  4244.19470472
0.29100001 73737.81862539  3229.71660867
0.29200001 72695.78486973  4472.97185476
0.29300001 71668.43187221  4424.80919324
0.29400001 70654.63584051  3751.76134073
0.29500001 69656.06492946  4329.82120098
0.29600001 68670.06933922  3365.17690727
0.29700001 67697.99209074  3933.93050662
0.29800001 66739.73819587  3891.26061972
0.29900001 65795.06575258  3552.93371883
0.30000001 64862.24461838  3514.23657979
0.30100001 63943.55925189  3186.30770836
0.30200001 63036.42143982  3151.50603908
0.30300001 62142.66967499  3117.07645846
0.30400001 61261.12119600  3082.96607014
0.30500001 60392.27207425  2772.00541944
0.30600001 59534.19801642  3838.16992783
0.30700001 58689.03954513  3524.86388196
0.30800001 57855.45568357  3217.92059747
0.30900001 57033.70019820  2652.06718478
0.31000001 56223.56464171  3409.67823913
0.31100001 55424.34890343  2593.85965149
0.31200001 54637.23956083  3591.30592637
0.31300001 53860.63854010  3551.57067349
0.31400001 53096.53046164  2759.69230141
0.31500001 52341.69816426  2480.99661045
0.31600002 51599.55990719  2944.27102771
0.31700002 50867.19687966  3154.27502786
0.31800002 50145.41896286  3359.24177538
0.31900002 49434.99815815  2610.16802634
0.32000002 48735.32802818  2581.26677123
0.32100002 48045.43404046  2552.65403144
0.32200002 47367.17599480  3212.91569986
0.32300002 46697.64211304  3177.30771982
0.32400002 46039.61461742  2468.87445076
0.32500002 45391.36183626  2885.52900857
0.32600002 44753.28156416  2634.17827760
0.32700002 44125.66050929  2170.98259986
0.32800002 43508.82542217  2791.30882714
0.32900002 42900.07568598  2760.62000112
0.33000002 42302.53566903  2520.38519451
0.33100002 41713.86037130  3531.49558627
0.33200002 41136.55249056  3082.15634131
0.33300002 40568.18267701  2845.45246771
0.33400002 40010.00888392  2412.60364995
0.33500002 39461.41889030  2784.39784876
0.33600002 38921.96478526  2951.25811960
0.33700002 38392.11178580  3698.31230347
0.33800002 37872.60872981  2503.56891865
0.33900002 37361.76106792  2286.53988564
0.34000002 36860.57912180  2451.04432478
0.34100002 36368.96415788  2238.87353959
0.34200002 35887.39503010  2769.60984261
0.34300002 35414.26496846  2192.85139070
0.34400002 34951.41246853  2532.22995327
0.34500002 34497.14829071  1969.44228919
0.34600002 34052.98054282  1949.70349332
0.34700002 33616.70420749  1930.27124701
0.34800002 33190.56238889  2258.78383035
0.34900002 32772.89633077  2064.69256663
0.35000002 32364.76394507  1874.40539265
0.35100002 31966.33359016  2025.38699220
0.35200002 31575.29606516  2340.67680817
0.35300002 31194.52140701  1822.07208168
0.35400002 30821.79344065  1969.51269414
0.35500002 30458.57681171  1789.13688666
0.35600002 30103.61521519  2740.48274092
0.35700002 29757.36967555  1597.97082726
0.35800002 29420.24712626  1901.13645935
0.35900002 29092.24540291  2042.27572402
0.36000002 28772.48062486  2181.24185949
0.36100002 28460.70717239  1545.41647266
0.36200002 28159.07834101  2146.56664361
0.36300002 27864.23971655  1825.66507270
0.36400002 27578.67255347  2113.90535135
0.36500002 27300.44593862  1948.43291893
0.36600002 27031.55637801  1636.89597401
0.36700002 26770.24872107  2068.80491916
0.36800002 26518.05233598  1908.10654622
0.36900002 26273.66104063  1895.64473388
0.37000002 26036.73592956  1738.73330774
0.37100002 25807.67380570  1728.08191989
0.37200002 25587.35798948  1717.93529679
0.37300002 25374.65017070  1708.22153041
0.37400002 25169.43478575  1840.51500589
0.37500002 24972.11448853  1408.42732387
0.37600002 24782.66542341  1541.60577569
0.37700002 24600.62962020  2371.25480142
0.37800002 24425.87652931  1805.19449041
0.37900002 24259.58911770  1382.79664522
0.38000002 24099.75346502  2203.68156124
0.38100002 23946.50612427  1646.56183911
0.38200002 23801.65612959  1504.14573037
0.38300002 23663.24370271  1635.60348222
0.38400002 23532.14974614  1630.77805466
0.38500002 23407.28933608  1490.81032844
0.38600002 23290.43709824  1487.21093136
0.38700002 23179.20279886  1618.83560016
0.38800002 23074.76560410  1750.33642782
0.38900002 22976.98244067  1612.98424375
0.39000002 22886.15407006  1610.72759976
0.39100002 22800.79766087  1340.68696598
0.39200002 22722.66412402  1607.40133629
0.39300002 22649.75161990  1472.46042257
0.39400002 22584.32409517  1471.93339264
0.39500002 22523.51967894  2006.84569847
0.39600002 22468.74788009  1471.81539962
0.39700002 22419.33644624  1739.96478403
0.39800002 22376.65111737  1874.93968596
0.39900002 22338.40266979  1340.30422369
0.40000002 22306.00533427  1744.21816975
0.40100002 22278.61831990  1477.74082317
0.40200002 22256.85041089  1345.42667108
0.40300002 22239.93893231  1347.74036315
0.40400002 22228.07101999  1890.49752982
0.40500002 22220.46179060  1353.22618716
0.40600002 22218.71359286  1763.38828785
0.40700002 22220.76717194  1631.89321843
0.40800002 22227.39490403  1363.65074197
0.40900002 22238.14199018  1367.64579720
0.41000002 22253.70973574  1783.52365128
0.41100002 22273.18669695  1927.07620433
0.41200002 22295.77683765  1519.34578459
0.41300002 22323.80231027  1940.83146482
0.41400002 22354.61489791  1391.57484333
0.41500002 22389.14017921  1536.79065472
0.41600002 22426.31028070  1543.04235198
0.41700002 22468.33617078  1690.51769359
0.41800002 22514.01523084  1981.00829403
0.41900002 22560.96905832  1563.47522983
0.42000002 22611.65173981  1570.71846253
0.42100002 22665.96607250  1578.23129241
0.42200002 22722.67869220  1874.28024074
0.42300002 22781.67543283  1883.58901404
0.42400002 22843.16957747  1456.25212957
0.42500002 22907.73241467  2195.70625599
0.42600002 22973.30326846  1912.87218729
0.42700002 23042.26599105  1923.10761074
0.42800002 23112.46735601  1784.74481380
0.42900002 23185.57917841  2093.65789902
0.43000002 23260.32910744  1804.53641767
0.43100002 23335.26618801  1965.76291683
0.43200002 23413.05569961  1672.74584373
0.43300002 23491.64291449  2293.95903931
0.43400002 23572.12841047  1845.69774200
0.43500002 23653.14469576  2784.44832554
0.43600002 23736.11016930  2956.21398113
0.43700002 23819.24782944  1877.90958787
0.43800002 23902.91255570  1888.80823966
0.43900002 23988.32353449  2216.52119963
0.44000002 24073.67370200  1592.47359085
0.44100002 24159.98231888  1922.16828438
0.44200002 24246.53942436  1933.41914532
0.44300002 24333.48604333  2106.79332147
0.44400002 24420.55760354  1956.08675674
0.44500002 24507.10241806  2787.19289009
0.44600002 24593.66310877  1978.80622751
0.44700002 24681.19170095  2322.00662527
0.44800002 24767.30880003  2001.69399208
0.44900002 24853.76822548  2516.44415209
0.45000002 24940.06440579  1855.91498071
0.45100002 25025.01607067  2545.04425500
0.45200002 25109.87113282  2559.32373651
0.45300002 25193.46557721  1887.24259583
0.45400002 25276.65688856  2415.18468016
0.45500002 25359.28842547  2081.49049261
0.45600002 25440.32828398  2092.72150382
0.45700002 25520.81126366  1928.60779860
0.45800002 25599.60979425  1938.78653965
0.45900002 25677.25872302  2126.07712303
0.46000002 25754.08915405  1958.98488435
0.46100002 25828.59756214  1968.91408548
0.46200002 25902.40039681  2158.70615138
0.46300002 25974.59639777  2350.18159346
0.46400002 26044.55562663  1998.26862516
0.46500002 26113.98015361  2372.97748903
0.46600002 26180.60525871  2200.74178235
0.46700002 26245.37186649  2210.91023082
0.46800002 26309.11012770  2406.09978077
0.46900002 26370.04095713  2602.72316583
0.47000002 26429.19347313  1867.22260738
0.47100002 26486.54086862  2625.34605533
0.47200002 26541.80050874  2824.71125303
0.47300002 26594.87224539  2836.34325941
0.47400002 26645.04409672  2657.84327462
0.47500002 26693.45306090  2858.86895833
0.47600002 26740.24477503  1913.26460434
0.47700002 26783.47046324  1920.37492324
