# SAXS profile: number of points = 501, q_min = 0, q_max = 0.5, delta_q = 0.001
#    q    intensity    error
0.00000000 1682732.95097188 302.89193117
0.00100000 1682651.11616228 555.27488152
0.00200000 1682405.56305158 757.08252735
0.00300000 1681996.49705981 1513.79690128
0.00400000 1681423.78846204 1387.17467819
0.00500000 1680687.96723671 1663.88115342
0.00600000 1679788.92694140 1940.15628961
0.00700000 1678727.21410685 2417.36728878
0.00800000 1677502.66237931 2717.55442779
0.00900000 1676116.50105873 2765.59234497
0.01000000 1674568.12590963 3591.94878517
0.01100000 1672858.80283393 3914.48976907
0.01200000 1670988.42008459 4235.95583063
0.01300000 1668958.19337804 3504.81236067
0.01400000 1666768.04898319 4125.25110411
0.01500000 1664419.50195872 4793.52837909
0.01600000 1661911.92143820 5933.02582476
0.01700000 1659247.58227300 4927.96554041
0.01800000 1656426.34994984 5192.89684076
0.01900000 1653448.98137008 5456.38188473
0.02000000 1650316.60600469 5718.34729848
0.02100000 1647031.19518276 6522.24382863
0.02200000 1643591.37412998 6804.46859804
0.02300000 1640000.35831932 7084.80187043
0.02400000 1636257.57780269 6749.56281620
0.02500000 1632365.74992550 7002.84938700
0.02600000 1628324.64444245 7913.65813395
0.02700000 1624136.57449125 10232.06088793
0.02800000 1619801.36001701 11978.43160665
0.02900000 1615321.49235290 7995.84175427
0.03000000 1610698.30302393 9736.67168933
0.03100000 1605931.98726441 9250.16867227
0.03200000 1601024.26579805 12680.11276914
0.03300000 1595978.89962155 8953.44203963
0.03400000 1590793.72244826 9186.83417102
0.03500000 1585472.33690509 11130.01631904
0.03600000 1580015.77608108 10522.90555500
0.03700000 1574425.88669947 11666.49635999
0.03800000 1568704.11976676 13765.37928801
0.03900000 1562852.61011247 10314.82770442
0.04000000 1556871.20695635 11489.71003976
0.04100000 1550764.01389855 11723.77648866
0.04200000 1544531.55635210 10958.45190071
0.04300000 1538174.99515516 14212.73761496
0.04400000 1531697.77747182 10338.96047810
0.04500000 1525101.20015758 13680.15840106
0.04600000 1518385.36499463 11775.07905292
0.04700000 1511554.53515120 13059.83179109
0.04800000 1504608.93538464 16588.31428444
0.04900000 1497552.43672062 11231.64379821
0.05000000 1490384.71503808 11401.44360096
0.05100000 1483110.19233850 15038.73805088
0.05200000 1475727.19878574 12905.23495478
0.05300000 1468241.86636447 14271.31160636
0.05400000 1460654.07316490 16870.55533179
0.05500000 1452966.30449012 15866.39278519
0.05600000 1445179.79381504 13591.91659509
0.05700000 1437299.53015071 13754.95714560
0.05800000 1429324.29148099 12649.52057024
0.05900000 1421256.95806499 15349.57586402
0.06000000 1413101.16296020 14222.86386967
0.06100000 1404858.43236522 13065.18403155
0.06200000 1396530.58869151 13197.21468002
0.06300000 1388121.13976564 14658.55992129
0.06400000 1379628.66518696 18831.93216051
0.06500000 1371059.50649459 17645.53667400
0.06600000 1362414.11054185 17799.94118706
0.06700000 1353694.49075764 17949.98978749
0.06800000 1344903.66324017 13919.75356611
0.06900000 1336044.25582528 16834.15841156
0.07000000 1327116.92105392 16960.55504531
0.07100000 1318125.11134102 17082.90224310
0.07200000 1309070.61876821 15767.75634173
0.07300000 1299956.63366955 17315.42317180
0.07400000 1290785.04339357 21781.99862806
0.07500000 1281557.87064937 20453.66457428
0.07600000 1272276.06168046 16164.26812144
0.07700000 1262944.90522983 22164.68412605
0.07800000 1253564.60545400 14854.74127126
0.07900000 1244136.96557098 22394.46643066
0.08000000 1234667.04345794 18001.44633808
0.08100000 1225154.76329355 19590.22558420
0.08200000 1215602.39523891 19674.52569017
0.08300000 1206013.06763167 18234.91843839
0.08400000 1196388.80884307 16779.35383162
0.08500000 1186731.58825716 18370.60584863
0.08600000 1177044.00197774 19968.55243111
0.08700000 1167329.15539270 21572.24380464
0.08800000 1157586.63118267 20089.91692767
0.08900000 1147821.96469986 21693.83615178
0.09000000 1138035.14400494 17087.59848993
0.09100000 1128228.74410793 17126.51314018
0.09200000 1118404.40681141 17161.91642890
0.09300000 1108567.78812803 17193.88720184
0.09400000 1098715.18940602 20353.69984032
0.09500000 1088852.57424620 15679.47780612
0.09600000 1078980.90148699 28258.51113831
0.09700000 1069104.78165132 15715.84102912
0.09800000 1059223.87054724 20448.31778235
0.09900000 1049341.19590385 18888.14241444
0.10000000 1039457.03208049 18897.32973191
0.10100000 1029574.45693799 22053.48590483
0.10200000 1019695.99393562 17329.73423206
0.10300000 1009822.89004240 17328.56160828
0.10400000 999958.58820702 22049.08790727
0.10500000 990104.92054180 15742.66897730
0.10600001 980259.85588738 17306.48857002
0.10700001 970430.86315748 15720.98072294
0.10800001 960616.19046101 18847.29054383
0.10900001 950819.59274865 18826.22882249
0.11000001 941041.37719164 20368.84156807
0.11100001 931284.48564050 18774.69611430
0.11200001 921549.81635466 18744.32414708
0.11300001 911839.82368715 17151.70789107
0.11400001 902156.01085232 20230.84949592
0.11500001 892500.90008295 17082.46803197
0.11600001 882874.57494105 15494.44951987
0.11700001 873280.67905551 17002.77562196
0.11800001 863717.73278006 18500.83470751
0.11900001 854189.19543160 21525.56873877
0.12000001 844695.60010612 16864.34845051
0.12100001 835242.16465125 22927.39849974
0.12200001 825826.17138721 16760.14293790
0.12300001 816451.82214114 15186.00460730
0.12400001 807117.78618948 16646.80512451
0.12500001 797826.43098756 24126.27240991
0.12600001 788581.73733398 16524.73108454
0.12700001 779382.09656385 16460.55065515
0.12800001 770229.33972077 19375.11995381
0.12900001 761125.32541847 17810.33345423
0.13000001 752071.68020041 20689.49289751
0.13100001 743067.96174369 14712.74633605
0.13200001 734116.96872317 14645.63421643
0.13300001 725219.56562336 20407.67953872
0.13400001 716375.47981106 17407.92498012
0.13500001 707587.97778913 20208.71359846
0.13600001 698856.73101280 15797.65714942
0.13700001 690183.33890758 15715.47536796
0.13800001 681566.76374892 15631.73446371
0.13900001 673011.68616763 16959.89529122
0.14000001 664515.59379783 16865.40656597
0.14100001 656081.87529147 18166.90798363
0.14200001 647709.74979896 16672.04974617
0.14300001 639401.72527745 15192.18570917
0.14400001 631154.38813830 19218.65202535
0.14500001 622974.40103575 15007.45402888
0.14600001 614858.65118443 18980.68745746
0.14700001 606810.09051158 14818.30310937
0.14800001 598825.85401332 18737.26185608
0.14900001 590909.84602368 13295.47216282
0.15000001 583061.08242972 17168.23438219
0.15100001 575281.08969542 14428.05041035
0.15200001 567570.66528390 18236.04633608
0.15300001 559929.73937731 16814.69086697
0.15400001 552356.54821250 15410.74842238
0.15500001 544855.43669301 14024.57960234
0.15600001 537423.12251316 13921.94664575
0.15700001 530064.98550253 15075.04889919
0.15800001 522774.64993106 17455.44638507
0.15900001 515558.59276937 16085.42885365
0.16000001 508411.98158389 14733.77992177
0.16100001 501340.03750100 13400.81983498
0.16200001 494339.97193236 12086.61288431
0.16300001 487412.16357844 14388.40774808
0.16400001 480557.74585315 14272.56572564
0.16500001 473775.36407972 17695.51068381
0.16600001 467067.19930940 18720.05423215
0.16700001 460430.73657540 15083.71164238
0.16800001 453867.92347276 11505.55240329
0.16900001 447379.64729433 13689.81785361
0.17000001 440963.28968697 11310.70891456
0.17100001 434620.84459242 13455.86198398
0.17200001 428350.96791915 11115.70814242
0.17300001 422154.72650909 17629.18221155
0.17400001 416032.32889628 16381.27372391
0.17500001 409981.61602906 11905.86669177
0.17600001 404002.65479854 11798.89809064
0.17700001 398099.25932104 13818.02594367
0.17800001 392266.37486177 14745.29372751
0.17900001 386505.51014674 12522.77912025
0.18000001 380818.19351938 12407.05733091
0.18100001 375203.06002847 11267.34842488
0.18200001 369657.07398435 12176.50459224
0.18300001 364183.50525051 12061.75826369
0.18400001 358780.57269058 9956.16136250
0.18500001 353448.75937419 12819.58710813
0.18600001 348187.59688800 17579.99259741
0.18700001 342995.37890429 11606.96417049
0.18800001 337871.18007799 13410.10777087
0.18900001 332819.91210184 10433.90473737
0.19000001 327833.28244439 11270.90878297
0.19100001 322917.64056473 10230.03133646
0.19200001 318068.25630965 11970.49939184
0.19300001 313288.28915426 12763.36550325
0.19400001 308573.20571165 10830.92003228
0.19500001 303925.52557906 11616.03413655
0.19600001 299342.60044871 14152.91881803
0.19700001 294826.84864333 9631.99360036
0.19800001 290374.80384430 8667.68830438
0.19900001 285987.55292156 9437.58969243
0.20000001 281662.87264488 10190.56321391
0.20100001 277402.78897272 9245.83539344
0.20200001 273204.17798216 11646.69465784
0.20300001 269068.29694414 10703.53735834
0.20400001 264993.98799856 12222.84827416
0.20500001 260980.01181622 8064.28274629
0.20600001 257026.18348271 8778.72971180
0.20700001 253132.24871952 10267.04449338
0.20800001 249296.88023468 7815.45756480
0.20900001 245522.34819577 12374.32693402
0.21000001 241802.40898884 7653.04660627
0.21100001 238141.32268236 7572.89441930
0.21200001 234535.57291192 8242.75309966
0.21300001 230985.50977245 11121.95282134
0.21400001 227491.04334915 12472.19704126
0.21500001 224052.01956886 13066.71439902
0.21600001 220665.39079395 7900.92469092
0.21700001 217332.60392312 7817.45413272
0.21800001 214052.20930364 8437.93848970
0.21900001 210822.79598092 10435.72889447
0.22000001 207644.13567328 7571.74376534
0.22100001 204517.48056196 7491.47566721
0.22200001 201439.97829780 7411.98435194
0.22300001 198411.10356056 7999.93607384
0.22400001 195430.03608054 7914.91683553
0.22500001 192498.87405650 7178.28335301
0.22600001 189612.71627712 7101.94462400
0.22700001 186774.08082262 6387.67386620
0.22800001 183980.20683123 9479.58060527
0.22900001 181231.09711869 7502.96777554
0.23000001 178526.86646351 6185.95621551
0.23100001 175867.31931478 7344.21960191
0.23200001 173249.06307543 6055.05504085
0.23300001 170674.20495810 7188.79785283
0.23400001 168139.85991089 9483.08854748
0.23500001 165646.54581596 5863.88799922
0.23600001 163194.00604955 6961.85662735
0.23700001 160780.89418535 5739.87819390
0.23800001 158406.65643733 7950.43046263
0.23900001 156070.98979061 7865.97825750
0.24000001 153772.39371425 6114.75952528
0.24100001 151511.93435749 6049.87182506
0.24200001 149288.04841079 6529.85954636
0.24300001 147099.37129631 7537.37214176
0.24400001 144945.72862287 5326.75577886
0.24500001 142826.45598482 6324.35577018
0.24600001 140741.38841282 6257.36242484
0.24700001 138690.27379291 8254.84548666
0.24800001 136671.63361845 6636.09148428
0.24900001 134683.81805292 6565.83644069
0.25000001 132729.13429293 5496.97735679
0.25100001 130804.65975436 6427.74128442
0.25200001 128912.54130567 5381.45429140
0.25300001 127048.51513231 4840.54865555
0.25400001 125215.09236466 6705.26851336
0.25500001 123408.87455840 4738.90100725
0.25600001 121632.41682409 5626.71586850
0.25700001 119882.82636893 5103.41215998
0.25800001 118160.39484389 5967.69102395
0.25900001 116465.84893308 4996.38515563
0.26000001 114796.36882573 5842.56146783
0.26100001 113152.51411980 4446.89401532
0.26200001 111535.09925435 6160.08382329
0.26300001 109941.10554929 5224.40158291
0.26400001 108372.23658517 4738.57626891
0.26500001 106827.21249843 5114.88717646
0.26600001 105305.21037327 4217.47387502
0.26700001 103806.47684752 4173.02056674
0.26800001 102330.60305095 4954.84803419
0.26900001 100875.82420971 6945.30082550
0.27000001 99443.58890748  4850.85849646
0.27100001 98032.24846212  4799.65911184
0.27200001 96642.57466122  4749.01634359
0.27300001 95272.97614920  5482.00730706
0.27400001 93922.26348645  5811.44032825
0.27500001 92593.21213612  4216.69508024
0.27600001 91281.37248912  3792.74120642
0.27700001 89990.57462709  4503.12856746
0.27800001 88717.25481000  4084.09901847
0.27900001 87462.66428914  5877.49131840
0.28000001 86225.66960166  5451.61821858
0.28100001 85006.63751772  3595.78093718
0.28200001 83805.28968034  3913.28818684
0.28300001 82620.90667488  3871.61587003
0.28400001 81452.55927630  5919.56502558
0.28500001 80301.35600372  3789.42116917
0.28600001 79166.17035899  4430.53493385
0.28700001 78047.48319197  4045.98172018
0.28800001 76942.76707146  4336.10984355
0.28900001 75855.53099549  5279.54520719
0.29000001 74782.20601486  3917.09213647
0.29100001 73724.51981640  3874.96094497
0.29200001 72681.12542346  3513.76917492
0.29300001 71652.49563364  3475.86272772
0.29400001 70637.27183661  3750.83931208
0.29500001 69637.35483008  3710.27844098
0.29600001 68650.12924834  3670.03608335
0.29700001 67676.59756738  3630.17286536
0.29800001 66717.11346426  3291.48894857
0.29900001 65771.08719785  3847.60878322
0.30000001 64836.94784496  4098.34366729
0.30100001 63917.03922641  3474.53041683
0.30200001 63008.64183240  3436.49148822
0.30300001 62113.69459167  3682.09998971
0.30400001 61230.82161058  3361.57226556
0.30500001 60360.80403877  4432.89765847
0.30600001 59501.45318428  3014.04625374
0.30700001 58655.08945472  3251.83831332
0.30800001 57820.36395140  2947.97139563
0.30900001 56997.43867484  2915.41912625
0.31000001 56186.14997480  3145.30082450
0.31100001 55385.69001873  3369.66554028
0.31200001 54597.50766586  2819.68841690
0.31300001 53819.73889789  2534.90982211
0.31400001 53054.49375980  2506.82494884
0.31500001 52298.66517619  2726.85253140
0.31600002 51555.37065136  3432.04118676
0.31700002 50821.98211543  2909.05039403
0.31800002 50099.20510076  2397.24707758
0.31900002 49387.69514468  2370.60947919
0.32000002 48687.04157289  2813.13739528
0.32100002 47996.15527011  2550.03585024
0.32200002 47316.99464422  2980.26104878
0.32300002 46646.44303516  2493.71896274
0.32400002 45987.53298650  2914.46004102
0.32500002 45338.31457663  2438.74805656
0.32600002 44699.45191786  2411.75904243
0.32700002 44070.92459712  2385.11855214
0.32800002 43453.24357530  2144.41767199
0.32900002 42843.66208904  3393.21819813
0.33000002 42245.33028848  2097.48074815
0.33100002 41655.90708530  2904.24997952
0.33200002 41077.79293783  2667.38661073
0.33300002 40508.67432816  2029.48467995
0.33400002 39949.92456984  2810.47732658
0.33500002 39400.63287335  2382.95038903
0.33600002 38860.46017717  3143.03416797
0.33700002 38329.98893072  2137.66358390
0.33800002 37809.90432577  2499.42384382
0.33900002 37298.42585892  1902.21980889
0.34000002 36796.78839634  3387.88046809
0.34100002 36304.61088466  2234.91195190
0.34200002 35822.45244514  2395.98484526
0.34300002 35348.91656432  2371.20543543
0.34400002 34885.55813729  1805.32771910
0.34500002 34430.94288462  2323.05582645
0.34600002 33986.34651357  2476.58518774
0.34700002 33549.74230686  2101.55595763
0.34800002 33123.19774065  2080.79938062
0.34900002 32705.24192614  2232.13286718
0.35000002 32296.80069820  2210.55462848
0.35100002 31898.05897604  2021.06111244
0.35200002 31506.88042584  3002.92091561
0.35300002 31125.87698682  1818.06256091
0.35400002 30752.98388021  1801.35611610
0.35500002 30389.62682603  2596.48983900
0.35600002 30034.52904221  1930.01892767
0.35700002 29688.19402882  2231.95853280
0.35800002 29350.98969204  2844.99156560
0.35900002 29022.93311577  1567.23846248
0.36000002 28703.20923333  1709.70673897
0.36100002 28391.48024108  1541.65745011
0.36200002 28089.83641562  1529.49166528
0.36300002 27795.14821347  2124.66123008
0.36400002 27509.58445959  2108.60974871
0.36500002 27231.56980435  2691.02385553
0.36600002 26962.81971220  1484.30329547
0.36700002 26701.72051589  1473.93504230
0.36800002 26449.78563024  1756.79484478
0.36900002 26205.62121069  1745.29445530
0.37000002 25969.00494448  1878.72775170
0.37100002 25740.28822796  1723.56978139
0.37200002 25520.30346943  1570.64715143
0.37300002 25307.93654184  2129.66296088
0.37400002 25103.13975576  1835.66718160
0.37500002 24906.26021403  1826.12708540
0.37600002 24717.28284974  1677.31489364
0.37700002 24535.74312920  1808.52971173
0.37800002 24361.50327840  1661.94183238
0.37900002 24195.77721506  1517.07530325
0.38000002 24036.47902964  1373.68484162
0.38100002 23883.85652085  1642.25405217
0.38200002 23739.71523022  1773.00071596
0.38300002 23601.84788820  1767.30645359
0.38400002 23471.46230104  2304.31092057
0.38500002 23347.31819930  2298.07663923
0.38600002 23231.22367781  1348.57259839
0.38700002 23120.78641198  1883.88176610
0.38800002 23017.16140121  1477.35657453
0.38900002 22920.24125948  1340.83417720
0.39000002 22830.24698777  1874.59166898
0.39100002 22745.82059057  2139.92690254
0.39200002 22668.56280048  2004.46776060
0.39300002 22596.58697248  2270.27920068
0.39400002 22532.14644785  1468.53271431
0.39500002 22472.28364271  1735.30982510
0.39600002 22418.54671531  2670.04904029
0.39700002 22370.17005644  1469.04913721
0.39800002 22328.54044328  1336.36320885
0.39900002 22291.41260183  1471.23330143
0.40000002 22260.13435467  1740.63128833
0.40100002 22233.84215826  1608.84089480
0.40200002 22213.24979368  1342.79101365
0.40300002 22197.52151547  2017.75480136
0.40400002 22186.84974082  1482.63630418
0.40500002 22180.50177627  1620.95114661
0.40600002 22179.96480440  1895.72168165
0.40700002 22183.30442444  1900.66561314
0.40800002 22191.22394876  1906.00431527
0.40900002 22203.27218462  1911.70182568
0.41000002 22220.16786664  1643.84809666
0.41100002 22241.00091405  1511.94331378
0.41200002 22264.94669256  1517.24486426
0.41300002 22294.38254947  1661.37746631
0.41400002 22326.63280936  1806.78284571
0.41500002 22362.59817638  1534.96881156
0.41600002 22401.22620169  1541.31644184
0.41700002 22444.64932666  2110.91936920
0.41800002 22491.85165488  1413.61294349
0.41900002 22540.30990707  2130.05938715
0.42000002 22592.53732380  1569.39067956
0.42100002 22648.39354972  1863.73639352
0.42200002 22706.60251347  1728.88079730
0.42300002 22767.18555573  1737.59168395
0.42400002 22830.23924784  1892.05616732
0.42500002 22896.42979720  1902.00651338
0.42600002 22963.57343718  1764.98033802
0.42700002 23034.15412942  1774.55131822
0.42800002 23105.96972608  1932.92998903
0.42900002 23180.66486648  1644.66825021
0.43000002 23257.14111345  2105.00394193
0.43100002 23333.68287833  2116.83181103
0.43200002 23413.16168148  1672.75341560
0.43300002 23493.40393257  2141.18893588
0.43400002 23575.56905862  1845.96714477
0.43500002 23658.31941059  1856.70499533
0.43600002 23742.96933340  2957.06825576
0.43700002 23827.81964553  2035.13417237
0.43800002 23913.16239965  1889.61818237
0.43900002 24000.28871697  1742.42104342
0.44000002 24087.36540118  2549.40687488
0.44100002 24175.40400816  2564.52697872
0.44200002 24263.71898816  1773.55662349
0.44300002 24352.36122970  2594.98773561
0.44400002 24441.19030424  2120.88438916
0.44500002 24529.49079179  1641.02301174
0.44600002 24617.77194352  2640.99469926
0.44700002 24707.05034260  1826.34524788
0.44800002 24794.89102981  2170.91678700
0.44900002 24883.13345071  2351.45622253
0.45000002 24971.13336197  2533.94587799
0.45100002 25057.79531482  2208.59418372
0.45200002 25144.35531033  1879.41492674
0.45300002 25229.70050726  1889.95695457
0.45400002 25314.58632486  2246.03677812
0.45500002 25398.96609414  3300.84979003
0.45600002 25481.71482480  2445.48028764
0.45700002 25563.91100872  1931.86484649
0.45800002 25644.43847608  1942.18164003
0.45900002 25723.73633660  2662.40683702
0.46000002 25802.25686216  1962.64876124
0.46100002 25878.48304957  2331.39264843
0.46200002 25953.94491664  1982.75171588
0.46300002 26027.82399038  2173.84396271
0.46400002 26099.41900955  2002.47801842
0.46500002 26170.46467146  2195.17868068
0.46600002 26238.75510435  2389.43234683
0.46700002 26305.13286723  2400.60653924
0.46800002 26370.50595848  2411.71473674
0.46900002 26432.97312394  2049.87716292
0.47000002 26493.77239210  2058.96361904
0.47100002 26552.64871598  2067.92038001
0.47200002 26609.49511023  1887.94376755
0.47300002 26664.05886954  2085.39614303
0.47400002 26715.77493486  2855.24858150
0.47500002 26765.67830055  2675.49732974
0.47600002 26813.97269429  2302.24780465
0.47700002 26858.68889981  1925.76808539
