# SAXS profile: number of points = 501, q_min = 0, q_max = 0.5, delta_q = 0.001
#    q    intensity    error
0.00000000 1664650.74656090 299.63713438
0.00100000 1664569.34056912 499.37081403
0.00200000 1664325.06414463 748.94630258
0.00300000 1663918.12946918 1297.85618722
0.00400000 1663348.40940497 1497.01362535
0.00500000 1662616.41939067 1645.99032035
0.00600000 1661722.07204485 1744.80824668
0.00700000 1660665.90567803 2590.63892053
0.00800000 1659447.72803206 2240.25452743
0.00900000 1658068.80888709 2735.81365161
0.01000000 1656528.52416788 3279.92661948
0.01100000 1654828.14703021 3872.29803265
0.01200000 1652967.53112818 3867.94419243
0.01300000 1650947.91172044 5200.48615129
0.01400000 1648769.25290557 5193.62337689
0.01500000 1646433.01395889 3951.43940945
0.01600000 1643938.60247181 4611.24798607
0.01700000 1641288.26931579 5317.77423113
0.01800000 1638481.82965185 5136.64076709
0.01900000 1635520.13408735 5887.87274839
0.02000000 1632404.27699226 5656.28107564
0.02100000 1629136.14237734 5913.76446495
0.02200000 1625714.46163960 5608.71514747
0.02300000 1622142.44104784 8759.56958038
0.02400000 1618419.49974420 7889.79542101
0.02500000 1614548.27682092 10074.78170748
0.02600000 1610528.62709337 9783.96185709
0.02700000 1606362.86635602 8096.06921724
0.02800000 1602050.70481195 11150.27341684
0.02900000 1597594.63975211 7908.09382987
0.03000000 1592996.16022985 9629.66223122
0.03100000 1588255.44932822 9910.71445983
0.03200000 1583373.91341648 10189.01160212
0.03300000 1578355.58153150 9659.53660428
0.03400000 1573198.42724283 8259.29212411
0.03500000 1567905.70720547 11006.69857285
0.03600000 1562478.64457128 10406.10825375
0.03700000 1556918.91062576 10649.32584119
0.03800000 1551228.23806354 9982.15417391
0.03900000 1545408.47590952 12054.18667032
0.04000000 1539459.68896004 14201.51628874
0.04100000 1533385.82611474 9660.33115244
0.04200000 1527187.49362929 11820.43174907
0.04300000 1520865.69008503 11041.48542254
0.04400000 1514424.06869960 17378.01699540
0.04500000 1507863.91240664 16646.81836646
0.04600000 1501185.18496492 11641.69165059
0.04700000 1494392.15554387 11835.58642236
0.04800000 1487485.14976785 20772.73108302
0.04900000 1480467.99788557 14434.56365128
0.05000000 1473340.28394091 14652.36980610
0.05100000 1466106.48519408 18297.00978757
0.05200000 1458765.06483682 13916.61936708
0.05300000 1451321.75845663 12931.27747068
0.05400000 1443776.93561491 11911.16027429
0.05500000 1436132.68720229 12063.51513525
0.05600000 1428390.45664490 18319.10846132
0.05700000 1420555.19987850 17302.36314217
0.05800000 1412625.71533501 12501.73816445
0.05900000 1404604.64901574 13905.58667473
0.06000000 1396495.96787344 23000.28966542
0.06100000 1388300.73558853 19366.79616650
0.06200000 1380021.22785312 16953.56157664
0.06300000 1371660.77551538 19751.91609093
0.06400000 1363217.93240588 19937.06319383
0.06500000 1354699.03383955 13411.52106237
0.06600000 1346104.58509614 13528.35171319
0.06700000 1337436.37251378 15006.03680187
0.06800000 1328697.59692007 22003.23323495
0.06900000 1319891.09254258 13858.85712055
0.07000000 1311017.08956788 19547.26572083
0.07100000 1302079.25178312 21093.68486687
0.07200000 1293079.41576934 16991.06431919
0.07300000 1284020.60530184 18528.41820267
0.07400000 1274904.64950754 20079.74917076
0.07500000 1265733.86724593 14429.36676294
0.07600000 1256509.03638680 18866.48406582
0.07700000 1247235.30171241 17511.18445712
0.07800000 1237912.86231533 17603.12172764
0.07900000 1228543.92020803 17691.03328077
0.08000000 1219133.02902920 20737.45379660
0.08100000 1209680.55481694 16366.97867458
0.08200000 1200188.21181023 14942.34393821
0.08300000 1190659.69193225 19503.00666917
0.08400000 1181096.48368615 25600.26748554
0.08500000 1171501.16677395 21157.31206517
0.08600000 1161875.71561000 19711.22244080
0.08700000 1152223.54249420 16730.28662263
0.08800000 1142544.13204217 15252.96487910
0.08900000 1132843.20798736 15293.38402616
0.09000000 1123120.31304574 19929.77089121
0.09100000 1113378.63785527 24583.40147880
0.09200000 1103619.35093969 16935.03973589
0.09300000 1093848.30589452 16965.58802167
0.09400000 1084061.55477165 21627.02903411
0.09500000 1074265.36510667 20110.24858003
0.09600000 1064460.46818588 18585.48064819
0.09700000 1054651.32667041 15503.37523091
0.09800000 1044838.14441114 23273.77076104
0.09900000 1035023.43406642 18630.42268924
0.10000000 1025207.81951383 21744.65887448
0.10100000 1015393.88464241 18642.63259883
0.10200000 1005584.71897347 24858.05542226
0.10300000 995781.22018923 15534.18776569
0.10400000 985986.56592015 17082.21805820
0.10500000 976203.22859743 15521.63206498
0.10600001 966428.94310974 17062.30379344
0.10700001 956670.79723653 23247.10146680
0.10800001 946927.42858218 20126.94344172
0.10900001 937202.62298921 24742.15041142
0.11000001 927496.19582259 16987.09362607
0.11100001 917811.32921661 15419.23105667
0.11200001 908149.25644694 18471.75674573
0.11300001 898511.90585157 23046.83147016
0.11400001 888901.33596438 19933.61339756
0.11500001 879319.37007836 18360.18931178
0.11600001 869766.82756547 21370.17195964
0.11700001 860246.71180503 25884.82477726
0.11800001 850758.10505023 15186.03289038
0.11900001 841304.04119315 16657.82080024
0.12000001 831884.86025016 19628.32420219
0.12100001 822506.39713149 27093.36199783
0.12200001 813165.26505040 18003.47981638
0.12300001 803866.14985029 19437.48441917
0.12400001 794607.78392987 16388.78631575
0.12500001 785392.10915436 22265.86734370
0.12600001 776223.13714113 20701.87204310
0.12700001 767099.59771458 16201.14426723
0.12800001 758023.04422457 16134.52125673
0.12900001 748995.60720113 18987.03953745
0.13000001 740018.37749903 20357.90652457
0.13100001 731091.67688882 17370.73906169
0.13200001 722217.10805097 18730.70158027
0.13300001 713396.81727365 15773.20437352
0.13400001 704629.62326250 18549.37570691
0.13500001 695919.37606202 19875.45831742
0.13600001 687265.75433174 15535.64310919
0.13700001 678669.56594962 18262.99888086
0.13800001 670130.68702909 20958.33822514
0.13900001 661652.94665143 15284.18378842
0.14000001 653234.58508525 19342.27697657
0.14100001 644878.63977455 15109.50724253
0.14200001 636584.42147855 19116.63107864
0.14300001 628354.10646224 17644.18414169
0.14400001 620184.77923901 17535.72546014
0.14500001 612082.72113152 16085.53467013
0.14600001 604045.19104508 18646.87592722
0.14700001 596074.64129499 13232.85766103
0.14800001 588168.29586012 18403.78684573
0.14900001 580330.32745878 14363.17628227
0.15000001 572559.72346610 18155.86968776
0.15100001 564857.50455594 19318.12756734
0.15200001 557225.23564182 15345.98371371
0.15300001 549662.17889852 13966.91662490
0.15400001 542167.21264855 18908.08243341
0.15500001 534744.04045671 17518.21559210
0.15600001 527389.64019869 18630.03991926
0.15700001 520109.39940939 17257.23068689
0.15800001 512897.02849515 12232.59470697
0.15900001 505758.76059692 15779.67407543
0.16000001 498689.71770127 19269.37160154
0.16100001 491695.63971898 20311.94783560
0.16200001 484773.01448339 13037.97084000
0.16300001 477922.71839301 12932.58937023
0.16400001 471145.66471660 16325.19805314
0.16500001 464440.51649315 11564.56940666
0.16600001 457809.31444951 14908.56102893
0.16700001 451250.21747798 13645.80722082
0.16800001 444764.38580279 16912.16656868
0.16900001 438352.83271167 12295.79753815
0.17000001 432012.90442897 17729.81043496
0.17100001 425747.09045122 14279.55808803
0.17200001 419553.84909768 15242.39205751
0.17300001 413433.64585417 10790.61866638
0.17400001 407387.41157411 11763.31206474
0.17500001 401412.61558071 13776.48161736
0.17600001 395509.30230033 13651.00421362
0.17700001 389681.46229859 13525.84419522
0.17800001 383923.96001456 14431.70233859
0.17900001 378238.37135318 11233.68015980
0.18000001 372625.91997951 13151.83246690
0.18100001 367085.58890375 13027.86816558
0.18200001 361614.29327718 10918.94410129
0.18300001 356214.94484138 9831.53294206
0.18400001 350886.49452629 10710.81075140
0.18500001 345628.54090885 10607.34042161
0.18600001 340441.02438109 10504.30830354
0.18700001 335322.37628741 13238.52804128
0.18800001 330271.47266727 10299.51636174
0.18900001 325293.20068084 11125.02798891
0.19000001 320379.33947445 11014.64221156
0.19100001 315536.29734543 9087.44579293
0.19200001 310759.28223393 14394.37063323
0.19300001 306051.13916819 8906.08857063
0.19400001 301407.71858188 12342.64665917
0.19500001 296831.44057429 10472.21371833
0.19600001 292319.74536839 8638.04888384
0.19700001 287874.90818021 11969.83924780
0.19800001 283493.44865509 10154.73581073
0.19900001 279176.40804607 10887.88042836
0.20000001 274921.77385081 11604.44862268
0.20100001 270731.41831415 9843.79483514
0.20200001 266602.26140964 11365.25494105
0.20300001 262535.33581884 9640.29798691
0.20400001 258529.93273856 9539.75496896
0.20500001 254584.37540117 7866.65757173
0.20600001 250698.55808242 8562.60965604
0.20700001 246872.54411610 9242.90848861
0.20800001 243104.82418598 8383.47025834
0.20900001 239397.22674267 12065.62079819
0.21000001 235744.15442485 7461.30284026
0.21100001 232149.69350890 10335.30484360
0.21200001 228609.80382509 7304.08357751
0.21300001 225125.55120302 9394.48969583
0.21400001 221696.44974580 9294.62409501
0.21500001 218322.69824585 8488.38690911
0.21600001 215000.49306839 8397.91965629
0.21700001 211732.14442199 7616.00559494
0.21800001 208515.64788117 8904.66116378
0.21900001 205349.90653148 9487.16613032
0.22000001 202234.38484322 7374.47719199
0.22100001 199170.69307685 7958.86127167
0.22200001 196155.53117336 9185.96395920
0.22300001 193188.68863374 9087.59634304
0.22400001 190269.43196637 8348.07172227
0.22500001 187399.55277890 7623.41416754
0.22600001 184574.24498323 7541.70400665
0.22700001 181796.16492797 8082.65787492
0.22800001 179062.50879477 8611.11645516
0.22900001 176372.98223554 6693.35499237
0.23000001 173728.07749217 6019.67816979
0.23100001 171127.43783354 9528.37618919
0.23200001 168567.62233970 8248.01415116
0.23300001 166050.80091445 9325.41342040
0.23400001 163574.39004617 6342.59727402
0.23500001 161138.25087106 7415.58265582
0.23600001 158742.53169286 5643.29726859
0.23700001 156385.99918255 7816.17260883
0.23800001 154067.75474012 6627.99512242
0.23900001 151787.80969893 6010.79754839
0.24000001 149544.29127747 6487.23166247
0.24100001 147338.59290813 5348.39117555
0.24200001 145169.09716597 5820.55522619
0.24300001 143034.15296645 7852.57536931
0.24400001 140934.21963033 7251.06594298
0.24500001 138867.98945934 5636.65195879
0.24600001 136835.65307550 5069.76118627
0.24700001 134836.55790917 5015.92019150
0.24800001 132869.73426847 5955.22177163
0.24900001 130933.22682917 5891.99548605
0.25000001 129029.44340773 4857.95877412
0.25100001 127155.46108379 5287.12432199
0.25200001 125313.20124153 5706.76345452
0.25300001 123498.92254783 5175.84008885
0.25400001 121714.61525681 5121.14267922
0.25500001 119957.22538648 5527.62920733
0.25600001 118228.93710491 5469.27088924
0.25700001 116527.11215811 6764.39918082
0.25800001 114852.13205770 4908.20609571
0.25900001 113204.39040538 4414.97143470
0.26000001 111581.46949095 5242.09768472
0.26100001 109983.63791018 5186.82860927
0.26200001 108412.05949406 4704.54154435
0.26300001 106863.01468753 5078.13069824
0.26400001 105339.00841853 4605.94836105
0.26500001 103838.28027841 6629.03612665
0.26600001 102360.06029771 4509.47266980
0.26700001 100904.68076544 6490.18937395
0.26800001 99471.75871514  5619.15991572
0.26900001 98059.59579983  6354.26210852
0.27000001 96669.45256962  4322.57477620
0.27100001 95299.71718937  5443.52010346
0.27200001 93951.34449383  4232.03851300
0.27300001 92622.27468251  5710.16350441
0.27400001 91312.03572315  4519.94598220
0.27500001 90022.73470208  4099.63553235
0.27600001 88750.28081360  3687.57434232
0.27700001 87498.46081709  4013.55458763
0.27800001 86263.77230583  4332.16685023
0.27900001 85047.32118716  5000.78272248
0.28000001 83847.96962480  4241.03050434
0.28100001 82666.27096835  3496.78342746
0.28200001 81501.62730921  4843.64194023
0.28300001 80353.70067705  3423.06781086
0.28400001 79221.31667375  3725.38259291
0.28500001 78105.48346566  5361.16063883
0.28600001 77005.42157852  3646.59191145
0.28700001 75921.41275691  3607.78570497
0.28800001 74850.96717376  4542.70541280
0.28900001 73797.42048173  3852.22553149
0.29000001 72757.53072883  4763.79954996
0.29100001 71732.81959072  3456.08741147
0.29200001 70721.91984281  3419.05137664
0.29300001 69725.37236295  3997.35578679
0.29400001 68741.84886540  3041.82695628
0.29500001 67773.29834986  3610.96150701
0.29600001 66816.84990860  3274.35988477
0.29700001 65873.74926408  4122.37942409
0.29800001 64944.30178270  2912.75207284
0.29900001 64027.83109183  2881.25253553
0.30000001 63123.01922944  3135.00489844
0.30100001 62231.79759292  3382.92067730
0.30200001 61351.85156754  3067.28596433
0.30300001 60484.81668755  3033.91854868
0.30400001 59629.48785027  3546.46395779
0.30500001 58786.70780373  3237.97201912
0.30600001 57954.18372469  3736.30640162
0.30700001 57134.37208873  3431.49055011
0.30800001 56325.56630728  3654.96617072
0.30900001 55528.20194211  2840.26766381
0.31000001 54742.04190480  2553.71637576
0.31100001 53966.53413212  2778.19730866
0.31200001 53202.80798317  2497.87195307
0.31300001 52449.14730953  3211.46144181
0.31400001 51707.69018828  2443.18847707
0.31500001 50975.19119625  2657.84659481
0.31600002 50254.82208875  2867.54028416
0.31700002 49544.03817727  2363.25073295
0.31800002 48843.55599916  2804.59711827
0.31900002 48153.91326219  2773.66553523
0.32000002 47474.56438159  3200.26053649
0.32100002 46804.95674968  2260.67951805
0.32200002 46146.55135383  3577.28083033
0.32300002 45496.33051976  2211.12176796
0.32400002 44857.36494807  3061.51530267
0.32500002 44228.05112524  2595.30216292
0.32600002 43608.59409146  2566.80196977
0.32700002 42999.09097267  2961.77752645
0.32800002 42400.17933372  2929.42852888
0.32900002 41808.86295681  2276.49269580
0.33000002 41228.61346682  2047.00075556
0.33100002 40656.84323251  2429.65306663
0.33200002 40096.15157667  3204.48458576
0.33300002 39544.08087525  2179.27440023
0.33400002 39002.12106117  2939.78501420
0.33500002 38469.14594069  2132.72955195
0.33600002 37945.09338197  1918.12456129
0.33700002 37430.43038041  2277.26749219
0.33800002 36925.78845624  2440.97936150
0.33900002 36429.48046457  1857.90359168
0.34000002 35942.73808265  2390.01248199
0.34100002 35465.00400789  2729.03218765
0.34200002 34997.20071478  1980.66666826
0.34300002 34537.69740462  2138.57432458
0.34400002 34088.04859279  2469.67923751
0.34500002 33646.79106911  2270.14910095
0.34600002 33215.18931139  3111.93123397
0.34700002 32791.54768887  2396.40641860
0.34800002 32377.46354232  3220.42456376
0.34900002 31971.87839844  2014.22843450
0.35000002 31575.43500152  2327.42542419
0.35100002 31188.47071175  1811.42646473
0.35200002 30808.74023158  2446.98430879
0.35300002 30439.01799783  1777.94312546
0.35400002 30077.20067914  1601.61101202
0.35500002 29724.58006079  1904.75118051
0.35600002 29379.86178513  2045.27917505
0.35700002 29043.81063356  1871.58324587
0.35800002 28716.59575732  1855.66650573
0.35900002 28398.35068916  2760.31981773
0.36000002 28088.05337800  2129.35542744
0.36100002 27785.59696819  1961.38538289
0.36200002 27493.00783681  1796.39321715
0.36300002 27207.13885466  2079.71379256
0.36400002 26930.28547423  1916.76315942
0.36500002 26660.55050545  1756.39715050
0.36600002 26400.07218738  1453.32404276
0.36700002 26146.92824638  2164.96576135
0.36800002 25902.74111315  1433.71678853
0.36900002 25666.10811131  2136.70360148
0.37000002 25436.91308860  1415.56428044
0.37100002 25215.35488250  2391.92867746
0.37200002 25002.40950930  2098.32731747
0.37300002 24796.78234207  2086.64933293
0.37400002 24598.48299810  1383.66473419
0.37500002 24408.11605797  1514.27959197
0.37600002 24225.32937912  1780.92517367
0.37700002 24049.82701591  1909.07535896
0.37800002 23881.58412341  1764.96855825
0.37900002 23721.60417982  1487.34465253
0.38000002 23567.85665425  1346.90307160
0.38100002 23420.59083031  1878.79988541
0.38200002 23281.70696842  2006.30119305
0.38300002 23148.84119381  1466.71064752
0.38400002 23023.44922403  1728.48553238
0.38500002 22903.99694508  1591.36978313
0.38600002 22792.60264368  1587.73277538
0.38700002 22686.61307342  1848.50532080
0.38800002 22587.40680300  1581.57029927
0.38900002 22494.69601419  1447.53375709
0.39000002 22408.74083305  1708.55452576
0.39100002 22328.28844551  1838.06479192
0.39200002 22254.81139257  1705.49755187
0.39300002 22186.61699972  1835.72077753
0.39400002 22125.78433765  1573.14334094
0.39500002 22069.39987941  1966.38362242
0.39600002 22019.01769705  2097.97210557
0.39700002 21973.91339977  2361.31684581
0.39800002 21935.42539041  1312.83527182
0.39900002 21901.36312960  1839.71459005
0.40000002 21873.03697913  1447.22956029
0.40100002 21849.59784463  1581.03697495
0.40200002 21831.79314917  1451.70515424
0.40300002 21818.74497270  1851.10241119
0.40400002 21810.62503240  1457.49508685
0.40500002 21806.78805480  1593.64014655
0.40600002 21808.72103639  1464.56473059
0.40700002 21814.26994596  1468.53672234
0.40800002 21824.57125732  2008.40626512
0.40900002 21838.75489207  1611.70018740
0.41000002 21857.72533993  1482.28171416
0.41100002 21880.61870587  1487.44453010
0.41200002 21906.55350202  1357.11105375
0.41300002 21937.95874960  2043.52095435
0.41400002 21972.02886128  1641.31063371
0.41500002 22009.88930456  1922.78402075
0.41600002 22050.26089580  1517.16827282
0.41700002 22095.49690410  1523.92649369
0.41800002 22144.21109453  1391.76373324
0.41900002 22194.41191749  1398.24801706
0.42000002 22248.15816416  1545.46838010
0.42100002 22305.45164141  2400.28976487
0.42200002 22365.31865567  1702.89544314
0.42300002 22427.29766119  1711.65143861
0.42400002 22491.82445093  2294.16620271
0.42500002 22559.37852784  1585.69879186
0.42600002 22627.86904128  1594.24658885
0.42700002 22699.82553793  1457.32886859
0.42800002 22772.97705250  1758.52937133
0.42900002 22848.94895731  1768.50873310
0.43000002 22926.64885506  1926.87029433
0.43100002 23004.48019544  1937.89750350
0.43200002 23085.25172438  1499.38717055
0.43300002 23166.70989691  1508.15288576
0.43400002 23250.12564876  1517.07077047
0.43500002 23334.02677172  1526.04542319
0.43600002 23419.94821927  1842.21321423
0.43700002 23505.99762750  2007.64735251
0.43800002 23592.48565446  2485.70440635
0.43900002 23680.85800331  1719.23037251
0.44000002 23769.17871361  2044.03062034
0.44100002 23858.42400631  2214.53902121
0.44200002 23947.89604034  1750.47154402
0.44300002 24037.85080667  1761.01303355
0.44400002 24127.88064129  1610.53610913
0.44500002 24217.40512971  1620.14447996
0.44600002 24306.95808140  1792.75977825
0.44700002 24397.47295082  1639.51025999
0.44800002 24486.65707548  2143.92936185
0.44900002 24576.01475178  1824.76918180
0.45000002 24665.37165179  1668.61247132
0.45100002 24753.37323093  1846.10666305
0.45200002 24841.23917952  2531.94342337
0.45300002 24928.05930233  2037.12110273
0.45400002 25014.31353234  2219.39507334
0.45500002 25100.04311305  2060.21163636
0.45600002 25184.22181507  2244.29203341
0.45700002 25267.88007907  1909.49378807
0.45800002 25349.82884502  2094.40295844
0.45900002 25430.75157894  1930.19413632
0.46000002 25510.81866743  2469.70247224
0.46100002 25588.59769946  2127.94788554
0.46200002 25665.72546864  1960.73319011
0.46300002 25741.11178744  2329.05590491
0.46400002 25814.44061759  2340.72451394
0.46500002 25887.19980964  2714.27302868
0.46600002 25957.19639593  2363.79220183
0.46700002 26025.39464915  3105.87074464
0.46800002 26092.52212185  2202.73082193
0.46900002 26156.94813210  2581.69090300
0.47000002 26219.52318278  2037.65034073
0.47100002 26280.27986175  2046.70829264
0.47200002 26339.11408975  2055.63625657
0.47300002 26395.65477841  2252.07737244
0.47400002 26449.33731915  2449.86998530
0.47500002 26501.33853748  3595.17175640
0.47600002 26551.85987363  2659.69992961
0.47700002 26598.63324290  3051.39535026
