# SAXS profile: number of points = 501, q_min = 0, q_max = 0.5, delta_q = 0.001
#    q    intensity    error
0.00000000 1682732.95097188 378.61491397
0.00100000 1682651.09416277 555.27487426
0.00200000 1682405.47042419 1059.91547993
0.00300000 1681996.28825667 1211.03737069
0.00400000 1681423.40445922 1387.17436139
0.00500000 1680687.38112087 1815.14244346
0.00600000 1679788.07890138 2292.91082105
0.00700000 1678726.06624925 2618.81277219
0.00800000 1677501.15508177 2491.08932047
0.00900000 1676114.60775925 2514.17201911
0.01000000 1674565.76443632 3868.24708288
0.01100000 1672855.96053163 4516.71129009
0.01200000 1670985.02437555 4235.94722251
0.01300000 1668954.20402314 4205.76477963
0.01400000 1666763.46771734 4125.23976548
0.01500000 1664414.21547067 4793.51315401
0.01600000 1661905.90453415 4661.64627061
0.01700000 1659240.83875665 6719.92569841
0.01800000 1656418.72047546 5664.95227894
0.01900000 1653440.54580833 6944.45060575
0.02000000 1650307.25575860 5718.31489988
0.02100000 1647020.86915765 9239.78749489
0.02200000 1643580.05907491 7938.49204600
0.02300000 1639988.00791686 5903.95709724
0.02400000 1636244.16580419 6749.50749170
0.02500000 1632351.24201468 6366.17013460
0.02600000 1628308.95634489 7254.11673231
0.02700000 1624119.69023345 7503.43331254
0.02800000 1619783.15545126 10569.08557401
0.02900000 1615301.94893991 10176.40274556
0.03000000 1610677.37879981 11983.44024909
0.03100000 1605909.85174398 10020.87793597
0.03200000 1601000.66491116 11094.93511885
0.03300000 1595953.73588432 10581.17375671
0.03400000 1590767.15025310 10856.98630142
0.03500000 1585444.11478116 9417.53847668
0.03600000 1579986.10237948 10522.70792814
0.03700000 1574394.48263022 16153.28813884
0.03800000 1568671.07535875 10094.39883710
0.03900000 1562817.85745867 9376.90757900
0.04000000 1556834.76523600 12446.89452484
0.04100000 1550725.72337008 11723.48701226
0.04200000 1544491.52083408 13946.75908016
0.04300000 1538133.02814526 10151.67845698
0.04400000 1531653.88774056 13440.26348912
0.04500000 1525055.44691536 13679.74799446
0.04600000 1518337.57067376 16056.42055629
0.04700000 1511504.74662225 14147.68508636
0.04800000 1504557.05558047 13270.19384766
0.04900000 1497498.53832148 11231.23956020
0.05000000 1490328.79589392 11401.01581949
0.05100000 1483052.09027080 11567.80684299
0.05200000 1475666.95766824 18770.48457627
0.05300000 1468179.31154823 21406.05536028
0.05400000 1460589.26966079 14459.83444396
0.05500000 1452899.25535981 17086.09604009
0.05600000 1445110.58385383 13591.26567537
0.05700000 1437227.93801642 13754.27200885
0.05800000 1429250.38892269 15178.63983909
0.05900000 1421180.68093605 19185.94008873
0.06000000 1413022.55497414 20686.65117128
0.06100000 1404777.34320039 15677.31588274
0.06200000 1396447.00686824 15835.70979810
0.06300000 1388034.99728295 14657.65025663
0.06400000 1379539.94973929 21520.82422239
0.06500000 1370968.32115036 24430.65662571
0.06600000 1362320.43836322 16429.58525538
0.06700000 1353598.19509799 16568.04268337
0.06800000 1344804.67164633 15310.60190337
0.06900000 1335942.81696011 16832.88028179
0.07000000 1327012.68448783 15545.95432677
0.07100000 1318018.21742127 17081.51689784
0.07200000 1308960.98013558 21499.68510592
0.07300000 1299844.45613085 15871.10155301
0.07400000 1290669.96967584 15972.04162325
0.07500000 1281440.15617264 18990.94400463
0.07600000 1272155.55403095 16162.73707168
0.07700000 1262821.65383816 14775.01404268
0.07800000 1253438.48868685 17823.89614500
0.07900000 1244008.29797540 19406.53035865
0.08000000 1234535.29104453 17999.52538781
0.08100000 1225020.45328262 18081.30273879
0.08200000 1215465.08618894 16645.79513646
0.08300000 1205872.93826801 18232.79968231
0.08400000 1196245.72597000 22878.20058305
0.08500000 1186585.76052656 19899.04413819
0.08600000 1176895.17804614 16894.33107407
0.08700000 1167177.59662895 21569.44299855
0.08800000 1157432.11700201 18542.06338518
0.08900000 1147664.53096546 21690.86065406
0.09000000 1137874.67916992 18638.38812035
0.09100000 1128065.56488356 24907.68884282
0.09200000 1118238.46554642 20279.25552554
0.09300000 1108398.83786225 20316.95165275
0.09400000 1098543.27982929 17219.66672060
0.09500000 1088677.68152785 17244.65528595
0.09600000 1078803.23693758 17266.24661883
0.09700000 1068924.22009595 17284.50545154
0.09800000 1059040.46204861 20444.77708111
0.09900000 1049154.67236982 22032.24915578
0.10000000 1039267.80126208 18893.88951547
0.10100000 1029382.19009394 15749.54824917
0.10200000 1019500.98395216 18901.54913153
0.10300000 1009624.94019238 17325.16478869
0.10400000 999757.56322613 26768.51001471
0.10500000 989901.24117612 22035.20266532
0.10600001 980053.36018357 23594.78575664
0.10700001 970221.58323065 18861.10846556
0.10800001 960404.14115541 18843.13013626
0.10900001 950604.83670182 18821.97665256
0.11000001 940823.72539587 17231.18734169
0.11100001 931064.09911494 17206.06536159
0.11200001 921326.55179247 21863.08010329
0.11300001 911613.74737240 20265.17455819
0.11400001 901927.30689606 15558.24677651
0.11500001 892269.47822682 18630.58758265
0.11600001 882640.48302636 20137.44356855
0.11700001 873043.93515406 21634.02973197
0.11800001 863478.48914575 26202.25598721
0.11900001 853947.25951857 18445.26167440
0.12000001 844451.07991712 16859.46660471
0.12100001 834995.22461942 18336.49599644
0.12200001 825576.38062579 16755.07343415
0.12300001 816199.56794124 24290.10028634
0.12400001 806863.11415379 25718.76297546
0.12500001 797569.51903674 19596.28400612
0.12600001 788322.03959986 19522.79623067
0.12700001 779120.08491202 16455.01696881
0.12800001 769965.18615333 23838.12328678
0.12900001 760858.95964389 16320.42545358
0.13000001 751802.75015503 14772.92473687
0.13100001 742796.99737453 19119.59561367
0.13200001 733843.51367074 24888.30393939
0.13300001 724944.13154767 17485.65327726
0.13400001 716097.56109177 20301.36681407
0.13500001 707308.14155436 21643.63015202
0.13600001 698574.98677948 18662.43165176
0.13700001 689899.33105425 15709.00850884
0.13800001 681280.82877004 19886.58832956
0.13900001 672723.75284634 14127.19947599
0.14000001 664225.80675704 15453.21412299
0.14100001 655790.27900755 19555.66704231
0.14200001 647416.28384567 18053.20392652
0.14300001 639106.37095585 16565.63791654
0.14400001 630857.41655953 16465.37934887
0.14500001 622675.83200069 19091.24190972
0.14600001 614558.41499926 16261.21642799
0.14700001 606508.35318909 14810.93468361
0.14800001 598522.55241678 16052.37561315
0.14900001 590604.93219208 18604.05624180
0.15000001 582754.79096022 13199.39663803
0.15100001 574973.29006923 17042.20912179
0.15200001 567261.73634274 13018.65746338
0.15300001 559619.39504313 14219.92949907
0.15400001 552045.10312445 12835.04925334
0.15500001 544542.83724799 15290.76359154
0.15600001 537109.35357832 20238.28139798
0.15700001 529750.10465499 12555.07807288
0.15800001 522458.83399478 16198.83691257
0.15900001 515241.88265793 14838.96692096
0.16000001 508094.39701790 12270.48026718
0.16100001 501021.63137795 18262.23932578
0.16200001 494020.70366521 16910.32948473
0.16300001 487092.20783694 11982.46887846
0.16400001 480237.28742385 19017.39747979
0.16500001 473454.26251657 15325.71520121
0.16600001 466745.46487393 12861.17189182
0.16700001 460108.66289300 16232.63439328
0.16800001 453545.39784380 14946.58929167
0.16900001 447056.73691745 18239.91572749
0.17000001 440640.06534685 12432.66003083
0.17100001 434297.39704384 14566.33538469
0.17200001 428027.53541092 11107.31506843
0.17300001 421831.25354774 11009.79623753
0.17400001 415708.77033528 15277.29803131
0.17500001 409658.18398790 16222.46485207
0.17600001 403679.28731677 11789.45414289
0.17700001 397775.99950069 10620.61968829
0.17800001 391943.43399380 16837.89071966
0.17900001 386182.76964749 11469.62880028
0.18000001 380495.92989148 12396.55798142
0.18100001 374881.24977838 13304.53618309
0.18200001 369335.67438097 15207.39711100
0.18300001 363862.75680082 12051.13507453
0.18400001 358460.46905640 14920.91772935
0.18500001 353129.53395141 13793.24024776
0.18600001 347869.07758410 14636.59213083
0.18700001 342677.65588052 11596.21242286
0.18800001 337554.49310692 11483.60439805
0.18900001 332504.21922206 12319.28190423
0.19000001 327518.68421581 15013.45719382
0.19100001 322604.26557378 10220.10361628
0.19200001 317756.05014287 13798.55712945
0.19300001 312977.26716371 10018.40279531
0.19400001 308263.57306123 11721.72291955
0.19500001 303617.33171541 9818.98497167
0.19600001 299035.71777491 10603.80705340
0.19700001 294521.65381184 11371.48159106
0.19800001 290071.26484106 15585.52979646
0.19900001 285685.63541548 15427.02504152
0.20000001 281362.70508315 10179.70315101
0.20100001 277104.56947739 8396.26885199
0.20200001 272907.80945886 12465.06478618
0.20300001 268773.84797972 10691.82417798
0.20400001 264701.53052890 9767.48693818
0.20500001 260689.66393510 10471.90429525
0.20600001 256738.02280187 9566.05918177
0.20700001 252846.38049151 10255.44967750
0.20800001 249013.36548019 10929.19712755
0.20900001 245241.06690735 9270.11276731
0.21000001 241523.53823525 10701.90848511
0.21100001 237865.05907000 7564.10923601
0.21200001 234261.79114519 8981.59749711
0.21300001 230714.40190643 8146.52591645
0.21400001 227222.53504067 12457.47607255
0.21500001 223786.42708823 7250.68058045
0.21600001 220402.42650392 7891.50925407
0.21700001 217072.61951902 9227.75749204
0.21800001 213795.15725955 9130.12262245
0.21900001 210568.63049225 7643.64164827
0.22000001 207393.07235538 8937.60487575
0.22100001 204269.51408365 8162.61016874
0.22200001 201195.14997680 8075.97370194
0.22300001 198169.56015441 7324.34728964
0.22400001 195191.78025893 6587.72289525
0.22500001 192263.98907265 8473.07439910
0.22600001 189381.22765180 9027.80354907
0.22700001 186546.03455690 8293.83708861
0.22800001 183755.65947876 7574.40864191
0.22900001 181010.10787018 7493.81882022
0.23000001 178309.44643603 6796.26487232
0.23100001 175653.58175171 9780.39189448
0.23200001 173039.06471301 7862.03027706
0.23300001 170467.90291676 7778.45077797
0.23400001 167937.40680317 7695.73203073
0.23500001 165447.96469397 7028.22987261
0.23600001 162999.32199326 9850.86449058
0.23700001 160590.29632330 7452.99600488
0.23800001 158219.91098625 6806.62089257
0.23900001 155888.32806086 5611.98007564
0.24000001 153593.81489376 7773.38333946
0.24100001 151337.53924772 5493.55293454
0.24200001 149117.79528090 6522.41267411
0.24300001 146933.25878367 7528.86053621
0.24400001 144783.91660670 6917.05194309
0.24500001 142668.93390543 7896.72586522
0.24600001 140588.15390577 6771.42875319
0.24700001 138541.39602782 5669.11419364
0.24800001 136527.17968521 5099.29040247
0.24900001 134543.77909723 6559.00954128
0.25000001 132593.47651503 6989.00247774
0.25100001 130673.50388391 6915.24215269
0.25200001 128785.79280103 6842.38949523
0.25300001 126926.44278438 5803.07723865
0.25400001 125097.52743944 6220.47484622
0.25500001 123295.84873935 6628.38514183
0.25600001 121523.98529140 5153.22484009
0.25700001 119779.05781499 6026.08468379
0.25800001 118061.18880749 5045.34514240
0.25900001 116371.28474249 4992.32835166
0.26000001 114706.51616682 5388.91238450
0.26100001 113067.41524206 5776.61451804
0.26200001 111454.71083132 5715.95511545
0.26300001 109865.42744875 6526.00669925
0.26400001 108301.25512229 5596.46762326
0.26500001 106760.99919652 4685.74047646
0.26600001 105243.75877779 5479.51656005
0.26700001 103749.69252320 4170.73783679
0.26800001 102278.69109031 6190.41807118
0.26900001 100828.70613022 4900.27534982
0.27000001 99401.19813427  4848.79067445
0.27100001 97994.64707425  4397.99996882
0.27200001 96609.74843443  3956.16938561
0.27300001 95244.91597712  5088.93610149
0.27400001 93898.91374222  3873.33037517
0.27500001 92574.66307726  5365.62772589
0.27600001 91267.59045208  4550.60227530
0.27700001 89981.52108826  4502.67552835
0.27800001 88712.96442679  4083.90151067
0.27900001 87463.15523288  4408.14323237
0.28000001 86230.84914385  3634.63046343
0.28100001 85016.59503931  3955.82235440
0.28200001 83819.83088880  3913.96718860
0.28300001 82640.18954195  5280.70836167
0.28400001 81476.49773297  4528.05657583
0.28500001 80329.93795185  4135.38540149
0.28600001 79199.36978353  4432.39293973
0.28700001 78085.24329350  3710.61093694
0.28800001 76985.18640669  4004.76958643
0.28900001 75902.41934424  4292.28201709
0.29000001 74833.62013514  5226.38027763
0.29100001 73780.43550549  3877.89987373
0.29200001 72741.54784979  3516.69029726
0.29300001 71717.26785163  3795.27799436
0.29400001 70706.53821295  3441.64091043
0.29500001 69710.98876666  3095.16804776
0.29600001 68728.01591885  3368.01657954
0.29700001 67758.80297229  3937.46422711
0.29800001 66803.61968624  4494.21372714
0.29900001 65861.76488913  3260.15751635
0.30000001 64931.78159999  3518.00409363
0.30100001 64016.01395258  3479.91068320
0.30200001 63111.66438129  3442.11033831
0.30300001 62220.73365399  3120.99214784
0.30400001 61341.84904862  3087.02869952
0.30500001 60475.80127756  2775.83941005
0.30600001 59620.34386078  3569.17205420
0.30700001 58777.90405979  3258.64715535
0.30800001 57946.84455335  2954.42000943
0.30900001 57127.69099995  2922.08153299
0.31000001 56320.10385682  3678.26615704
0.31100001 55523.32490932  3378.03924742
0.31200001 54738.69309748  3083.97811513
0.31300001 53964.45853057  4320.93439912
0.31400001 53202.66978465  2513.82626635
0.31500001 52450.18705095  3231.98067910
0.31600002 51710.23939446  4425.87959933
0.31700002 50980.20526303  2431.75590619
0.31800002 50260.59489959  4328.94524367
0.31900002 49552.26117537  3092.06124375
0.32000002 48854.60508791  2587.58428100
0.32100002 48166.81587844  2559.10304880
0.32200002 47490.52324619  2991.19074830
0.32300002 46822.92317455  3868.51009586
0.32400002 46166.75538194  2925.81826087
0.32500002 45520.32348724  3338.91588589
0.32600002 44884.04630319  2421.71883296
0.32700002 44258.18473279  2613.00335036
0.32800002 43643.05625793  3446.05588531
0.32900002 43035.90331844  2556.33277817
0.33000002 42439.95406666  2528.57258303
0.33100002 41852.75893479  2292.69424302
0.33200002 41276.93375962  2680.31782061
0.33300002 40710.00628261  3059.35711702
0.33400002 40153.23483793  2017.70014616
0.33500002 39605.95097793  2395.36802858
0.33600002 39067.69164836  2567.33347825
0.33700002 38539.03190293  2735.50061401
0.33800002 38020.72110277  1933.35375963
0.33900002 37510.92208588  1913.05711698
0.34000002 37010.84382217  2650.34665162
0.34100002 36520.17221595  1873.48492340
0.34200002 36039.43787127  2039.65208292
0.34300002 35567.24170578  2752.90463840
0.34400002 35105.16056205  2180.03057415
0.34500002 34651.69054466  2158.10738933
0.34600002 34208.15532658  2136.64148289
0.34700002 33772.56982586  2291.80669693
0.34800002 33346.92452154  1920.28273952
0.34900002 32929.85752452  2593.22640288
0.35000002 32522.14475337  1883.52010260
0.35100002 32124.09908723  2204.99826578
0.35200002 31733.40918743  2352.39773448
0.35300002 31352.94133182  1997.80951629
0.35400002 30980.48272396  1979.65293982
0.35500002 30617.43031953  1634.97085650
0.35600002 30262.59298281  1782.61812409
0.35700002 29916.41374498  2570.41839072
0.35800002 29579.28535238  2707.83580584
0.35900002 29251.24800426  2527.30794728
0.36000002 28931.32804784  1723.29463679
0.36100002 28619.42139131  1554.03465516
0.36200002 28317.53274507  2004.45665030
0.36300002 28022.45511342  1989.03395817
0.36400002 27736.52243758  2126.00454554
0.36500002 27457.93502744  2411.90512706
0.36600002 27188.61041910  2095.42630426
0.36700002 26926.81470870  1783.63229079
0.36800002 26674.09550324  2214.61688406
0.36900002 26429.05166243  1613.49368042
0.37000002 26191.49033943  1894.82345836
0.37100002 25961.69923932  1883.26175203
0.37200002 25740.71441219  1872.25095146
0.37300002 25527.12511738  2148.10768038
0.37400002 25321.02141969  1566.73827456
0.37500002 25122.83908131  1558.62101044
0.37600002 24932.33636404  1550.91605699
0.37700002 24749.34252961  1964.60290307
0.37800002 24573.52932426  1816.10677074
0.37900002 24406.12751482  1808.49413452
0.38000002 24245.14308190  1939.85398988
0.38100002 24090.67022339  1656.47456303
0.38200002 23944.58855582  1513.17834547
0.38300002 23804.80300921  1782.50373377
0.38400002 23672.39976300  1777.20549640
0.38500002 23546.09553574  1499.65089572
0.38600002 23427.81725682  1631.98182742
0.38700002 23315.14015347  1628.32946546
0.38800002 23209.11749072  1895.95289764
0.38900002 23109.84783671  1892.69662749
0.39000002 23017.34506420  1484.96408717
0.39100002 22930.40067458  1752.79991061
0.39200002 22850.56503959  1751.15313477
0.39300002 22775.93565793  1615.26943339
0.39400002 22708.75829213  2018.24098883
0.39500002 22646.05948930  1345.17599740
0.39600002 22589.50925174  2017.80800951
0.39700002 22538.21943094  1883.74446929
0.39800002 22493.62174298  2153.98932016
0.39900002 22453.45098065  1481.92783493
0.40000002 22419.06720797  1348.50695645
0.40100002 22389.65866916  1485.10612989
0.40200002 22365.85465329  1487.21757563
0.40300002 22346.91178825  1625.06750224
0.40400002 22332.85664558  1763.73743715
0.40500002 22323.20351032  1767.32810565
0.40600002 22319.25898246  1907.62715562
0.40700002 22319.10681761  1775.70822254
0.40800002 22323.50798570  1643.45673578
0.40900002 22331.99199886  1373.41757300
0.41000002 22345.33956985  1653.10829970
0.41100002 22362.51872651  1658.40446734
0.41200002 22382.79468418  1663.93703566
0.41300002 22408.54554857  1809.04196785
0.41400002 22436.99896350  1396.70325166
0.41500002 22469.15971498  1822.69832244
0.41600002 22503.95965433  1970.67184031
0.41700002 22543.60920444  1837.52967332
0.41800002 22586.86601730  1419.58459645
0.41900002 22631.40954206  1710.93464245
0.42000002 22679.66278535  1432.22077276
0.42100002 22731.52009492  2158.35793529
0.42200002 22785.75754604  1734.90766176
0.42300002 22842.29453949  1743.32400186
0.42400002 22901.34242903  1897.94884374
0.42500002 22963.39661649  2201.04166999
0.42600002 23026.44902497  1917.29736892
0.42700002 23092.88987952  1779.07632062
0.42800002 23160.60284487  2235.57729554
0.42900002 23231.14954069  2547.29566784
0.43000002 23303.39360539  1958.53380837
0.43100002 23375.78797726  1969.17647252
0.43200002 23451.10980787  2284.72448130
0.43300002 23527.14906994  1837.94097244
0.43400002 23605.09005897  2002.30185914
0.43500002 23683.64354069  1703.80139706
0.43600002 23764.06922451  2803.92266067
0.43700002 23844.72485635  1723.25834703
0.43800002 23925.81575002  2205.72105852
0.43900002 24008.76079257  2218.40960236
0.44000002 24091.61227718  2071.75829596
0.44100002 24175.43842257  1923.39797205
0.44200002 24259.49774583  2256.86118225
0.44300002 24343.98816946  1783.44065781
0.44400002 24428.58020766  1793.66858675
0.44500002 24512.70626479  2295.86017756
0.44600002 24596.76560535  1814.13453320
0.44700002 24681.94284929  1658.62663808
0.44800002 24765.64389908  2001.55943478
0.44900002 24849.70298540  2851.50355271
0.45000002 24933.62909803  2530.14013263
0.45100002 25016.21084512  1865.70909325
0.45200002 25098.68058648  1705.45542668
0.45300002 25179.96945201  2057.70720114
0.45400002 25260.87035945  2241.27082886
0.45500002 25341.20528581  2426.67393318
0.45600002 25419.96482339  2788.06187397
0.45700002 25498.18345760  2277.24287253
0.45800002 25574.74818359  2289.06794466
0.45900002 25650.21862641  2123.83820292
0.46000002 25724.88752885  1778.87605693
0.46100002 25797.27544917  1966.52640069
0.46200002 25868.94507369  1976.25815257
0.46300002 25938.99579246  1985.88961199
0.46400002 26006.94048528  2358.17944027
0.46500002 26074.32070901  2733.89265591
0.46600002 26138.90301964  2563.44234063
0.46700002 26201.69778314  2207.23112587
0.46800002 26263.48050563  2032.39953526
0.46900002 26322.46651573  2969.17436370
0.47000002 26379.77709816  2236.47760838
0.47100002 26435.20595316  2245.93520423
0.47200002 26488.65043540  2067.30682122
0.47300002 26539.92430771  2264.38644926
0.47400002 26588.31887639  2273.30137168
0.47500002 26634.96564523  2472.25762837
0.47600002 26680.09340739  2099.85685116
0.47700002 26721.65848322  2873.91450609
