# SAXS profile: number of points = 501, q_min = 0, q_max = 0.5, delta_q = 0.001
#    q    intensity    error
0.00000000 1664650.74656091 324.60689558
0.00100000 1664569.41594277 549.30792031
0.00200000 1664325.36989245 823.84108418
0.00300000 1663918.81530109 1297.85672217
0.00400000 1663349.62373278 1996.01962432
0.00500000 1662618.32850596 1945.26352135
0.00600000 1661724.80834347 2268.25445573
0.00700000 1660669.61928180 2590.64471375
0.00800000 1659452.60440450 2688.31333264
0.00900000 1658074.97380671 2735.82382373
0.01000000 1656536.12090356 3553.27013277
0.01100000 1654837.31670788 4170.19021967
0.01200000 1652978.44770845 3545.63892579
0.01300000 1650960.72809944 3813.71945011
0.01400000 1648784.09690969 4451.71725901
0.01500000 1646450.03913589 5532.07237783
0.01600000 1643957.93291471 5449.72079123
0.01700000 1641310.05358846 5317.84481218
0.01800000 1638506.25865288 5136.71735202
0.01900000 1635547.29146565 4906.64209580
0.02000000 1632434.33690103 6684.81891200
0.02100000 1629169.28257144 6989.13653911
0.02200000 1625750.78422826 6169.72450645
0.02300000 1622182.10971850 7007.82703297
0.02400000 1618462.58208745 7283.08195148
0.02500000 1614594.97169127 6926.61274490
0.02600000 1610579.01008794 7827.41434704
0.02700000 1606417.07016604 10120.42800557
0.02800000 1602108.92992532 7666.09158126
0.02900000 1597657.00987310 7908.40256198
0.03000000 1593062.77892144 8148.51648873
0.03100000 1588326.40871052 9148.76053514
0.03200000 1583449.42929833 7838.07503603
0.03300000 1578435.76496615 12880.03643590
0.03400000 1573283.30570536 12389.60660409
0.03500000 1567995.47461249 9313.89354930
0.03600000 1562573.36205687 11273.96732825
0.03700000 1557018.75575198 10650.00878188
0.03800000 1551333.27349665 13612.95010493
0.03900000 1545518.83981930 12982.35885570
0.04000000 1539575.52389051 15149.42385709
0.04100000 1533507.17812015 10627.20523712
0.04200000 1527314.45144569 12806.53226950
0.04300000 1520998.48658088 13050.16762063
0.04400000 1514562.77430842 15334.94880206
0.04500000 1508008.51353514 12486.31107225
0.04600000 1501335.79834094 11642.85965737
0.04700000 1494548.99046925 17217.20517094
0.04800000 1487648.26765196 10934.21527599
0.04900000 1480637.37171808 15546.69312670
0.05000000 1473516.07881316 13526.87823340
0.05100000 1466288.78056119 13724.46362539
0.05200000 1458953.95668362 18557.89519384
0.05300000 1451517.34103246 11757.29101046
0.05400000 1443979.28089116 13104.11258518
0.05500000 1436341.88751437 12065.27241796
0.05600000 1428606.55757581 15878.96262843
0.05700000 1420778.21019627 13596.84810626
0.05800000 1412855.76103068 13754.15147585
0.05900000 1404841.73583489 13907.93383435
0.06000000 1396740.14682049 19170.25941072
0.06100000 1388552.26756327 14204.89036099
0.06200000 1380280.02697125 19565.47029688
0.06300000 1371926.88377760 19755.74805008
0.06400000 1363491.36116932 17282.25381106
0.06500000 1354979.93604919 16097.16239325
0.06600000 1346392.93090434 16237.49950644
0.06700000 1337732.25533709 20467.30446451
0.06800000 1329001.12594905 15130.67852718
0.06900000 1320202.21707223 23565.61067806
0.07000000 1311335.72015859 15362.29868105
0.07100000 1302405.55111406 16879.17673302
0.07200000 1293413.31076709 14162.87641639
0.07300000 1284362.16508043 15682.06277042
0.07400000 1275253.96893215 18650.59016968
0.07500000 1266090.98368483 21650.15683581
0.07600000 1256873.86128461 26130.40880112
0.07700000 1247607.84827585 21895.51876389
0.07800000 1238293.37353752 14673.77716456
0.07900000 1228932.14256185 20646.06096342
0.08000000 1219528.99842731 17780.73363118
0.08100000 1210084.17123122 17860.84320537
0.08200000 1200599.60987346 16442.21242877
0.08300000 1191078.88655766 21010.63254495
0.08400000 1181523.51772336 21090.19578131
0.08500000 1171935.87400626 25700.55492347
0.08600000 1162318.09257611 15168.25182029
0.08700000 1152673.60247113 18258.35072051
0.08800000 1143001.88565781 19836.79865720
0.08900000 1133308.64590171 15299.66743829
0.09000000 1123593.55018829 16870.75794859
0.09100000 1113859.32432390 19982.63721718
0.09200000 1104107.55362436 18482.76131612
0.09300000 1094344.13362894 15430.25300927
0.09400000 1084564.90771808 17000.55572746
0.09500000 1074776.01962443 17024.45295105
0.09600000 1064978.52087736 18594.52584861
0.09700000 1055176.82020809 23266.64997942
0.09800000 1045370.84496069 23285.63666634
0.09900000 1035563.32988252 21746.83095012
0.10000000 1025754.76354307 27972.33371728
0.10100000 1015948.13708443 17098.40795130
0.10200000 1006146.02720496 17099.45253664
0.10300000 996349.35169869 15543.05061766
0.10400000 986561.69495923 21753.68639726
0.10500000 976785.23977554 18637.06325178
0.10600001 967017.59611951 15520.63314802
0.10700001 957266.09582145 15507.71148206
0.10800001 947529.36060635 15492.10577500
0.10900001 937810.85268287 17021.26777731
0.11000001 928110.94734103 23179.57200089
0.11100001 918432.53531324 20058.56751547
0.11200001 908776.59242907 21565.26955357
0.11300001 899145.47106502 15375.38827910
0.11400001 889540.80363674 16879.03754375
0.11500001 879964.90909593 16842.52915318
0.11600001 870418.08628109 21386.17338703
0.11700001 860903.75355879 16761.79687119
0.11800001 851420.67509039 18237.43171939
0.11900001 841972.05038656 21217.69666913
0.12000001 832558.45509271 16622.03033891
0.12100001 823185.00412405 16570.71491363
0.12200001 813849.24982049 19520.17517657
0.12300001 804554.99318141 23943.55772517
0.12400001 795301.46191916 16403.09342495
0.12500001 786090.44629875 14857.11013512
0.12600001 776926.24299778 19240.57931452
0.12700001 767807.14054480 19164.46713115
0.12800001 758735.02907251 19085.98055583
0.12900001 749711.76413461 21929.07013450
0.13000001 740738.58011589 27655.47619216
0.13100001 731815.77079685 14489.95294480
0.13200001 722945.17607623 15865.03263688
0.13300001 714128.42695273 17224.77847013
0.13400001 705364.96672813 14283.64124966
0.13500001 696657.97980402 15633.00580387
0.13600001 688007.35699848 14138.55185296
0.13700001 679414.36635314 25314.98048400
0.13800001 670878.35495925 15386.59579656
0.13900001 662403.55196712 15301.52277203
0.14000001 653987.69762153 16598.20854842
0.14100001 645634.33449375 16502.41436796
0.14200001 637342.27095965 17772.29006395
0.14300001 629114.06652070 23101.06961226
0.14400001 620946.73934031 17557.26988302
0.14500001 612846.49359181 13421.33884277
0.14600001 604810.45660982 18670.49967631
0.14700001 596841.32015263 15899.85351897
0.14800001 588936.33968341 15795.27337551
0.14900001 581099.45427049 20919.58134074
0.15000001 573329.87201554 19478.88332080
0.15100001 565628.50924473 15475.59674315
0.15200001 557996.90502235 14086.63253200
0.15300001 550434.26887012 21615.55475855
0.15400001 542939.54394861 13885.67949176
0.15500001 535516.47114368 15037.30321937
0.15600001 528162.01180317 12438.21596499
0.15700001 520881.34464263 18517.33267601
0.15800001 513668.51960703 13476.09424794
0.15900001 506529.63658281 12156.71185179
0.16000001 499459.96722252 14474.35053333
0.16100001 492464.69125511 17950.33884358
0.16200001 485541.10122159 16620.07267938
0.16300001 478689.48814493 14130.91435713
0.16400001 471910.95396185 12847.77632815
0.16500001 465204.20258677 13900.30222954
0.16600001 458571.02023378 13784.64551904
0.16700001 452009.90688888 14807.84524883
0.16800001 445521.84986837 12423.37737017
0.16900001 439107.81839627 19035.32482629
0.17000001 432765.39324358 14430.56271911
0.17100001 426496.77743682 11003.61737748
0.17200001 420300.59800874 14178.84134339
0.17300001 414177.26791551 12972.03264371
0.17400001 408127.67349105 17141.36309614
0.17500001 402149.42740103 13801.76900023
0.17600001 396242.61255748 12624.29023232
0.17700001 390411.00271219 12508.76911770
0.17800001 384649.43134078 11360.62149124
0.17900001 378959.64976099 11255.10212952
0.18000001 373342.83568191 14190.76185457
0.18100001 367797.97604180 13053.15078631
0.18200001 362322.09035546 12929.46440510
0.18300001 356917.81685428 15761.49153685
0.18400001 351584.26050836 12683.40279701
0.18500001 346321.08659283 11594.83052689
0.18600001 341128.27367179 12439.24308711
0.18700001 336004.02133922 11370.37661931
0.18800001 330947.51168528 11258.83487947
0.18900001 325963.36146788 11147.94748891
0.19000001 321043.40262958 10117.68331192
0.19100001 316194.12961665 11838.30877221
0.19200001 311410.66518147 9015.33918299
0.19300001 306696.09120991 11602.31367871
0.19400001 302046.06006909 10601.81720940
0.19500001 297462.97436989 11369.03541766
0.19600001 292944.24733532 9522.15320962
0.19700001 288492.24725613 11995.50820779
0.19800001 284103.50958532 10176.58819428
0.19900001 279779.07404045 10911.38440325
0.20000001 275516.72238322 10798.87844418
0.20100001 271318.69474568 9865.14820720
0.20200001 267181.64660856 15457.79489513
0.20300001 263106.75393389 12881.70728145
0.20400001 259093.16581303 8763.82674785
0.20500001 255139.43172768 9460.57057563
0.20600001 251245.13386387 8581.27795274
0.20700001 247410.61672953 10034.97508889
0.20800001 243633.94198727 7637.92444235
0.20900001 239917.73173037 7557.40890675
0.21000001 236255.68488126 8972.99133596
0.21100001 232652.00124417 8878.00078717
0.21200001 229103.20862084 8051.83264763
0.21300001 225609.59520723 9414.68885308
0.21400001 222171.11975953 10747.52842647
0.21500001 218787.64445323 8506.46401851
0.21600001 215456.00825530 7714.40274031
0.21700001 212177.72082699 10407.31769862
0.21800001 208951.48304519 10296.08481386
0.21900001 205775.80355320 6790.60183833
0.22000001 202650.28659376 8733.21451369
0.22100001 199576.38217351 9304.25137687
0.22200001 196550.97220483 8547.01943047
0.22300001 193573.79538421 7154.48781570
0.22400001 190644.21462694 7721.09105749
0.22500001 187763.79534062 8274.75085195
0.22600001 184927.93808112 8815.51522520
0.22700001 182139.14955005 8097.90697194
0.22800001 179394.81154797 7394.65448170
0.22900001 176694.48213062 6705.55591397
0.23000001 174038.74997560 7839.57586340
0.23100001 171427.11299119 5965.66381423
0.23200001 168856.36294461 7081.83619682
0.23300001 166328.49452086 6421.94347717
0.23400001 163840.90282004 6930.47051707
0.23500001 161393.59013871 5713.33336113
0.23600001 158986.66643558 5651.97625911
0.23700001 156618.95566377 7827.81577431
0.23800001 154289.31448680 5531.27218597
0.23900001 151997.91765886 8207.88794181
0.24000001 149743.09452897 5954.53443560
0.24100001 147526.05373795 5355.19600399
0.24200001 145345.09050952 5297.82879967
0.24300001 143198.70108328 5241.07270757
0.24400001 141087.21312697 7258.93745876
0.24500001 139009.50466101 6668.28625403
0.24600001 136965.58003800 7104.40497265
0.24700001 134955.04661976 5522.36076892
0.24800001 132976.64194834 5960.01337407
0.24900001 131028.72896856 7370.36635315
0.25000001 129113.35900354 6319.45365539
0.25100001 127227.78648656 4809.21055671
0.25200001 125374.02680636 6185.32790512
0.25300001 123548.15608641 7060.77745439
0.25400001 121752.33569655 6054.13517894
0.25500001 119983.41550182 5068.09971058
0.25600001 118243.69618668 5469.95364439
0.25700001 116530.33362374 6313.61377445
0.25800001 114843.95886207 5354.02561547
0.25900001 113184.91449199 7504.16018588
0.26000001 111550.64832175 4367.20808843
0.26100001 109941.42021195 4752.76782065
0.26200001 108358.42456103 5557.16206656
0.26300001 106798.21682322 5920.89342084
0.26400001 105263.02078569 4602.62580164
0.26500001 103751.06413197 5381.56795118
0.26600001 102261.83497007 5324.26268966
0.26700001 100795.39841891 4862.37024982
0.26800001 99351.48816765  4810.59928472
0.26900001 97928.40544223  5155.93079052
0.27000001 96527.37969716  4708.60580445
0.27100001 95146.83433703  3881.99102466
0.27200001 93787.68775963  4992.78779416
0.27300001 92448.17196838  4559.54405726
0.27400001 91127.22785806  4134.89815974
0.27500001 89827.58375710  4834.52078660
0.27600001 88544.72640646  4782.74362319
0.27700001 87282.59396252  4003.65277454
0.27800001 86037.66890544  6481.21790538
0.27900001 84811.08978949  4274.47912769
0.28000001 83601.76451875  5285.72181186
0.28100001 82410.16095357  4531.73496532
0.28200001 81235.73114686  3793.30264544
0.28300001 80077.99085466  3752.45482905
0.28400001 78936.02560827  4049.41830537
0.28500001 77810.85374606  3671.89436207
0.28600001 76701.34522861  5283.18890941
0.28700001 75608.05110292  4572.77514715
0.28800001 74528.54663988  5169.30023962
0.28900001 73465.95222085  3834.92288745
0.29000001 72417.13774226  4109.31067570
0.29100001 71383.72022851  3751.92851281
0.29200001 70364.20138749  3401.75747710
0.29300001 69359.16315255  3364.61316380
0.29400001 68367.32074189  3630.30490324
0.29500001 67390.50782878  3590.56642708
0.29600001 66425.96327319  3255.20448430
0.29700001 65475.10409666  3219.41102083
0.29800001 64537.78433208  3473.42371718
0.29900001 63613.68503837  3435.13915469
0.30000001 62701.36115398  3680.25656715
0.30100001 61802.83649231  3359.60235077
0.30200001 60915.67462639  3322.34105141
0.30300001 60041.69877635  3011.69175320
0.30400001 59179.53493926  4061.19577747
0.30500001 58330.00869516  4016.02128879
0.30600001 57490.96660194  3176.95096483
0.30700001 56664.65923316  3403.27959467
0.30800001 55849.66590936  3882.94820618
0.30900001 55046.33848724  2815.62034693
0.31000001 54254.29606486  3796.44454688
0.31100001 53473.02265257  3503.55261007
0.31200001 52703.78876494  2969.33159960
0.31300001 51944.77332850  3425.23851545
0.31400001 51198.04998737  2902.92957173
0.31500001 50460.66506146  2631.01920088
0.31600002 49735.36700543  2837.90017570
0.31700002 49019.91842587  3039.72528551
0.31800002 48314.86436432  2543.05300623
0.31900002 47621.00312905  2514.38908427
0.32000002 46937.60818472  2260.04594111
0.32100002 46263.99734464  2681.46141306
0.32200002 45601.84552243  2651.29142421
0.32300002 44948.14138252  2402.92775209
0.32400002 44305.75874611  2375.89642526
0.32500002 43673.11709985  2135.61552731
0.32600002 43050.71694053  3589.78420207
0.32700002 42438.35931681  2087.96737726
0.32800002 41836.73247714  2271.10713007
0.32900002 41242.97010978  2245.67982882
0.33000002 40660.51257421  2422.55345389
0.33100002 40086.65534110  3194.10484883
0.33200002 39524.06393405  2763.91792179
0.33300002 38970.26202345  2147.65124181
0.33400002 38426.81695095  2124.04240755
0.33500002 37892.45453382  2673.69171852
0.33600002 37367.27663729  2833.37388520
0.33700002 36851.64386790  2055.21627584
0.33800002 36346.25570796  2033.02790930
0.33900002 35849.40802381  1828.31989580
0.34000002 35362.18235692  2170.53085586
0.34100002 34884.30993871  2505.39125845
0.34200002 34416.44433443  2301.94398833
0.34300002 33957.12466472  1752.18771568
0.34400002 33507.82369884  2427.64194195
0.34500002 33067.15368352  2402.65950043
0.34600002 32636.27229606  1868.58985881
0.34700002 32213.47142692  1849.69761694
0.34800002 31800.56463320  2663.61541983
0.34900002 31396.16085789  1977.95822773
0.35000002 31001.19087919  1958.65533251
0.35100002 30615.92159136  1616.52073659
0.35200002 30237.96036094  1761.21008464
0.35300002 29870.17144247  1586.10617872
0.35400002 29510.52335717  1885.72253184
0.35500002 29160.29621978  2024.30785946
0.35600002 28818.11093405  2469.13586178
0.35700002 28484.75110869  1529.63120699
0.35800002 28160.32590873  1668.07698421
0.35900002 27845.07082827  2255.45084392
0.36000002 27538.05830125  1938.54170594
0.36100002 27238.95637781  2070.70556192
0.36200002 26949.89780569  2054.39080704
0.36300002 26667.76581508  1747.27209897
0.36400002 26394.68801060  1589.62016073
0.36500002 26129.06658180  1577.93440562
0.36600002 25872.67342354  1851.57796126
0.36700002 25623.89957643  2687.43471488
0.36800002 25384.17021134  2107.52083163
0.36900002 25152.26211020  1675.14073589
0.37000002 24927.80492214  1525.95565059
0.37100002 24711.18955837  1930.43821974
0.37200002 24503.24083533  2056.43458452
0.37300002 24302.90208031  1499.73215842
0.37400002 24110.04971211  1356.19036055
0.37500002 23925.16902646  1619.25551642
0.37600002 23748.02221154  1342.95071968
0.37700002 23578.29044474  1470.57804470
0.37800002 23415.94585033  1863.67521851
0.37900002 23261.97379997  1458.52582635
0.38000002 23114.44546658  1585.18874519
0.38100002 22973.52297827  1842.93610062
0.38200002 22840.99707907  2099.54455097
0.38300002 22714.70723301  1700.87735818
0.38400002 22595.92872384  1435.40644018
0.38500002 22483.37119049  1692.32342968
0.38600002 22378.75683691  1818.72165430
0.38700002 22279.84092266  1685.69284407
0.38800002 22187.70016822  1553.58283938
0.38900002 22102.21197939  1680.87330066
0.39000002 22023.60615941  1291.68456244
0.39100002 21950.55997322  1548.83158509
0.39200002 21884.60551609  1806.13657881
0.39300002 21823.95845866  1418.77560661
0.39400002 21770.78828870  1418.91119394
0.39500002 21722.22712312  1677.39045792
0.39600002 21679.75169604  1549.23512960
0.39700002 21642.53725946  1421.26548917
0.39800002 21612.04077841  1552.17684225
0.39900002 21586.11542017  1554.20038389
0.40000002 21565.89645302  2075.50197297
0.40100002 21550.76825245  1689.36480335
0.40200002 21541.26397668  1823.03725672
0.40300002 21536.54360794  1696.64898582
0.40400002 21536.86379104  1831.71035222
0.40500002 21541.52660090  1443.06693537
0.40600002 21551.93354266  1578.89472614
0.40700002 21566.21387051  1847.79329198
0.40800002 21585.04309149  1721.51519333
0.40900002 21607.92631672  1328.88753144
0.41000002 21635.63782386  1733.98827555
0.41100002 21667.27908050  1874.65307487
0.41200002 21702.05029200  1478.88628722
0.41300002 21742.19714180  1350.19050648
0.41400002 21785.19575620  1356.12850008
0.41500002 21831.88072016  1498.54036364
0.41600002 21881.21332625  1916.13794177
0.41700002 21935.31791240  1512.87894810
0.41800002 21993.00018101  1796.93816494
0.41900002 22052.10268294  1528.21078834
0.42000002 22114.85843478  3351.72810320
0.42100002 22181.14017732  1404.06623976
0.42200002 22249.90621065  1552.93227756
0.42300002 22320.91553141  1845.49338359
0.42400002 22394.40931574  2284.22985845
0.42500002 22470.90554596  1579.48002567
0.42600002 22548.34472592  1733.06585776
0.42700002 22629.30055267  1743.36139719
0.42800002 22711.37076597  2192.21516707
0.42900002 22796.29798821  2058.50580588
0.43000002 22882.83798910  2514.93842837
0.43100002 22969.55547915  2083.79817181
0.43200002 23059.19229336  2096.77245460
0.43300002 23149.47085329  2109.84287355
0.43400002 23241.61372189  2426.42458755
0.43500002 23334.35293867  2136.49345631
0.43600002 23428.93686915  2457.22701528
0.43700002 23523.65068857  2318.25588522
0.43800002 23618.81278267  2955.06790134
0.43900002 23715.74421549  1721.76311164
0.44000002 23812.57416673  2205.28259809
0.44100002 23910.30725225  1743.77879054
0.44200002 24008.21269880  1914.41497133
0.44300002 24106.51741000  2568.79061695
0.44400002 24204.83712397  1777.24025005
0.44500002 24302.63138144  2113.59995141
0.44600002 24400.34643289  1963.25196703
0.44700002 24498.97372720  1810.96422374
0.44800002 24596.21487817  1822.21066561
0.44900002 24693.66343885  2666.91577779
0.45000002 24790.88523702  1677.10346577
0.45100002 24886.65939776  1856.04714585
0.45200002 24982.31642296  2206.81302581
0.45300002 25076.74368482  1878.49895846
0.45400002 25170.55255210  1717.89029310
0.45500002 25263.79526137  1900.84804555
0.45600002 25355.43946256  2433.36164055
0.45700002 25446.40020662  3146.70199868
0.45800002 25535.60437913  1933.93908931
0.45900002 25623.61145134  2652.04391091
0.46000002 25710.71649524  1955.68574290
0.46100002 25795.46709112  1787.62595414
0.46200002 25879.40700887  2156.78988234
0.46300002 25961.58534074  3252.46756564
0.46400002 26041.51378871  2361.31437471
0.46500002 26120.76413245  2191.00979927
0.46600002 26197.17085501  2018.62309591
0.46700002 26271.70570551  2397.55597632
0.46800002 26345.02526132  3150.73344546
0.46900002 26415.50149220  2234.75153216
0.47000002 26484.10823248  2619.54326943
0.47100002 26550.79426311  2067.77595522
0.47200002 26615.31090341  2266.02767772
0.47300002 26677.47040897  2086.44505958
0.47400002 26736.74329105  2285.99165974
0.47500002 26794.12946488  3060.96149515
0.47600002 26849.79799322  2113.21345122
0.47700002 26901.80829385  2121.74572070
