# SAXS profile: number of points = 501, q_min = 0, q_max = 0.5, delta_q = 0.001
#    q    intensity    error
0.00000000 1628779.37420969 244.31690613
0.00100000 1628699.37310141 684.05375295
0.00200000 1628459.30084451 879.36805030
0.00300000 1628059.38743257 1269.88636743
0.00400000 1627499.50125887 1342.68713956
0.00500000 1626780.13389108 1464.10217845
0.00600000 1625901.20108500 2048.63559677
0.00700000 1624863.25643524 2339.80318651
0.00800000 1623666.10729351 2411.14427113
0.00900000 1622310.96440702 3406.85317089
0.01000000 1620797.24762253 2941.74713146
0.01100000 1619126.20443218 3205.87002436
0.01200000 1617297.68902563 3469.10369506
0.01300000 1615312.95868796 3731.37309914
0.01400000 1613171.88077879 3992.60058192
0.01500000 1610876.05950094 4252.71298645
0.01600000 1608424.71232898 5742.07647971
0.01700000 1605820.10691690 7804.28606971
0.01800000 1603062.23032980 5025.60031822
0.01900000 1600151.65240708 6240.59172598
0.02000000 1597089.69629989 6036.99932510
0.02100000 1593878.13497770 8941.65674263
0.02200000 1590515.57765593 6036.00689143
0.02300000 1587005.48807470 6855.86402055
0.02400000 1583346.91496099 6531.30632203
0.02500000 1579542.65126014 8624.30326976
0.02600000 1575592.69156432 7657.38083124
0.02700000 1571499.12944174 6600.29664596
0.02800000 1567261.74927072 7499.34781418
0.02900000 1562882.82241093 11956.05414040
0.03000000 1558364.17097631 9420.31184656
0.03100000 1553705.70587986 8203.56650452
0.03200000 1548908.91157638 9967.22930507
0.03300000 1543977.72049434 9449.14408504
0.03400000 1538910.37077827 9695.13578324
0.03500000 1533709.58663080 14079.45465543
0.03600000 1528376.87178684 10178.99043651
0.03700000 1522913.97215715 10416.73205130
0.03800000 1517322.35414421 11539.23703730
0.03900000 1511604.06393915 9069.62480365
0.04000000 1505758.95760895 10186.45982025
0.04100000 1499791.00159162 10393.55212294
0.04200000 1493700.78602679 11561.24462021
0.04300000 1487489.39922032 10799.17353962
0.04400000 1481160.37238055 12997.18287125
0.04500000 1474714.99768652 10175.53395684
0.04600000 1468152.92205221 13455.62215612
0.04700000 1461478.86064627 11574.91311464
0.04800000 1454692.91061329 10691.99339049
0.04900000 1447798.51600667 10858.48937549
0.05000000 1440795.79052739 16533.13246619
0.05100000 1433688.98654855 15655.88446242
0.05200000 1426476.60147561 13608.58741225
0.05300000 1419164.32198133 11495.23154393
0.05400000 1411752.08198269 11646.95521950
0.05500000 1404242.53385983 14154.76540162
0.05600000 1396636.44601802 14329.49060482
0.05700000 1388939.24110908 13292.14915787
0.05800000 1381149.92077266 13445.49510652
0.05900000 1373270.22929990 16067.26243324
0.06000000 1365304.84619820 16240.30190426
0.06100000 1357254.65822122 12622.46891132
0.06200000 1349121.54906403 12749.19923460
0.06300000 1340909.48638669 15447.27800542
0.06400000 1332616.47776994 14292.31239249
0.06500000 1324248.22807780 19665.08710684
0.06600000 1315806.94073363 15868.63244772
0.06700000 1307292.47211833 18668.13737550
0.06800000 1298709.35716599 18818.29946620
0.06900000 1290059.79364357 16254.75416094
0.07000000 1281343.90833418 20469.46989419
0.07100000 1272565.46916075 16492.44925279
0.07200000 1263726.59249640 17989.14888692
0.07300000 1254829.52295151 22285.77337183
0.07400000 1245876.92575203 18220.95089303
0.07500000 1236870.39786732 16920.38783593
0.07600000 1227811.02503705 18435.58340520
0.07700000 1218703.77231788 18536.48524610
0.07800000 1209549.02742313 20066.41930599
0.07900000 1200348.70180047 14404.18509722
0.08000000 1191107.26842072 15919.14938923
0.08100000 1181824.98359049 18897.38237424
0.08200000 1172503.77556965 14597.67269084
0.08300000 1163147.81190629 16121.22942962
0.08400000 1153757.46764253 19123.53092381
0.08500000 1144336.06337620 17714.32309267
0.08600000 1134884.87340025 14810.24829324
0.08700000 1125407.81523420 29710.76771733
0.08800000 1115904.48721274 20856.25584549
0.08900000 1106380.29874104 19416.97515491
0.09000000 1096834.34198529 22457.68420711
0.09100000 1087270.15640748 16504.76174968
0.09200000 1077689.14232394 18040.51709017
0.09300000 1068096.83290273 16566.18265680
0.09400000 1058489.44852166 21116.86549045
0.09500000 1048872.66519866 28697.15746868
0.09600000 1039247.56545432 16633.15806698
0.09700000 1029618.71264558 21189.55410243
0.09800000 1019985.94021636 18176.15030926
0.09900000 1010352.24169669 18186.34120571
0.10000000 1000717.54441698 16676.95866198
0.10100000 991085.14781082 19712.68451708
0.10200000 981457.33279258 16679.86815537
0.10300000 971835.24713169 19708.81973895
0.10400000 962222.28034409 18186.00195407
0.10500000 952620.72474841 16661.33725976
0.10600001 943028.18249697 19676.28395364
0.10700001 933451.48468394 18146.29771618
0.10800001 923889.89906278 16616.16061663
0.10900001 914346.69649217 21121.40968306
0.11000001 904821.70729292 18078.33856265
0.11100001 895318.28749550 16545.48273177
0.11200001 885837.48823507 22522.41919867
0.11300001 876381.02886401 17983.33955896
0.11400001 866951.38815709 20936.87700979
0.11500001 857549.63551142 14921.36436052
0.11600001 848177.51155818 22328.27404324
0.11700001 838837.14787356 25240.61096822
0.11800001 829528.01789184 17768.49098011
0.11900001 820253.02474712 16241.01065497
0.12000001 811012.83123179 19135.84865431
0.12100001 801812.37987778 20542.43414018
0.12200001 792649.51133945 20474.13784246
0.12300001 783527.21902969 17488.32835269
0.12400001 774445.88922504 17425.03332859
0.12500001 765406.34416318 17359.41670361
0.12600001 756413.15982697 18732.57278586
0.12700001 747464.36618751 15786.44815784
0.12800001 738562.34096872 20007.65475979
0.12900001 729708.73969173 15652.25320411
0.13000001 720904.67069241 14165.77744681
0.13100001 712150.32983978 16920.69263459
0.13200001 703447.33988114 18243.90761984
0.13300001 694797.67348762 22344.69423276
0.13400001 686201.16971221 13895.57434179
0.13500001 677660.12915479 17971.54747251
0.13600001 669174.61936217 13751.53907629
0.13700001 660746.31040018 21883.91883235
0.13800001 652374.35661513 14962.20657452
0.13900001 644062.31481286 20287.96387335
0.14000001 635808.96040274 18826.30420538
0.14100001 627617.23138065 14705.07242478
0.14200001 619486.26385538 18603.17338100
0.14300001 611417.86153859 13206.62643216
0.14400001 603410.00996525 18373.83567013
0.14500001 595467.91741019 15648.89760773
0.14600001 587589.77082381 16843.26157523
0.14700001 579777.25656884 12871.05570304
0.14800001 572027.81478859 15341.78671644
0.14900001 564346.04155794 15237.34384097
0.15000001 556730.50690246 16392.93054921
0.15100001 549182.04964208 18782.02698399
0.15200001 541702.54296627 14918.48873725
0.15300001 534290.90363113 12342.12045629
0.15400001 526946.54032727 13476.65840485
0.15500001 519672.70323359 17024.47856137
0.15600001 512466.77021136 14482.31160966
0.15700001 505333.32542615 13174.04041563
0.15800001 498267.19046347 14260.40766414
0.15900001 491273.56033103 15327.73580581
0.16000001 484347.90294286 11697.00240820
0.16100001 477496.26528698 13923.79175303
0.16200001 470714.84637759 19565.26351328
0.16300001 464004.39652293 14838.86130131
0.16400001 457365.89193074 11319.80635969
0.16500001 450798.33358590 14592.34274710
0.16600001 444302.70355410 13355.73989940
0.16700001 437878.80748447 11034.54646960
0.16800001 431526.86921044 17502.73064159
0.16900001 425247.56094828 13012.57597945
0.17000001 419038.76172949 13972.84816966
0.17100001 412902.55766177 11718.17513979
0.17200001 406838.29943756 11613.19980585
0.17300001 400844.99370969 12554.46579587
0.17400001 394924.99381040 12440.13789253
0.17500001 389074.83272072 18488.83692407
0.17600001 383295.06002257 14247.07805392
0.17700001 377589.26051321 11089.79710505
0.17800001 371952.69389173 12983.00939351
0.17900001 366386.93226879 11870.93716622
0.18000001 360892.63042487 11757.88245463
0.18100001 355469.23281605 10674.74156570
0.18200001 350113.92472159 12493.81599387
0.18300001 344828.75223191 11420.72881343
0.18400001 339613.67503451 13193.99189838
0.18500001 334467.59118372 13064.30472882
0.18600001 329390.58177831 12011.22813200
0.18700001 324381.54265036 9147.55993491
0.18800001 319439.05036325 12678.53650793
0.18900001 314567.55696576 8965.17579711
0.19000001 309758.97756144 14199.35220232
0.19100001 305020.26606504 10541.50089329
0.19200001 300346.38180934 11303.53661350
0.19300001 295739.91328503 9466.63507158
0.19400001 291197.17751237 8517.51784472
0.19500001 286720.19006556 8429.57398627
0.19600001 282306.64321525 13347.45872197
0.19700001 277958.69845047 13208.59797457
0.19800001 273672.82046259 9802.96089225
0.19900001 269450.36755070 8891.86254940
0.20000001 265288.78678903 10397.99448962
0.20100001 261190.54123431 8705.48115078
0.20200001 257152.09202180 7830.28157215
0.20300001 253174.88863638 8521.86715428
0.20400001 249258.47523372 7664.69847571
0.20500001 245400.24697839 8341.15478906
0.20600001 241600.41818986 9002.03200726
0.20700001 237859.66013613 11131.83262056
0.20800001 234175.53574829 12480.38576766
0.20900001 230551.13008144 10167.30531721
0.21000001 226979.82722873 9339.08543281
0.21100001 223465.66570147 8527.45020629
0.21200001 220005.55244231 8435.01327940
0.21300001 216599.88932212 9733.99948632
0.21400001 213248.35369014 10315.88959746
0.21500001 209950.66378334 7482.64201100
0.21600001 206703.95598396 8746.67831099
0.21700001 203509.62586099 7985.71809635
0.21800001 200366.39046212 7898.44348546
0.21900001 197273.17863940 9765.02280436
0.22000001 194229.02178517 9014.16932726
0.22100001 191235.55301357 7641.77305975
0.22200001 188289.63656079 6928.11750485
0.22300001 185391.15640307 9343.71472454
0.22400001 182539.46003912 6776.77777440
0.22500001 179735.92791838 9748.87719129
0.22600001 176976.30392712 8436.46080715
0.22700001 174262.64831270 6555.76113954
0.22800001 171593.13617166 10020.18166060
0.22900001 168966.37324953 8744.01022918
0.23000001 166383.37624731 8647.77638942
0.23100001 163844.12714375 7412.30866253
0.23200001 161344.48401517 7330.68697792
0.23300001 158887.11630382 8923.10087364
0.23400001 156469.64365082 7170.22175942
0.23500001 154091.22714655 7636.76157857
0.23600001 151752.48006277 5394.80092139
0.23700001 149452.64339458 6402.55154585
0.23800001 147189.96925897 6332.11277702
0.23900001 144964.65424439 5218.72779964
0.24000001 142775.49084668 7225.86793354
0.24100001 140623.23759253 6125.54851928
0.24200001 138506.34242199 7572.83463013
0.24300001 136423.40872677 6491.02609426
0.24400001 134375.01255335 5432.11013943
0.24500001 132359.30556047 5372.46446684
0.24600001 130377.10541032 4830.47198396
0.24700001 128427.50947653 4777.50357853
0.24800001 126509.34782314 6615.17411061
0.24900001 124621.48673149 7477.28955762
0.25000001 122765.29599109 6008.74769655
0.25100001 120938.16999720 7314.34086746
0.25200001 119142.42646519 5877.89188774
0.25300001 117374.13996826 4919.15043880
0.25400001 115635.38471127 4423.05367447
0.25500001 113922.78176407 6561.95254007
0.25600001 112238.76038655 5192.16530114
0.25700001 110580.73493307 6847.15943102
0.25800001 108949.29581024 5502.48444524
0.25900001 107344.22018921 4186.42478546
0.26000001 105764.05370581 4140.66289850
0.26100001 104207.92905943 4914.44616698
0.26200001 102678.01444620 4050.64786157
0.26300001 101169.93101405 4406.96240350
0.26400001 99686.89503597  5151.32054474
0.26500001 98226.35761367  5095.00141051
0.26600001 96788.18425637  5039.27705176
0.26700001 95372.22790282  5367.54924036
0.26800001 93978.38502511  4171.23081673
0.26900001 92605.21524469  3750.51139489
0.27000001 91253.62182531  4822.29787356
0.27100001 89921.95510959  4769.46072472
0.27200001 88611.17543757  4717.21614765
0.27300001 87319.91723796  3947.73364515
0.27400001 86046.71943233  4969.19828238
0.27500001 84794.68604363  3861.55018518
0.27600001 83558.75241132  4166.23959240
0.27700001 82343.20188201  3777.08284908
0.27800001 81144.57047180  3395.90043496
0.27900001 79964.04813946  3694.33919889
0.28000001 78800.44318018  3321.43883724
0.28100001 77653.96884686  3613.23934146
0.28200001 76524.70651079  4223.01612867
0.28300001 75411.47731394  4497.54071987
0.28400001 74313.89244673  4447.68667345
0.28500001 73232.68162986  3455.85040968
0.28600001 72166.90187468  3728.14232731
0.28700001 71117.07016876  3379.48333438
0.28800001 70080.65877831  3949.39571239
0.28900001 69060.69350424  3604.96837156
0.29000001 68054.69979490  4752.94045865
0.29100001 67063.48820084  3818.59519891
0.29200001 66085.98404745  2904.47913637
0.29300001 65122.58060264  2871.90594052
0.29400001 64172.20419525  4543.39227209
0.29500001 63236.68381632  3369.25067322
0.29600001 62312.87604322  3886.45426279
0.29700001 61403.03515456  3019.18738147
0.29800001 60506.07862932  2985.06753049
0.29900001 59622.04826691  2951.29152892
0.30000001 58749.82093334  2917.80999478
0.30100001 57890.94011244  3671.44359574
0.30200001 57043.21038636  2592.61403480
0.30300001 56208.45418282  2819.41619528
0.30400001 55385.32689631  3800.81823820
0.30500001 54574.43749224  3005.96015938
0.30600001 53774.05531058  2971.55443714
0.30700001 52986.00752007  3671.93049498
0.30800001 52209.03294050  4113.81094531
0.30900001 51443.51853470  2870.54847014
0.31000001 50689.07091419  2601.10979711
0.31100001 49945.23348696  2804.92444543
0.31200001 49213.29681678  2772.67727393
0.31300001 48491.28420087  2740.72751280
0.31400001 47781.32830889  2934.96823033
0.31500001 47080.83331304  2454.79476517
0.31600002 46391.78855500  2426.52261526
0.31700002 45712.43429639  2398.53154110
0.31800002 45043.31255231  2155.32260768
0.31900002 44385.16076737  2343.53659948
0.32000002 43737.30838388  3369.52239744
0.32100002 43099.24816115  2289.86316323
0.32200002 42471.96337762  2675.09674001
0.32300002 41853.12391394  2237.46811039
0.32400002 41245.35824472  2211.78244060
0.32500002 40647.38712295  3180.25171909
0.32600002 40059.35723482  2357.89387849
0.32700002 39480.93694502  2136.70840864
0.32800002 38913.18773916  1920.36590586
0.32900002 38353.05934744  2088.32418036
0.33000002 37804.11289221  2064.67172338
0.33100002 37263.60932905  2041.30061571
0.33200002 36734.07954328  1834.86736008
0.33300002 36213.18970047  2358.56515688
0.33400002 35702.47145213  3049.88376823
0.33500002 35200.41279869  2306.33115579
0.33600002 34707.43854521  2105.35332185
0.33700002 34223.87485387  2082.18064472
0.33800002 33750.35927754  1887.82643559
0.33900002 33285.22775367  1867.30136541
0.34000002 32829.37044387  2182.98909105
0.34100002 32382.61147603  2824.08768057
0.34200002 31945.83553035  2136.69731064
0.34300002 31517.49625142  2927.34519047
0.34400002 31098.64448033  1609.35492808
0.34500002 30688.33930325  1751.99737380
0.34600002 30287.50262278  2049.40396203
0.34700002 29894.54522014  2184.69346816
0.34800002 29511.37835821  1699.41280324
0.34900002 29136.56150601  1529.66955151
0.35000002 28770.85536831  1969.22128895
0.35100002 28414.63988885  1950.38097435
0.35200002 28065.37466438  1634.66782475
0.35300002 27726.18008257  1913.93830175
0.35400002 27395.15711965  2042.30906000
0.35500002 27073.05097175  2023.98138651
0.35600002 26758.74007253  2435.98201788
0.35700002 26453.06467746  1562.58260451
0.35800002 26156.12667261  1549.35823684
0.35900002 25868.13069136  1815.94286055
0.36000002 25588.09182021  1662.71428523
0.36100002 25315.71463533  2336.89372868
0.36200002 25053.17223637  2046.21793933
0.36300002 24797.50192368  1760.12676991
0.36400002 24550.44964772  1612.96461826
0.36500002 24310.69661122  1601.58876861
0.36600002 24079.92383759  1458.15985706
0.36700002 23856.50099964  1711.94259283
0.36800002 23641.85895473  1962.86543269
0.36900002 23434.86598464  1820.88917326
0.37000002 23235.10413641  1680.94368837
0.37100002 23042.88749853  1800.11045666
0.37200002 22859.20244987  1406.86968142
0.37300002 22682.67215968  1654.24735897
0.37400002 22513.54434813  1772.94170140
0.37500002 22352.16057686  1764.92668276
0.37600002 22198.26524656  1255.31195916
0.37700002 22051.31932853  1625.40282470
0.37800002 21911.85275875  1494.82666602
0.37900002 21780.25018338  1365.62175119
0.38000002 21654.91784320  1485.09433604
0.38100002 21536.00925143  1604.21740514
0.38200002 21425.28221550  1230.88252159
0.38300002 21320.34426668  1842.07783191
0.38400002 21222.85890946  1348.18217609
0.38500002 21131.39883955  1468.20966093
0.38600002 21047.46060751  1710.52720461
0.38700002 20969.04602685  1220.39853658
0.38800002 20897.22906993  1707.09472360
0.38900002 20831.63929294  1340.51605201
0.39000002 20772.94696599  1462.00007673
0.39100002 20719.49143804  1340.13676970
0.39200002 20672.44331916  1340.50465054
0.39300002 20631.06853086  1585.08507032
0.39400002 20596.53586472  1342.37928858
0.39500002 20566.52775088  1343.81698691
0.39600002 20542.49320984  1467.96663432
0.39700002 20523.21085079  1715.33004418
0.39800002 20510.51490907  1350.30981301
0.39900002 20502.18487724  1722.18361128
0.40000002 20499.37319279  1233.03735597
0.40100002 20501.32790254  1359.85314420
0.40200002 20508.70962219  1363.72671094
0.40300002 20520.48849577  1989.66665882
0.40400002 20537.11738243  1372.39293411
0.40500002 20557.97932570  1502.37720031
0.40600002 20584.27967324  1382.33736695
0.40700002 20614.45292611  1387.76503674
0.40800002 20648.62962317  1520.15218488
0.40900002 20686.56453291  1399.44615696
0.41000002 20729.40286710  1661.35807150
0.41100002 20775.68636512  1412.33122602
0.41200002 20825.05853270  1806.15741212
0.41300002 20879.41364424  1685.59514337
0.41400002 20936.49684929  1824.61578687
0.41500002 20997.07085000  1441.23901143
0.41600002 21060.14154839  1317.31191627
0.41700002 21127.78257675  1987.06804550
0.41800002 21198.59048505  1598.79777014
0.41900002 21270.70557071  2144.08722312
0.42000002 21346.19901051  1482.81378453
0.42100002 21425.06980854  1491.82768146
0.42200002 21506.25132504  1637.48605348
0.42300002 21589.46770190  2471.56237963
0.42400002 21675.03445896  1519.96186346
0.42500002 21763.14192747  1668.79780208
0.42600002 21852.17313978  1539.59493152
0.42700002 21944.47801634  1690.60266649
0.42800002 22037.89931618  1701.76666584
0.42900002 22133.96149048  2141.46087568
0.43000002 22231.19112837  1580.97123201
0.43100002 22328.60718316  1880.96195824
0.43200002 22428.75200521  1456.74751177
0.43300002 22529.28734885  1759.98801109
0.43400002 22631.48350978  2215.05655349
0.43500002 22734.16022847  1635.49556434
0.43600002 22838.42109306  1646.76443095
0.43700002 22942.85524503  1507.34566103
0.43800002 23047.43217666  1821.20817691
0.43900002 23153.70087162  1986.58762893
0.44000002 23259.65433789  2154.07669031
0.44100002 23366.31869578  2168.86180412
0.44200002 23473.05920666  1715.76334402
0.44300002 23580.08559038  1884.52052969
0.44400002 23686.83514997  2371.64448178
0.44500002 23793.12122805  2228.46383983
0.44600002 23899.12784887  1922.92391785
0.44700002 24005.74701617  2097.14215872
0.44800002 24111.01251542  1623.87676987
0.44900002 24216.20775256  1798.05351084
0.45000002 24321.21132147  2303.46203342
0.45100002 24424.53394913  2152.77852430
0.45200002 24527.61323847  1999.98167825
0.45300002 24629.51769193  2515.90535147
0.45400002 24730.48453326  2531.78347408
0.45500002 24830.75116328  1868.26580607
0.45600002 24929.43862650  2221.58702849
0.45700002 25027.20114026  2063.24255979
0.45800002 25123.25624689  1729.73627458
0.45900002 25217.99653311  2262.05439623
0.46000002 25311.65389008  2275.39123429
0.46100002 25402.97814021  1936.46911541
0.46200002 25493.30846750  2478.71449977
0.46300002 25581.74409664  1958.53842086
0.46400002 25667.86588129  1969.36710308
0.46500002 25753.32349942  1800.15739793
0.46600002 25835.68161942  1990.76854154
0.46700002 25916.31120640  2001.25764621
0.46800002 25995.44033463  2194.53517706
0.46900002 26071.87225028  2205.68049692
0.47000002 26146.21366411  2770.84512438
0.47100002 26218.61662720  1856.27814519
0.47200002 26288.71113052  2238.22097174
0.47300002 26356.40825916  2061.33478765
0.47400002 26421.29313543  2635.52411518
0.47500002 26484.16316855  2269.16320783
0.47600002 26545.09507088  2469.09213505
0.47700002 26602.53638118  2288.88233873
