# SAXS profile: number of points = 501, q_min = 0, q_max = 0.5, delta_q = 0.001
#    q    intensity    error
0.00000000 1628779.37420969 537.49719349
0.00100000 1628699.37498403 635.19277133
0.00200000 1628459.31132245 806.08738463
0.00300000 1628059.40880394 1172.20281610
0.00400000 1627499.54567456 1342.68717620
0.00500000 1626780.20664113 2488.97381468
0.00600000 1625901.30208016 1707.19643669
0.00700000 1624863.38802769 2339.80337600
0.00800000 1623666.28181270 2849.53444489
0.00900000 1622311.18780578 2676.81357431
0.01000000 1620797.51835762 4546.33723530
0.01100000 1619126.53057880 2914.42788193
0.01200000 1617298.08352828 4415.22396161
0.01300000 1615313.42486011 4070.59001018
0.01400000 1613172.41894535 3629.63810353
0.01500000 1610876.67233615 4252.71460434
0.01600000 1608425.41397130 4511.63348788
0.01700000 1605820.90612858 5636.43163335
0.01800000 1603063.13928667 5482.47618306
0.01900000 1600152.62821662 6240.59553164
0.02000000 1597090.77061359 5533.91977051
0.02100000 1593879.31912489 5785.78219074
0.02200000 1590516.90920585 7133.46866188
0.02300000 1587006.89582454 6284.54759353
0.02400000 1583348.47070113 6531.31273945
0.02500000 1579544.32838367 6160.22316204
0.02600000 1575594.50367102 7019.27383490
0.02700000 1571501.04965476 7260.33518194
0.02800000 1567263.80020860 8181.11741227
0.02900000 1562885.04474675 10549.47453641
0.03000000 1558366.55384090 8695.68577013
0.03100000 1553708.26553400 8949.36002126
0.03200000 1548911.61617895 8433.82413854
0.03300000 1543980.58579754 8661.73148563
0.03400000 1538913.33567927 10503.08400063
0.03500000 1533712.74959317 11594.86892235
0.03600000 1528380.19573601 12723.76571752
0.03700000 1522917.53440255 11284.81945182
0.03800000 1517326.06059297 11539.26522484
0.03900000 1511607.94644094 12697.50733813
0.04000000 1505762.97607460 11112.53127837
0.04100000 1499795.23848907 12283.32357276
0.04200000 1493705.28974175 12524.71943554
0.04300000 1487494.00244121 10799.20695900
0.04400000 1481165.22878792 13997.01206209
0.04500000 1474720.09281965 13228.23984724
0.04600000 1468158.15840775 13455.67014732
0.04700000 1461484.30867281 11574.95626302
0.04800000 1454698.48735870 14968.84813139
0.04900000 1447804.32771725 11944.38625965
0.05000000 1440801.86302977 13226.56171852
0.05100000 1433695.26750236 13419.38832895
0.05200000 1426483.08534677 12474.59516269
0.05300000 1419171.01303028 11495.28574143
0.05400000 1411759.02823852 12811.71377872
0.05500000 1404249.70876189 14154.83772463
0.05600000 1396643.82801362 14329.56634410
0.05700000 1388946.80374892 15708.98908367
0.05800000 1381157.70028443 15890.22008372
0.05900000 1373278.30323852 14831.40636769
0.06000000 1365313.00560933 12492.61458497
0.06100000 1357263.01435550 15147.05594805
0.06200000 1349130.26749400 12749.28162376
0.06300000 1340918.35542702 16734.66185816
0.06400000 1332625.56034733 15591.71978524
0.06500000 1324257.47698762 13110.14963544
0.06600000 1315816.52018019 18513.53930516
0.06700000 1307302.24064325 13334.48347860
0.06800000 1298719.38279583 13441.74624113
0.06900000 1290069.98162429 20318.60316188
0.07000000 1281354.36799278 20469.63698725
0.07100000 1272576.09450434 13743.82246438
0.07200000 1263737.50710444 15221.71898616
0.07300000 1254840.55710119 16714.47700375
0.07400000 1245888.20831432 26630.86170075
0.07500000 1236881.83398889 22560.72570943
0.07600000 1227822.64843435 15599.48747967
0.07700000 1218715.71451676 17110.76943411
0.07800000 1209561.19012511 17199.96093019
0.07900000 1200361.01044609 21606.49920146
0.08000000 1191119.75512235 17366.52684437
0.08100000 1181837.61014246 15990.26361546
0.08200000 1172516.66130073 18977.18305366
0.08300000 1163160.98335225 23449.32652491
0.08400000 1153770.62105778 16181.63371988
0.08500000 1144349.48072770 14762.10899440
0.08600000 1134898.58667942 17772.51270185
0.08700000 1125421.67728027 17826.68020522
0.08800000 1115918.37848453 16387.26215765
0.08900000 1106394.58897770 16429.96041803
0.09000000 1096848.70732436 16469.18411412
0.09100000 1087284.63418033 15004.52865662
0.09200000 1077703.88126279 15033.96985001
0.09300000 1068111.74336553 19578.48917593
0.09400000 1058504.35795317 25642.26927654
0.09500000 1048887.73352803 22655.97610910
0.09600000 1039262.89323507 21169.78613034
0.09700000 1029634.12427117 16649.18457219
0.09800000 1020001.60581193 16661.72701433
0.09900000 1010367.83672949 15155.51826359
0.10000000 1000733.26174655 18193.33155413
0.10100000 991100.93055175 18196.61394075
0.10200000 981473.40925488 16680.14137486
0.10300000 971851.44441706 18193.05989530
0.10400000 962238.57550699 19701.83576038
0.10500000 952637.04822229 18176.31573527
0.10600001 943044.59394966 24217.38631214
0.10700001 933468.06979122 15122.18344223
0.10800001 923906.48946012 16616.45899494
0.10900001 914363.41213409 18104.39641235
0.11000001 904838.55795494 19585.23150880
0.11100001 895335.15210547 18049.95751612
0.11200001 885854.47894857 18018.28095006
0.11300001 876397.93940966 28474.17039201
0.11400001 866968.48892910 17946.24856582
0.11500001 857566.69832020 22382.49188010
0.11600001 848194.52946126 20840.14057026
0.11700001 838854.28626675 26725.89881911
0.11800001 829545.18115560 17768.85861724
0.11900001 820270.18881907 16241.35050361
0.12000001 811030.01819837 16192.21507606
0.12100001 801829.54523342 19075.52577972
0.12200001 792666.71785745 20474.58228684
0.12300001 783544.38603619 14573.92626692
0.12400001 774463.02520290 29042.36481351
0.12500001 765423.56064782 20253.10836908
0.12600001 756430.26938713 14409.99731087
0.12700001 747481.48029314 18657.13862736
0.12800001 738579.42873108 17149.81514339
0.12900001 729725.63679746 18498.54576469
0.13000001 720921.62032111 18415.94365914
0.13100001 712167.15885168 16921.09249194
0.13200001 703464.22372880 18244.34550245
0.13300001 694814.24513973 15362.34368427
0.13400001 686217.95920182 13895.91432897
0.13500001 677676.66735268 13824.60466580
0.13600001 669191.13748072 22003.00563782
0.13700001 660762.82384855 16413.34931834
0.13800001 652390.82532122 14962.58428431
0.13900001 644078.57607682 14878.21580900
0.14000001 635824.98028523 17482.00865740
0.14100001 627633.25118191 14705.44776874
0.14200001 619502.05146001 15945.98355668
0.14300001 611433.62657422 18489.75373972
0.14400001 603425.53274141 14436.95655183
0.14500001 595483.36121129 14345.19484827
0.14600001 587605.01323393 19435.03672955
0.14700001 579792.28836704 14158.52834987
0.14800001 572042.75367129 12785.15614774
0.14900001 564360.81068995 13967.93072359
0.15000001 556745.07696953 18915.41488252
0.15100001 549196.52604331 17530.35393847
0.15200001 541716.68672636 17405.35796582
0.15300001 534304.93147028 13576.68894933
0.15400001 526960.19899854 18377.73780734
0.15500001 519686.41835393 13376.72903972
0.15600001 512480.18390280 20517.14513085
0.15700001 505346.46511305 14372.05414613
0.15800001 498280.13058117 16637.57434538
0.15900001 491286.19594395 14149.04311103
0.16000001 484360.35123220 17545.95455160
0.16100001 477508.49053087 13924.14824116
0.16200001 470726.96092298 12660.20221166
0.16300001 464016.20683886 17122.19884066
0.16400001 457377.39524227 16980.13659999
0.16500001 450809.56324883 12347.67452034
0.16600001 444313.67419494 15582.08128969
0.16700001 437889.38253116 13241.77555295
0.16800001 431537.31456348 14221.31287292
0.16900001 425257.69477752 17350.51476618
0.17000001 419048.65005836 13973.17789601
0.17100001 412912.17326416 12783.76148792
0.17200001 406847.64280850 12669.23619533
0.17300001 400853.98968498 12554.74754983
0.17400001 394933.62887338 11403.70907227
0.17500001 389083.18787940 13353.33563867
0.17600001 383303.14991184 11194.36902188
0.17700001 377597.08596108 15122.76400700
0.17800001 371960.21458430 10985.84545663
0.17900001 366394.21368648 11871.17308416
0.18000001 360899.49905148 11758.10623449
0.18100001 355475.76707955 11645.38667961
0.18200001 350120.15860939 9610.79880782
0.18300001 344834.67247385 11420.92489185
0.18400001 339619.14756817 9424.43179023
0.18500001 334472.87575018 12131.33177657
0.18600001 329395.44085685 9239.54255254
0.18700001 324386.09861883 11891.99493720
0.18800001 319443.33585935 15395.57229912
0.18900001 314571.50863917 8965.28841980
0.19000001 309762.58732195 10649.63825531
0.19100001 305023.46086605 12298.54652323
0.19200001 300349.27903663 8695.11203897
0.19300001 295742.52152429 8606.10778302
0.19400001 291199.33073904 11924.61315725
0.19500001 286721.97100794 9272.58898057
0.19600001 282308.19367473 12513.31127597
0.19700001 277959.86332077 8255.40833076
0.19800001 273673.68738008 10619.90794067
0.19900001 269450.90899349 8083.52765183
0.20000001 265289.00292372 8798.31019778
0.20100001 261190.30794485 10288.28671620
0.20200001 257151.55038840 10962.37111118
0.20300001 253173.99729306 9296.54962000
0.20400001 249257.25594029 8431.12708068
0.20500001 245398.74234293 9099.38579618
0.20600001 241598.57198273 12752.78122491
0.20700001 237857.40606027 8163.26656186
0.20800001 234173.00764375 8809.58896399
0.20900001 230548.32390251 7988.49980085
0.21000001 226976.63910513 8620.57316073
0.21100001 223462.09303246 7816.70438380
0.21200001 220001.71128204 7731.96050853
0.21300001 216595.72364717 9038.53997510
0.21400001 213243.82400045 8252.53637897
0.21500001 209945.78311267 8162.69243333
0.21600001 206698.84734531 8746.46213894
0.21700001 203504.15632237 7320.04484900
0.21800001 200360.57654682 7898.21430091
0.21900001 197267.03006453 7160.79352992
0.22000001 194222.55985401 6438.47816359
0.22100001 191228.90266992 7004.71503601
0.22200001 188282.62334251 8187.47026319
0.22300001 185383.87892111 6228.89862629
0.22400001 182531.91113438 9240.67843814
0.22500001 179728.08189777 6092.78226445
0.22600001 176968.12546895 7230.91794860
0.22700001 174254.26131366 6555.44562062
0.22800001 171584.35562124 6483.31518374
0.22900001 168957.36111367 7577.73800431
0.23000001 166374.12279870 6341.34999037
0.23100001 163834.63940673 7411.87943729
0.23200001 161334.74036517 7330.24427517
0.23300001 158877.09697521 6134.24500433
0.23400001 156459.37855836 6066.71269053
0.23500001 154080.68821484 5999.90228286
0.23600001 151741.74049417 5933.86104268
0.23700001 149441.59108611 6402.07806493
0.23800001 147178.80829625 6859.26868508
0.23900001 144953.25426101 5740.14914024
0.24000001 142763.86067200 6709.18794963
0.24100001 140611.38087454 5104.19336718
0.24200001 138494.32597356 7572.17763078
0.24300001 136411.16029780 5991.17844368
0.24400001 134362.58014998 4937.82505409
0.24500001 132346.67921361 4883.59269400
0.24600001 130364.30257832 5312.99740291
0.24700001 128414.54325707 8120.93609975
0.24800001 126496.19451194 6142.02301509
0.24900001 124608.19295355 6074.64969386
0.25000001 122751.75729198 4621.60388068
0.25100001 120924.60207546 5485.14020964
0.25200001 119128.67102705 7233.49324698
0.25300001 117360.24234769 5365.71053399
0.25400001 115621.36706839 5307.02099952
0.25500001 113908.68890183 4374.09386078
0.25600001 112224.57021842 4758.88312527
0.25700001 110566.45010500 4278.92182151
0.25800001 108934.89754138 6348.18145458
0.25900001 107329.76428096 5860.20540701
0.26000001 105749.46839302 4140.09188348
0.26100001 104193.35772295 4504.27906749
0.26200001 102663.29776250 5670.09420371
0.26300001 101155.11744876 4406.31712456
0.26400001 99672.09385133  4358.16250987
0.26500001 98211.42341560  4702.36317565
0.26600001 96773.22669183  4650.92149489
0.26700001 95357.28911387  6133.38112604
0.26800001 93963.36872733  4928.84873983
0.26900001 92590.18320617  4499.88311676
0.27000001 91238.60794144  4450.61950600
0.27100001 89906.95091972  4035.02414823
0.27200001 88596.16264867  5442.01954823
0.27300001 87304.87964768  4664.69994033
0.27400001 86031.76855959  3548.81062103
0.27500001 84779.70680739  3860.86803073
0.27600001 83543.78812405  4165.49347300
0.27700001 82328.36934346  6522.87701179
0.27800001 81129.76917339  3395.28100060
0.27900001 79949.24922659  4365.22921437
0.28000001 78785.71027057  3652.89962958
0.28100001 77639.34526901  3940.97335238
0.28200001 76510.13369094  3572.64086179
0.28300001 75397.03581613  3854.29665335
0.28400001 74299.48229076  3493.93332009
0.28500001 73218.36634490  3455.17487135
0.28600001 72152.67882006  3416.79026725
0.28700001 71102.94250329  4914.63561845
0.28800001 70066.66405571  3948.60703976
0.28900001 69046.79134385  3303.88912219
0.29000001 68040.93604163  4157.98179832
0.29100001 67049.91032602  3230.46483242
0.29200001 66072.52904434  3194.27656785
0.29300001 65109.27420551  2871.31912838
0.29400001 64159.00671406  3690.74703593
0.29500001 63223.65389038  3087.84340218
0.29600001 62300.04631485  3330.56063365
0.29700001 61390.34391893  3018.56335339
0.29800001 60493.63077615  3527.08130937
0.29900001 59609.71069206  3218.92452975
0.30000001 58737.70556802  3978.01129791
0.30100001 57879.04336014  2884.11286717
0.30200001 57031.49468242  3628.91417844
0.30300001 56196.95302121  3075.09741490
0.30400001 55374.08205205  2533.36437382
0.30500001 54563.43404536  2754.90791537
0.30600001 53763.27103750  3218.53837303
0.30700001 52975.40271515  3426.44920983
0.30800001 52198.68520924  2903.29100879
0.30900001 51433.34820454  2869.98096569
0.31000001 50679.22357507  2837.02307005
0.31100001 49935.60223071  2570.68492455
0.31200001 49203.89532055  2541.13529414
0.31300001 48482.15745946  2740.21166935
0.31400001 47772.45407004  2934.42313019
0.31500001 47072.23916581  2231.22424210
0.31600002 46383.44284718  3087.74593653
0.31700002 45704.37424090  2180.09875451
0.31800002 45035.49215905  3447.91744295
0.31900002 44377.61369125  3408.20089286
0.32000002 43730.04000691  2737.28198384
0.32100002 43092.24987506  2081.35576752
0.32200002 42465.26864878  2057.44236345
0.32300002 41846.76958794  3050.62964741
0.32400002 41239.29555438  2814.58205486
0.32500002 40641.57024214  2186.11016684
0.32600002 40053.82328768  2554.03216288
0.32700002 39475.75620398  2136.42802692
0.32800002 38908.33135422  2304.15149191
0.32900002 38348.46414067  1898.24906485
0.33000002 37799.83329547  1876.76181199
0.33100002 37259.60594614  2041.08131038
0.33200002 36730.41941895  2568.55835160
0.33300002 36209.82298891  2358.34588295
0.33400002 35699.47002886  2332.06799007
0.33500002 35197.64911053  1951.35775910
0.33600002 34705.01486996  2982.37559408
0.33700002 34221.75400564  1908.54731128
0.33800002 33748.60557364  1887.72834216
0.33900002 33283.75853211  2036.96611863
0.34000002 32828.23003760  2182.91325973
0.34100002 32381.79538013  2159.54203617
0.34200002 31945.30166510  1972.30301821
0.34300002 31517.29038829  1626.29226106
0.34400002 31098.75144857  2092.16860279
0.34500002 30688.76156669  3026.21892141
0.34600002 30288.27841144  1734.15546258
0.34700002 29895.64398336  2184.77376578
0.34800002 29512.75516985  1699.49208695
0.34900002 29138.23825590  2600.58788751
0.35000002 28772.81630257  1817.86662009
0.35100002 28416.96159434  1500.41564324
0.35200002 28068.02542053  1783.44241969
0.35300002 27729.09111912  2355.86369306
0.35400002 27398.35158710  2042.54720756
0.35500002 27076.57005181  1879.65558202
0.35600002 26762.54557775  1433.13438357
0.35700002 26457.22306156  1846.97882941
0.35800002 26160.54877674  1972.24386569
0.35900002 25872.82381991  1397.13255245
0.36000002 25593.07151901  1385.86488840
0.36100002 25321.00937356  1649.91704893
0.36200002 25058.70055288  1364.44630973
0.36300002 24803.35750497  1489.68972231
0.36400002 24556.60109719  1882.26356326
0.36500002 24317.08942736  1468.50910008
0.36600002 24086.59538194  1591.16056630
0.36700002 23863.46892679  1448.98990187
0.36800002 23649.09330805  1439.87511427
0.36900002 23442.32867946  1561.25916401
0.37000002 23242.87312275  1293.46595055
0.37100002 23050.86252436  1286.23818979
0.37200002 22867.37900103  1407.37290729
0.37300002 22691.13833403  1654.86479709
0.37400002 22522.24913563  1393.56423128
0.37500002 22361.08455781  1513.39827456
0.37600002 22207.40573533  1381.41173921
0.37700002 22060.71955263  2001.34857262
0.37800002 21921.46864360  1370.85910657
0.37900002 21790.07192542  1738.84782202
0.38000002 21664.94513646  1361.96684052
0.38100002 21546.21734491  1604.97780605
0.38200002 21435.75577246  1600.92949571
0.38300002 21330.96398403  1351.52994206
0.38400002 21233.67284805  1594.11806459
0.38500002 21142.39642788  1468.97377340
0.38600002 21058.60170480  1589.18745294
0.38700002 20980.39255353  1465.27068536
0.38800002 20908.73470103  1342.02720036
0.38900002 20843.31164351  1829.00068337
0.39000002 20784.73836052  1340.92745886
0.39100002 20731.48379981  1340.91243570
0.39200002 20684.56887271  1463.22647138
0.39300002 20643.31019540  1830.02953552
0.39400002 20608.90161332  1221.07747844
0.39500002 20579.04102753  1466.87411394
0.39600002 20555.10879492  1468.86814408
0.39700002 20535.93034872  1348.59460989
0.39800002 20523.33981209  1842.48291892
0.39900002 20515.11045730  1477.08802291
0.40000002 20512.36973948  2097.49246709
0.40100002 20514.42441507  1360.72183592
0.40200002 20521.87028058  1364.60182896
0.40300002 20533.74211987  2115.38621342
0.40400002 20550.41065979  1622.96875875
0.40500002 20571.32720862  1503.35266364
0.40600002 20597.68480970  1257.48871721
0.40700002 20627.91501581  1262.42845878
0.40800002 20662.12313738  1647.90770890
0.40900002 20700.11692068  1909.58587641
0.41000002 20742.96155901  1534.56436885
0.41100002 20789.26825953  1927.16525897
0.41200002 20838.66005610  1678.24156714
0.41300002 20893.00536915  1556.94683388
0.41400002 20950.07855686  1304.14245196
0.41500002 21010.62744964  1442.16953648
0.41600002 21073.73211227  1318.16200608
0.41700002 21141.32893837  2120.89821959
0.41800002 21212.13330178  1866.45569766
0.41900002 21284.20579990  1474.99553182
0.42000002 21359.63980973  1618.63358148
0.42100002 21438.50404116  1764.17458114
0.42200002 21519.57888721  1775.04254862
0.42300002 21602.75985350  1511.32915097
0.42400002 21688.26420917  1797.41498151
0.42500002 21776.29184489  2087.25767224
0.42600002 21865.22972224  1820.60843909
0.42700002 21957.45819678  1409.66888303
0.42800002 22050.77159165  1560.86394108
0.42900002 22146.76406829  1714.15962011
0.43000002 22243.92197493  1438.06962383
0.43100002 22341.21410881  2171.56611428
0.43200002 22441.23225173  1894.82553497
0.43300002 22541.66660378  2054.44759162
0.43400002 22643.70582598  1920.75243771
0.43500002 22746.30850658  1785.13037619
0.43600002 22850.41285833  2546.33587754
0.43700002 22954.71452540  1658.93729737
0.43800002 23059.13602621  1670.28859721
0.43900002 23165.19438857  1528.90290210
0.44000002 23271.01123287  1693.31521261
0.44100002 23377.53404333  1859.91669663
0.44200002 23484.10887075  1716.57101926
0.44300002 23590.93489324  2199.61887369
0.44400002 23697.53047219  1898.17228078
0.44500002 23803.61185116  1592.46170831
0.44600002 23909.47047783  1603.13007151
0.44700002 24015.83911598  1936.63735809
0.44800002 24120.95985496  1624.54672322
0.44900002 24225.97202991  1635.25318952
0.45000002 24330.74667939  1645.97509087
0.45100002 24433.82510239  1987.93610454
0.45200002 24536.73217268  2334.17944221
0.45300002 24638.42072084  1845.66418367
0.45400002 24739.14257385  2026.13587282
0.45500002 24839.21136154  2208.70277895
0.45600002 24937.68007484  1880.42585516
0.45700002 25035.19761868  2407.88542108
0.45800002 25131.00726096  1903.29692511
0.45900002 25225.50365453  2088.67180159
0.46000002 25318.98564488  1750.80794032
0.46100002 25410.07746053  2465.28583206
0.46200002 25500.14344390  2479.37906456
0.46300002 25588.30246103  2849.51349711
0.46400002 25674.15451099  2686.15854302
0.46500002 25759.38540814  1980.63923790
0.46600002 25841.48021433  1810.19577481
0.46700002 25921.88127726  2547.60261267
0.46800002 26000.74528219  2377.89827249
0.46900002 26076.87516291  2206.10374334
0.47000002 26150.96258953  2032.32215397
0.47100002 26223.16737609  2599.24047351
0.47200002 26292.96278508  1865.48579802
0.47300002 26360.37866390  2061.64531302
0.47400002 26425.02828460  2259.34002542
0.47500002 26487.61032052  2458.58010648
0.47600002 26548.25087616  1899.52744022
0.47700002 26605.46277294  2479.89530261
