# SAXS profile: number of points = 501, q_min = 0, q_max = 0.5, delta_q = 0.001
#    q    intensity    error
0.00000000 1646666.22097351 296.39991978
0.00100000 1646585.77675663 493.97574476
0.00200000 1646344.38752975 740.85499785
0.00300000 1645942.26564215 1185.07847348
0.00400000 1645379.29172247 1234.03451568
0.00500000 1644655.95734365 2072.26658828
0.00600000 1643772.19168319 2071.15304584
0.00700000 1642728.51246860 2759.78401564
0.00800000 1641524.75915924 3102.48192580
0.00900000 1640162.13318273 3936.38928791
0.01000000 1638640.06307439 2974.13184290
0.01100000 1636959.76952057 4125.13879880
0.01200000 1635121.15065531 4145.03229865
0.01300000 1633125.46226540 4458.43270862
0.01400000 1630972.52366360 4770.59484320
0.01500000 1628663.95814577 3908.79367360
0.01600000 1626199.01025808 4976.16919384
0.01700000 1623579.97079475 4383.66611779
0.01800000 1620806.78727985 5543.15946193
0.01900000 1617880.00004147 4853.64021913
0.02000000 1614800.99530465 6612.61037490
0.02100000 1611571.53504741 5318.18630677
0.02200000 1608190.25135338 7767.55926694
0.02300000 1604660.52013183 6354.45594897
0.02400000 1600981.48477018 6003.68084164
0.02500000 1597155.90954776 9343.36249757
0.02600000 1593183.80465924 12904.78940798
0.02700000 1589067.20387010 12013.34861148
0.02800000 1584805.96668780 7583.29689837
0.02900000 1580402.40663389 8534.17338766
0.03000000 1575858.26789407 8060.51541078
0.03100000 1571173.46742371 9049.95958878
0.03200000 1566349.57213140 8528.77381307
0.03300000 1561390.42767981 10352.01901275
0.03400000 1556294.12155139 10621.70786968
0.03500000 1551063.73668265 13401.19130378
0.03600000 1545700.63130054 11152.23057022
0.03700000 1540206.55220385 9657.09552893
0.03800000 1534582.84595430 9875.04107073
0.03900000 1528831.79187367 11007.58941125
0.04000000 1522952.96241822 11239.39338347
0.04100000 1516950.60936124 11468.14713851
0.04200000 1510825.26655030 10719.30576347
0.04300000 1504577.89870628 12909.27897012
0.04400000 1498212.15493327 11124.22576701
0.04500000 1491729.21304223 11322.22525308
0.04600000 1485128.86799774 10470.15900611
0.04700000 1478415.77273282 14902.43168223
0.04800000 1471589.94696316 10816.18661344
0.04900000 1464655.09440566 16477.37057904
0.05000000 1457611.13263850 14495.94338911
0.05100000 1450462.30217841 13576.32778083
0.05200000 1443207.01283325 12620.84591537
0.05300000 1435851.32893286 13956.47556785
0.05400000 1428394.85250700 15319.53550755
0.05500000 1420840.35297671 17902.58928265
0.05600000 1413188.65359725 15707.59261772
0.05700000 1405445.13722173 17118.32257042
0.05800000 1397608.60930293 12368.83676986
0.05900000 1389681.33470674 13757.84585617
0.06000000 1381667.46724136 17699.16108225
0.06100000 1373568.14106598 19161.27646330
0.06200000 1365385.39757184 15483.47113222
0.06300000 1357122.74587761 20845.40635131
0.06400000 1348778.54795206 13150.59145754
0.06500000 1340358.60375346 14596.50587767
0.06600000 1331864.91521420 16062.29162901
0.06700000 1323297.56206920 13497.63576478
0.06800000 1314660.78846994 20410.10969637
0.06900000 1305956.75139311 17826.31049112
0.07000000 1297186.04606197 13815.03203750
0.07100000 1288352.05754299 13914.20287317
0.07200000 1279457.01083315 15411.06041744
0.07300000 1270503.24600449 18333.36269887
0.07400000 1261493.29629279 18449.34032289
0.07500000 1252428.79081963 19988.76443840
0.07600000 1243310.91550669 15796.26592205
0.07700000 1234144.64539596 17327.39163381
0.07800000 1224930.31229624 14515.42488143
0.07900000 1215669.84288846 16046.84267878
0.08000000 1206367.59481336 17588.84035749
0.08100000 1197024.01110987 17668.07523294
0.08200000 1187641.14731946 19221.97287136
0.08300000 1178222.82156661 22268.41237271
0.08400000 1168769.54707975 19372.35615216
0.08500000 1159284.79601442 16450.25202770
0.08600000 1149769.83865800 19505.84622866
0.08700000 1140228.45971755 22576.52456255
0.08800000 1130660.24985248 21132.04106218
0.08900000 1121070.82806990 15134.45688980
0.09000000 1111459.22184170 21239.98672715
0.09100000 1101828.78685867 18246.28556761
0.09200000 1092181.16196280 24377.48468043
0.09300000 1082521.64918312 19842.62276197
0.09400000 1072846.58444437 15288.06454683
0.09500000 1063161.73053569 22964.29445895
0.09600000 1053468.46006071 19926.35685874
0.09700000 1043770.80951108 24549.49059384
0.09800000 1034068.90661111 18427.10878221
0.09900000 1024365.57472044 16902.03277766
0.10000000 1014660.67213634 18446.53188693
0.10100000 1004958.02636144 16913.44437913
0.10200000 995259.42832322 19989.78655812
0.10300000 985566.38227293 23062.25443005
0.10400000 975881.95812134 26129.24065795
0.10500000 966208.62420660 19971.53320200
0.10600001 956543.73790981 16887.78048743
0.10700001 946894.81176490 16873.66633969
0.10800001 937260.41822004 19921.47112681
0.10900001 927643.99116026 21428.57720435
0.11000001 918045.85969421 19871.10356840
0.11100001 908468.79445699 18314.73175839
0.11200001 898914.07840663 21331.23208480
0.11300001 889383.35343657 18250.14727175
0.11400001 879879.17890920 15177.91655083
0.11500001 870402.84250356 18174.01220725
0.11600001 860955.58861050 24175.63406665
0.11700001 851540.12646508 16579.48704308
0.11800001 842155.46994021 19542.21860037
0.11900001 832804.70435789 17988.58246142
0.12000001 823488.58153877 14946.31845897
0.12100001 814212.10550279 16390.09045588
0.12200001 804972.90140382 17822.10087670
0.12300001 795774.22630922 14801.40130671
0.12400001 786616.04979276 19173.76711712
0.12500001 777499.76650249 16164.22090725
0.12600001 768429.49991462 19030.15746215
0.12700001 759403.56752438 17496.65902032
0.12800001 750424.35987568 14520.71204794
0.12900001 741493.23629308 21688.67818381
0.13000001 732611.65091677 24472.89335240
0.13100001 723779.26103529 15763.91304842
0.13200001 714998.75030565 18543.49346332
0.13300001 706271.11648299 18454.86514372
0.13400001 697596.59424622 18364.23120932
0.13500001 688977.43126597 14055.14026050
0.13600001 680413.82649851 13982.50479383
0.13700001 671907.27764939 18081.02569412
0.13800001 663456.91364027 16599.69276205
0.13900001 655066.60591506 16507.67924753
0.14000001 646734.88096720 20517.66506631
0.14100001 638464.68706516 14959.22832346
0.14200001 630255.03015812 14870.86813797
0.14300001 622108.46226989 18812.56078638
0.14400001 614021.80732505 18696.96491498
0.14500001 606001.40324919 13271.43135720
0.14600001 598044.50085250 14505.57005247
0.14700001 590153.46330622 17031.82975452
0.14800001 582325.70639847 16919.47419765
0.14900001 574565.52777184 15513.26998177
0.15000001 566871.50099622 19259.46015506
0.15100001 559244.70228194 20401.24770188
0.15200001 551686.82685356 13927.33460111
0.15300001 544197.08587710 21370.62057085
0.15400001 536774.44348030 16224.00831982
0.15500001 529422.62930680 14866.18813251
0.15600001 522138.49085806 12296.36204003
0.15700001 514927.11389467 17085.28244540
0.15800001 507782.92127795 13321.68556849
0.15900001 500711.58187472 22832.44921119
0.16000001 493708.26931406 14307.66632008
0.16100001 486779.03210280 11828.73103846
0.16200001 479920.19472064 12907.45424632
0.16300001 473132.41185126 15130.77524529
0.16400001 466416.90610847 13852.58276540
0.16500001 459772.30575511 13737.99714455
0.16600001 453199.94318332 12487.92502401
0.16700001 446699.15655575 18010.91084271
0.16800001 440270.59349722 11160.86007213
0.16900001 433914.98788982 12171.31598502
0.17000001 427630.10105228 16453.06891490
0.17100001 421417.98986928 11959.84311725
0.17200001 415277.73998777 12931.74943389
0.17300001 409208.96521333 13884.46084537
0.17400001 403213.36731118 11642.78653095
0.17500001 397288.14456020 16781.45201877
0.17600001 391433.54789132 10392.56118735
0.17700001 385652.97298114 11326.62835142
0.17800001 379941.82985338 11221.58247474
0.17900001 374301.73491375 10106.14732002
0.18000001 368733.49036602 11012.22620994
0.18100001 363236.27911135 10907.98597697
0.18200001 357807.39362952 11786.17610291
0.18300001 352449.11323900 10700.35558341
0.18400001 347160.73661252 12523.82416493
0.18500001 341941.98541293 10494.20002809
0.18600001 336792.53212139 9447.03097232
0.18700001 331711.23113309 9354.25715989
0.18800001 326696.83233084 11114.22676100
0.18900001 321753.73184509 11920.97632810
0.19000001 316873.96077257 12709.81516711
0.19100001 312064.06684741 9886.19010485
0.19200001 307319.40199513 12455.65595141
0.19300001 302642.76618163 11448.97638565
0.19400001 298029.85025039 13076.06029763
0.19500001 293483.10957376 8628.40382920
0.19600001 289000.08629130 8539.95295347
0.19700001 284583.02549888 8452.11625674
0.19800001 280228.50529852 8364.82127847
0.19900001 275937.54141604 8278.12663371
0.20000001 271708.01380170 11468.79580460
0.20100001 267541.86152391 10538.47442350
0.20200001 263436.18456192 8823.79541894
0.20300001 259391.98493274 10318.61364833
0.20400001 255408.63383904 10995.34220647
0.20500001 251484.26439771 10879.20979207
0.20600001 247618.54787538 8457.41190245
0.20700001 243812.13665747 8367.63292561
0.20800001 240062.82307205 10536.35780269
0.20900001 236373.63316781 7445.76979676
0.21000001 232737.81830429 7366.15229755
0.21100001 229159.64139764 10930.91541141
0.21200001 225635.91718518 7929.97468436
0.21300001 222167.01856114 9271.03012285
0.21400001 218752.48545551 9876.67518525
0.21500001 215392.40530887 9770.19996672
0.21600001 212083.67971827 8283.98892145
0.21700001 208827.61790979 9560.12879991
0.21800001 205623.23610537 9456.61307560
0.21900001 202469.07099320 8017.77559042
0.22000001 199364.38951705 7269.82280747
0.22100001 196310.95375274 7190.87057597
0.22200001 193305.45397064 7112.67451517
0.22300001 190347.88497736 8314.39600896
0.22400001 187437.28124463 6958.60939525
0.22500001 184575.47107550 8134.24139494
0.22600001 181757.89523104 6807.74228780
0.22700001 178986.88502386 7345.62210875
0.22800001 176260.15774253 9081.80505716
0.22900001 173576.81922688 7784.92071048
0.23000001 170937.73840947 8292.19008240
0.23100001 168342.60727136 5858.32301010
0.23200001 165787.80754732 6953.14097737
0.23300001 163275.55161928 6304.06934617
0.23400001 160803.47262897 6235.15494608
0.23500001 158371.13910010 10652.04331967
0.23600001 155978.96755713 6099.55781481
0.23700001 153625.88663306 6581.33329464
0.23800001 151310.56686367 7594.27771009
0.23900001 149033.00030754 5365.18826484
0.24000001 146792.04132688 6898.49230846
0.24100001 144588.52145718 5773.41993487
0.24200001 142420.71790917 6229.48249601
0.24300001 140287.37148986 8728.68066699
0.24400001 138188.92399629 5586.28751680
0.24500001 136123.72008137 7032.15171205
0.24600001 134092.33402446 5464.93333169
0.24700001 132094.19932871 7370.85667123
0.24800001 130127.86800600 5346.30370994
0.24900001 128192.15972952 4807.20621727
0.25000001 126288.65883393 7132.15234506
0.25100001 124414.78522009 5643.45492457
0.25200001 122572.70052018 6047.12446625
0.25300001 120758.38261059 5521.07351416
0.25400001 118974.13104420 5005.83680052
0.25500001 117216.40717396 6301.55434781
0.25600001 115487.91360004 5342.47113590
0.25700001 113785.79462369 5284.21255234
0.25800001 112110.58622336 5662.14542511
0.25900001 110462.35984094 4738.83546139
0.26000001 108839.31268124 5965.48301032
0.26100001 107240.97093981 4636.02739309
0.26200001 105669.00231439 4585.50657240
0.26300001 104119.60250097 4535.45009955
0.26400001 102595.40182083 4893.80089842
0.26500001 101094.31557434 5243.76239697
0.26600001 99616.00051444  5585.46941315
0.26700001 98160.45008390  3946.05028010
0.26800001 96727.39678485  5854.42596744
0.26900001 95315.35968875  3860.27225007
0.27000001 93925.34962389  6490.71159291
0.27100001 92555.83352376  3776.27818647
0.27200001 91207.45897070  4481.93474592
0.27300001 89879.22449764  3694.03630167
0.27400001 88569.33780600  5480.22803610
0.27500001 87281.12536706  5058.81426568
0.27600001 86009.38429065  3573.69008640
0.27700001 84758.57046845  4241.31906697
0.27800001 83524.99220526  4544.17741599
0.27900001 82309.98524387  5531.23127017
0.28000001 81112.25147829  4102.65787394
0.28100001 79932.11564681  5071.69297783
0.28200001 78769.58489163  3343.76903691
0.28300001 77623.56567095  3306.76405409
0.28400001 76493.49123639  3270.09690513
0.28500001 75380.36487702  4203.96314817
0.28600001 74282.92966979  3517.66830101
0.28700001 73201.92807518  4111.02047529
0.28800001 72134.70680957  5315.96746995
0.28900001 71084.48880118  3401.39295014
0.29000001 70048.36426061  3057.61124471
0.29100001 69027.59513365  4535.11321495
0.29200001 68020.86150835  4185.32380672
0.29300001 67028.72657689  3547.16037836
0.29400001 66049.92468384  2922.70930561
0.29500001 65086.29038234  3178.81457275
0.29600001 64134.91369882  3714.37370270
0.29700001 63197.79159302  3672.42384332
0.29800001 62273.93329820  3910.18045690
0.29900001 61363.45056006  3865.89756829
0.30000001 60465.00730229  3002.99472983
0.30100001 59580.42881490  3238.79226370
0.30200001 58707.32640726  3201.89773383
0.30300001 57847.54499724  5011.91153583
0.30400001 56999.78501273  3129.28834535
0.30500001 56164.52007313  3093.54191208
0.30600001 55340.21934675  2548.41722157
0.30700001 54528.53991893  2771.14052987
0.30800001 53728.33598965  3735.46273653
0.30900001 52939.92614109  2707.87735032
0.31000001 52162.98776297  4136.78594040
0.31100001 51396.92662676  3367.52679202
0.31200001 50643.06379710  2615.46115363
0.31300001 49899.49808729  2820.31976542
0.31400001 49168.33513187  2323.20394498
0.31500001 48446.77893656  2985.29065942
0.31600002 47737.23131844  2950.87709367
0.31700002 47037.58972113  2916.80107671
0.31800002 46348.59720315  2883.11462553
0.31900002 45670.90895448  2630.64448034
0.32000002 45003.73842919  3467.08817275
0.32100002 44346.58284238  2784.52206852
0.32200002 43700.70558387  2752.48907153
0.32300002 43063.51185315  2302.17545268
0.32400002 42437.76397610  3103.26163770
0.32500002 41821.91400319  2658.61919907
0.32600002 41216.31329036  2425.99231515
0.32700002 40620.76502523  2198.39590727
0.32800002 40036.08459790  2173.35895531
0.32900002 39459.32547560  2539.20771460
0.33000002 38893.95081640  2510.41017432
0.33100002 38337.39043815  2100.12234765
0.33200002 37792.04079852  2076.48378001
0.33300002 37255.61798174  2613.10916898
0.33400002 36729.52499534  2399.35633394
0.33500002 36212.46336406  2007.61906398
0.33600002 35704.74598169  1985.36249433
0.33700002 35206.67302212  1963.47624743
0.33800002 34718.94803147  1942.00445011
0.33900002 34239.72084159  2270.09359930
0.34000002 33770.10970804  1900.07531271
0.34100002 33309.87191615  2563.19476534
0.34200002 32859.75424275  1859.69787944
0.34300002 32418.25389670  2843.72936650
0.34400002 31986.59630432  1820.83708086
0.34500002 31563.68138710  2621.04822652
0.34600002 31150.56646019  1783.52576715
0.34700002 30745.44336506  1604.91221967
0.34800002 30350.28740346  1747.72138290
0.34900002 29963.71405081  2516.95209948
0.35000002 29586.51237254  2336.59492529
0.35100002 29218.94641433  1697.03648812
0.35200002 28858.64592526  1680.87191153
0.35300002 28508.48305040  2724.84093901
0.35400002 28166.67157240  2399.80053163
0.35500002 27833.96112973  2378.13375156
0.35600002 27509.36757630  1915.06471453
0.35700002 27193.54075730  2774.55709488
0.35800002 26886.65138540  1447.84624568
0.35900002 26588.86844419  1579.37886039
0.36000002 26299.24799608  1993.74608502
0.36100002 26017.43314108  1695.29602377
0.36200002 25745.62828152  2102.77428949
0.36300002 25480.86450290  2086.88290164
0.36400002 25224.83513336  2071.58968345
0.36500002 24976.33911544  1645.44129887
0.36600002 24736.94994665  1497.94607497
0.36700002 24505.07295487  1623.21610942
0.36800002 24282.14746734  1344.01692598
0.36900002 24066.94785250  1602.85880290
0.37000002 23859.15873448  1593.31469576
0.37100002 23659.07149854  1848.24675302
0.37200002 23467.63570512  1313.01427990
0.37300002 23283.51246145  1567.44613316
0.37400002 23106.94200911  1689.69521446
0.37500002 22938.15021143  1423.08290653
0.37600002 22777.06508771  1674.45601924
0.37700002 22623.09696242  1667.54855609
0.37800002 22476.62168779  1661.13480453
0.37900002 22338.15962159  1782.58522225
0.38000002 22206.10317333  1649.80251342
0.38100002 22080.56650268  1265.21652054
0.38200002 21963.31575594  1514.15105995
0.38300002 21852.11091337  1258.68164824
0.38400002 21748.28387937  1381.55979889
0.38500002 21650.60850173  1754.99840829
0.38600002 21560.60013887  1376.75218709
0.38700002 21476.15431653  1374.90346448
0.38800002 21398.43363217  1248.59866159
0.38900002 21327.07655830  1372.39744154
0.39000002 21262.62309992  1870.57935584
0.39100002 21203.52120292  1620.79723754
0.39200002 21151.08797335  1371.54236461
0.39300002 21104.15440379  1621.43225966
0.39400002 21064.33044773  1872.09245724
0.39500002 21028.96215471  1748.76857564
0.39600002 20999.64564323  1750.74054022
0.39700002 20975.26482401  1377.44570625
0.39800002 20957.51758080  1379.73823530
0.39900002 20944.16526886  1382.31497324
0.40000002 20936.34949046  1511.18577782
0.40100002 20933.46122463  1893.43165748
0.40200002 20935.99147088  1771.81304213
0.40300002 20943.06164168  1776.80943387
0.40400002 20955.00430429  1527.61988616
0.40500002 20971.18973997  2043.43282508
0.40600002 20992.91634593  1794.26464510
0.40700002 21018.51253042  1414.96633059
0.40800002 21048.20391701  1291.30737149
0.40900002 21081.78804672  1815.14203683
0.41000002 21120.22713207  1562.47447726
0.41100002 21162.19807740  1700.17107410
0.41200002 21207.27526069  1576.54891758
0.41300002 21257.35861260  1320.08203239
0.41400002 21310.22866742  1459.21797714
0.41500002 21366.62819582  1599.93319511
0.41600002 21425.48054290  2144.26219434
0.41700002 21488.95872388  1616.82933100
0.41800002 21555.78180099  1896.69333054
0.41900002 21623.83144790  1770.99187950
0.42000002 21695.33132389  2055.09035703
0.42100002 21770.24028812  1791.47315820
0.42200002 21847.42216290  1940.70660269
0.42300002 21926.72189328  1673.44749419
0.42400002 22008.30475089  1683.63539322
0.42500002 22092.61834453  1694.06205493
0.42600002 22177.80178493  2272.78123462
0.42700002 22266.23735348  1858.34025758
0.42800002 22355.83948951  2301.75734291
0.42900002 22448.06095868  1737.48000054
0.43000002 22541.59015523  1748.77664711
0.43100002 22635.20232989  2053.46565268
0.43200002 22731.58895352  1919.34180424
0.43300002 22828.39392417  1931.96706935
0.43400002 22926.88240048  1645.57706228
0.43500002 23025.84199535  1505.89013786
0.43600002 23126.44374262  1819.12615100
0.43700002 23227.17591715  1983.83318910
0.43800002 23328.09470105  1997.00164152
0.43900002 23430.63446726  2010.34853256
0.44000002 23532.94405991  1868.04518800
0.44100002 23635.96460596  1567.06452764
0.44200002 23738.99591460  1892.94762394
0.44300002 23842.36317948  1746.69160931
0.44400002 23945.49800056  2397.54310093
0.44500002 24048.11793483  1769.70108269
0.44600002 24150.51370551  1781.22122276
0.44700002 24253.48880974  1955.80143031
0.44800002 24355.11543754  2132.41223319
0.44900002 24456.73120259  1980.99532129
0.45000002 24558.05575219  1827.48780541
0.45100002 24657.78332188  2173.33712499
0.45200002 24757.27297371  2186.93381178
0.45300002 24855.49296444  1692.65915110
0.45400002 24952.87856530  1703.03404279
0.45500002 25049.53584844  1884.72716656
0.45600002 25144.60127697  3792.05749830
0.45700002 25238.73464477  2080.68138273
0.45800002 25331.19525743  2092.86345136
0.45900002 25422.22833589  2455.78737364
0.46000002 25512.28451226  2646.26183645
0.46100002 25599.94915107  2128.89187230
0.46200002 25686.64810417  2497.51291354
0.46300002 25771.44806646  2152.43144453
0.46400002 25853.93513811  2163.97447362
0.46500002 25935.74982008  2538.07259769
0.46600002 26014.48484129  2186.77769940
0.46700002 26091.42217973  2564.26509336
0.46800002 26166.91905565  1840.84284281
0.46900002 26239.66175493  2034.88586554
0.47000002 26310.31235536  2230.58838721
0.47100002 26379.09533378  2614.69605341
0.47200002 26445.51192148  2626.83282366
0.47300002 26509.57313270  2450.27996079
0.47400002 26570.75453893  2271.79962076
0.47500002 26629.95100751  2471.79216967
0.47600002 26687.20993069  2100.41695715
0.47700002 26740.98260846  2875.99281586
