# SAXS profile: number of points = 501, q_min = 0, q_max = 0.5, delta_q = 0.001
#    q    intensity    error
0.00000000 1664650.74656091 374.54641798
0.00100000 1664569.78798767 549.30804308
0.00200000 1664326.85960271 898.73653264
0.00300000 1663922.16797376 1397.69467089
0.00400000 1663355.58992386 1497.02008782
0.00500000 1662627.63528236 1646.00142408
0.00600000 1661738.22381742 2966.20285027
0.00700000 1660687.86452793 1992.82552026
0.00800000 1659476.41696429 3360.43988623
0.00900000 1658105.07176646 3730.73657095
0.01000000 1656573.25189951 3280.01518039
0.01100000 1654882.20763849 3276.66691379
0.01200000 1653031.81471342 5157.45948803
0.01300000 1651023.30331790 3813.86399887
0.01400000 1648856.58970566 4822.90573869
0.01500000 1646533.17262796 4346.84776930
0.01600000 1644052.37659158 6288.50062158
0.01700000 1641416.54109466 4431.82485976
0.01800000 1638625.54122680 6071.10790343
0.01900000 1635679.93737252 5888.44804024
0.02000000 1632581.07645114 5142.63062345
0.02100000 1629330.80986992 6989.82949125
0.02200000 1625927.73189401 5609.45092988
0.02300000 1622375.16881660 6424.60596095
0.02400000 1618672.34854233 7284.02590057
0.02500000 1614822.09832803 6927.58711821
0.02600000 1610824.23404248 9785.75766939
0.02700000 1606680.93506450 7422.86625997
0.02800000 1602392.03590318 8364.48681101
0.02900000 1597959.92674231 7190.82000050
0.03000000 1593386.17503978 8150.17065995
0.03100000 1588670.82465446 8388.18234014
0.03200000 1583815.51509289 8623.87587688
0.03300000 1578824.01292142 12883.20453936
0.03400000 1573694.27523816 11566.65345669
0.03500000 1568429.63400296 10163.42449767
0.03600000 1563031.41850809 8674.82477362
0.03700000 1557501.22048037 8877.75736731
0.03800000 1551840.52712417 9986.09425420
0.03900000 1546051.52001439 16697.35718941
0.04000000 1540133.95501421 9471.82426225
0.04100000 1534091.91345360 14497.16925432
0.04200000 1527925.97600129 14782.68450362
0.04300000 1521637.24109852 11047.08688316
0.04400000 1515229.13581254 11250.57685591
0.04500000 1508702.95958581 11451.05599533
0.04600000 1502058.64719762 12707.41674602
0.04700000 1495300.63816484 11842.78160505
0.04800000 1488429.21112084 13127.94625290
0.04900000 1481447.83954636 17777.37490205
0.05000000 1474356.51571309 13534.59344450
0.05100000 1467159.42987539 17165.76612919
0.05200000 1459855.15215225 12766.43390050
0.05300000 1452449.66833080 14117.81143432
0.05400000 1444942.64546255 16689.08833337
0.05500000 1437336.82312138 14488.35585293
0.05600000 1429633.01718111 14668.03544075
0.05700000 1421836.63786465 14843.97519220
0.05800000 1413946.33426575 16267.45333529
0.05900000 1405964.81007627 12653.68388169
0.06000000 1397895.73058185 12790.74653239
0.06100000 1389740.61527602 19386.88248908
0.06200000 1381501.29916798 14360.70667612
0.06300000 1373181.35052080 19773.81237203
0.06400000 1364779.15114064 17298.57654971
0.06500000 1356300.67377812 18798.32821791
0.06600000 1347747.36722232 16253.83400919
0.06700000 1339120.19890036 13659.02666801
0.06800000 1330422.67722361 19277.82549535
0.06900000 1321657.28090664 19428.36293894
0.07000000 1312824.53824320 20972.37298054
0.07100000 1303928.01159685 15490.66550332
0.07200000 1294969.63894961 18433.89367402
0.07300000 1285952.12533497 19983.69696405
0.07400000 1276877.69980453 14364.87479600
0.07500000 1267748.18585306 15897.56299576
0.07600000 1258564.62125204 20350.99087971
0.07700000 1249332.13682371 17540.62402346
0.07800000 1240051.15810882 14694.60691271
0.07900000 1230723.28288128 14768.68008728
0.08000000 1221353.22001265 16323.38655122
0.08100000 1211941.35836682 19378.94322951
0.08200000 1202489.77209385 22456.49754763
0.08300000 1193001.81210433 16535.00589179
0.08400000 1183478.78806364 21125.09735852
0.08500000 1173923.52312722 22715.42123889
0.08600000 1164337.86727468 21272.45383388
0.08700000 1154725.25940751 16766.61155392
0.08800000 1145085.27655361 16815.57807591
0.08900000 1135423.52746580 19926.68384298
0.09000000 1125739.39649458 23049.51522599
0.09100000 1116035.95756500 16941.42663176
0.09200000 1106315.02970553 15433.09538954
0.09300000 1096581.42056302 24738.87801044
0.09400000 1086832.08979342 20133.56540965
0.09500000 1077072.75554511 18611.81809062
0.09600000 1067304.44758870 17082.20848665
0.09700000 1057531.67238540 18654.85957790
0.09800000 1047754.05171347 24894.63743920
0.09900000 1037974.74503352 18683.54628915
0.10000000 1028193.65261235 20250.27494051
0.10100000 1018414.27989017 20256.26097970
0.10200000 1008638.84159489 26491.90042057
0.10300000 998868.53286411 15582.34984569
0.10400000 989106.80958466 18694.11958062
0.10500000 979355.62318686 18686.10616957
0.10600001 969612.81106175 21787.20088972
0.10700001 959885.88710613 17105.16731316
0.10800001 950173.02173495 20195.92852743
0.10900001 940477.80109917 21725.03822789
0.11000001 930800.94264374 17047.62006694
0.11100001 921144.86846984 17022.75797064
0.11200001 911510.85011901 16995.12060055
0.11300001 901900.86439232 16964.75605793
0.11400001 892316.98955601 18470.96255350
0.11500001 882761.11458796 15360.04411710
0.11600001 873233.93709127 16857.78194941
0.11700001 863738.54893633 21403.44225064
0.11800001 854273.71641221 15248.78655615
0.11900001 844842.70601496 18248.60330946
0.12000001 835446.38011560 18196.02301604
0.12100001 826089.59400572 18140.92833895
0.12200001 816769.87562335 18083.28589823
0.12300001 807490.87060033 15019.33090079
0.12400001 798251.95403394 16463.94732769
0.12500001 789055.14270078 25352.34292959
0.12600001 779904.20597589 17828.61098875
0.12700001 770797.71905688 19239.11197433
0.12800001 761737.69395966 16213.58758007
0.12900001 752725.87112694 22017.23276818
0.13000001 743763.60718932 23383.92891223
0.13100001 734850.53460051 16005.04539804
0.13200001 725989.44644933 17380.18816730
0.13300001 717181.37131564 24506.08861315
0.13400001 708426.18680586 17214.75715098
0.13500001 699726.49784182 17129.30547478
0.13600001 691082.54161225 17042.09627971
0.13700001 682495.63117144 16953.19227770
0.13800001 673964.85290527 14052.16784572
0.13900001 665494.61711946 19565.54266599
0.14000001 657082.76909073 18066.49158818
0.14100001 648732.52768749 15199.80384059
0.14200001 640443.05684238 17858.75548236
0.14300001 632217.04397681 19118.24431162
0.14400001 624050.74207228 20359.65642047
0.14500001 615951.05951063 14838.26172356
0.14600001 607914.82118423 17425.87917130
0.14700001 599944.85553473 14650.65406333
0.14800001 592038.26635428 18524.87822820
0.14900001 584199.30077372 22345.62430888
0.15000001 576426.64027090 16972.88322361
0.15100001 568721.78548217 14263.54305292
0.15200001 561085.83918198 12876.92061685
0.15300001 553518.26227786 17900.78144679
0.15400001 546017.93588190 13964.40936917
0.15500001 538588.63957410 17644.16466513
0.15600001 531227.34533156 13761.44503028
0.15700001 523939.13810984 16142.56560704
0.15800001 516718.21057985 19717.96784639
0.15900001 509570.46275113 15898.59918826
0.16000001 502491.18991070 19416.26049464
0.16100001 495485.88715763 13244.33838891
0.16200001 488551.49227612 15528.60991504
0.16300001 481688.42053363 13034.48927497
0.16400001 474897.94277463 16455.21449398
0.16500001 468178.71091614 12823.41549740
0.16600001 461532.33096246 13873.66252375
0.16700001 454957.32928276 12611.41776316
0.16800001 448454.92113148 13641.99934495
0.16900001 442026.13884565 13526.00048735
0.17000001 435668.16370900 15644.84449753
0.17100001 429383.48033412 14401.52261046
0.17200001 423170.70587909 12079.40836974
0.17300001 417030.21283996 19592.08032445
0.17400001 410962.88185035 15102.88662125
0.17500001 404966.39644485 11760.22470817
0.17600001 399040.86196456 12713.44246264
0.17700001 393189.86707165 12597.80393598
0.17800001 387408.65224700 11442.11508455
0.17900001 381698.63596502 11336.45002362
0.18000001 376061.27879706 14294.08988226
0.18100001 370495.17375699 10114.51872134
0.18200001 364997.57030442 11021.10215596
0.18300001 359571.27046282 11909.00104030
0.18400001 354215.07632613 13761.25636536
0.18500001 348929.00074340 13629.16741291
0.18600001 343712.72327442 9641.14234333
0.18700001 338564.86503089 10502.28260944
0.18800001 333484.27597910 9454.27967069
0.18900001 328475.51344228 11233.86309050
0.19000001 323530.68784467 9269.15464471
0.19100001 318656.05369186 11012.75373594
0.19200001 313846.95269889 10903.04365194
0.19300001 309106.44223045 11693.49726213
0.19400001 304430.14711237 11575.95689096
0.19500001 299820.49176152 12340.61202406
0.19600001 295274.82155482 10470.44566713
0.19700001 290795.74028324 8636.63389456
0.19800001 286379.61860088 8548.43201922
0.19900001 282027.39749636 8460.82232475
0.20000001 277737.13605604 11723.28506698
0.20100001 273510.90639313 11602.33319755
0.20200001 269345.42007346 13122.50948619
0.20300001 265241.91924295 12174.60466868
0.20400001 261199.56964687 9638.26457553
0.20500001 257216.74808516 11127.19704811
0.20600001 253293.22516619 7864.75501316
0.20700001 249429.28119868 10116.85212363
0.20800001 245623.14432528 9240.34312631
0.20900001 241877.27442677 8381.04795507
0.21000001 238185.54608253 9046.28746785
0.21100001 234551.87857178 8950.50010942
0.21200001 230972.94598074 8117.54457025
0.21300001 227449.43651285 11681.80361156
0.21400001 223980.74292937 11557.40688155
0.21500001 220567.09793729 7861.01174213
0.21600001 217205.17824498 8484.03466336
0.21700001 213896.55037479 7693.85928074
0.21800001 210639.92268008 7611.47396592
0.21900001 207433.95051792 8898.91689797
0.22000001 204277.94615660 8803.35850586
0.22100001 201173.72547212 6699.08537498
0.22200001 198118.08316587 9277.87027336
0.22300001 195110.54532461 8522.42902277
0.22400001 192150.54445754 9727.62177315
0.22500001 189239.90848512 8981.32648141
0.22600001 186373.96607081 8249.84399824
0.22700001 183555.05868225 6905.34163417
0.22800001 180780.76591464 8072.76548368
0.22900001 178050.46658995 6757.01552663
0.23000001 175364.92396799 6684.03439314
0.23100001 172723.72684338 8415.10036978
0.23200001 170123.45981499 8324.14128243
0.23300001 167566.16122060 5881.57253701
0.23400001 165049.26917162 6399.78571481
0.23500001 162572.80495822 6330.58532449
0.23600001 160137.00952567 6262.15805368
0.23700001 157740.46408392 9573.26921805
0.23800001 155382.38876574 6127.50479080
0.23900001 153062.59668868 7163.32986385
0.24000001 150779.68025203 6540.82283872
0.24100001 148534.71747395 7548.53469908
0.24200001 146325.90943419 5866.93761628
0.24300001 144152.11251680 5803.56432445
0.24400001 142013.39890391 5740.89192226
0.24500001 139908.58043043 7227.67760694
0.24600001 137837.95071246 7149.65484167
0.24700001 135801.07314911 5051.80016013
0.24800001 133796.41958808 5497.02615882
0.24900001 131822.57304684 4943.34672311
0.25000001 129881.67253487 4890.04520228
0.25100001 127970.72910668 6772.21130471
0.25200001 126091.96737676 4785.19038833
0.25300001 124241.41157866 9467.19601019
0.25400001 122421.29412819 6087.39913853
0.25500001 120628.10318342 5095.33131954
0.25600001 118864.71973950 4582.23516276
0.25700001 117127.99465354 5439.42432907
0.25800001 115418.54360932 5829.21382079
0.25900001 113736.61063813 5322.87362971
0.26000001 112080.00717953 4826.72573757
0.26100001 110448.82418209 4774.70289531
0.26200001 108844.06433467 6011.45795765
0.26300001 107262.54596509 4672.35672332
0.26400001 105706.40580760 5042.19579561
0.26500001 104173.94063128 4987.84851345
0.26600001 102664.41341034 5345.22293714
0.26700001 101178.23452963 5287.57478673
0.26800001 99714.82930540  5230.54161873
0.26900001 98272.71954348  4776.05439582
0.27000001 96853.04766983  5511.90720373
0.27100001 95454.24910237  4673.44025721
0.27200001 94076.97071939  4622.94255992
0.27300001 92720.10067664  5716.19447723
0.27400001 91381.96811456  4146.45699943
0.27500001 90065.70169079  4474.46427175
0.27600001 88766.60981656  5163.55393740
0.27700001 87488.48497094  4742.75099473
0.27800001 86227.99636965  3969.50600074
0.27900001 84986.36630227  4283.31306435
0.28000001 83762.29674560  4942.81336489
0.28100001 82556.22572470  4539.76706746
0.28200001 81368.06320407  3454.07444649
0.28300001 80196.70591642  4441.29378386
0.28400001 79041.56451330  4392.73515574
0.28500001 77903.71608864  4344.69045190
0.28600001 76781.84790193  3966.55045036
0.28700001 75676.66819444  3923.07866489
0.28800001 74585.49178259  3556.60934400
0.28900001 73511.78243363  5116.42029956
0.29000001 72452.26047247  3795.04958318
0.29100001 71408.44494918  4378.76605155
0.29200001 70378.89991265  4021.09863685
0.29300001 69364.32501091  3670.76025334
0.29400001 68363.24120629  3932.59563655
0.29500001 67377.55667118  2991.56365781
0.29600001 66404.47351156  3254.15137848
0.29700001 65445.71694405  4680.67789741
0.29800001 64500.64222994  4049.99551734
0.29900001 63569.22101298  3146.67658910
0.30000001 62649.93733622  3394.37376556
0.30100001 61744.75693520  3356.44514589
0.30200001 60851.33675482  2765.69338644
0.30300001 59971.38683975  2734.69536936
0.30400001 59103.74872449  3785.59528502
0.30500001 58248.80730638  2940.98242013
0.30600001 57405.02143897  4229.60217986
0.30700001 56574.09039474  2613.72309998
0.30800001 55754.85211718  2584.23751798
0.30900001 54947.58564987  3577.08799516
0.31000001 54152.04091540  3284.05067680
0.31100001 53367.42903784  3246.87453639
0.31200001 52595.27078745  2716.28288842
0.31300001 51833.53832834  3662.03965628
0.31400001 51084.45207206  2896.48856962
0.31500001 50344.99243116  2863.62330507
0.31600002 49617.97681963  3067.13538233
0.31700002 48900.89457324  2799.08733790
0.31800002 48194.63770221  2997.94758021
0.31900002 47499.80570633  2279.99078186
0.32000002 46815.74431532  3381.26729328
0.32100002 46141.71981396  2228.64517254
0.32200002 45479.27234767  2203.47084958
0.32300002 44825.62577801  3049.93572235
0.32400002 44183.58348007  2369.34477631
0.32500002 43551.45838843  3194.49962406
0.32600002 42929.69225620  2316.27165536
0.32700002 42318.21753665  2290.26204153
0.32800002 41717.76673729  2676.40345177
0.32900002 41125.30217195  2442.84306469
0.33000002 40544.27222552  2616.93017472
0.33100002 39972.20616190  2587.80074947
0.33200002 39411.56193199  2165.46837290
0.33300002 38859.90824792  2530.94594404
0.33400002 38318.59710314  2310.61151474
0.33500002 37786.59323101  2666.22214464
0.33600002 37263.99028795  2260.43375791
0.33700002 36751.07236346  2422.26329419
0.33800002 36248.51187614  1843.23691619
0.33900002 35754.69032650  2552.88501021
0.34000002 35270.49068824  2706.12852621
0.34100002 34795.93827318  2856.05074872
0.34200002 34331.39430967  2472.89044924
0.34300002 33875.52747961  2097.57276088
0.34400002 33429.64948033  2075.98133105
0.34500002 32992.62109030  1712.31711568
0.34600002 32565.50750438  2034.04169506
0.34700002 32146.31446916  1678.03769476
0.34800002 31737.27923732  1993.73597611
0.34900002 31336.84423165  1809.70284009
0.35000002 30945.92825203  1792.23351960
0.35100002 30564.60167092  1936.57325359
0.35200002 30190.66816888  1758.45555078
0.35300002 29826.94799187  1900.57321606
0.35400002 29471.47349688  2197.09845325
0.35500002 29125.24879757  1710.81719540
0.35600002 28787.25403537  1695.71327927
0.35700002 28458.02784954  1986.65501827
0.35800002 28137.84194437  1666.74514652
0.35900002 27826.78551913  1652.91113813
0.36000002 27523.92487364  2086.58884350
0.36100002 27228.88584405  2217.79285705
0.36200002 26944.00950337  2053.94194173
0.36300002 26666.03798323  1601.56231713
0.36400002 26396.97979970  1589.75818374
0.36500002 26135.45728874  1721.80400774
0.36600002 25883.08736683  2422.26884596
0.36700002 25638.21246806  1415.22939527
0.36800002 25402.34420959  1406.01981860
0.36900002 25174.25748006  1397.17135633
0.37000002 24953.50790531  2221.86044914
0.37100002 24740.65159625  1656.63410936
0.37200002 24536.38876762  1784.65432155
0.37300002 24339.52591554  1501.99221540
0.37400002 24150.11934512  1765.97756077
0.37500002 23968.58075515  1622.19362235
0.37600002 23794.85899623  1345.59933998
0.37700002 23628.24102994  1607.66559584
0.37800002 23469.00955104  2001.31988427
0.37900002 23318.00831248  1329.12653678
0.38000002 23173.25358857  1456.78665586
0.38100002 23035.10865100  2507.83239764
0.38200002 22905.25899964  1973.86078780
0.38300002 22781.58577854  1837.10716421
0.38400002 22665.23689774  1832.48448999
0.38500002 22554.99552833  1958.90145444
0.38600002 22452.49730093  1303.36753007
0.38700002 22355.60471211  1431.20588147
0.38800002 22265.39814484  1299.18604330
0.38900002 22181.56944540  1557.14624884
0.39000002 22104.70133347  1555.72895355
0.39100002 22033.07751901  1425.09952145
0.39200002 21968.38625369  1295.03643101
0.39300002 21909.06457166  1553.79093304
0.39400002 21856.87130956  1554.02362373
0.39500002 21809.14743774  1425.00976110
0.39600002 21767.45112781  1814.75248650
0.39700002 21730.79706398  1297.32864618
0.39800002 21700.80549024  1688.43125116
0.39900002 21675.12428462  1560.60902243
0.40000002 21655.10786010  1693.32123935
0.40100002 21639.86900079  1826.83782760
0.40200002 21630.19677915  1830.56364015
0.40300002 21625.06971053  1572.57514386
0.40400002 21624.89003272  1707.82577125
0.40500002 21628.91952017  1448.92138731
0.40600002 21638.48187900  1453.13231943
0.40700002 21651.91562449  1457.60702890
0.40800002 21669.52738666  1595.31068179
0.40900002 21691.08432554  1600.80209907
0.41000002 21717.41779628  1740.54253175
0.41100002 21747.41865097  1747.18769720
0.41200002 21780.42392849  1754.08652419
0.41300002 21818.58520278  1761.41446688
0.41400002 21859.45805292  1360.75132827
0.41500002 21903.91442288  1366.80432475
0.41600002 21950.76970020  1647.62485177
0.41700002 22002.39191579  1793.41505003
0.41800002 22057.37010651  1802.19750995
0.41900002 22113.58586610  1811.10276825
0.42000002 22173.27269330  1820.31490801
0.42100002 22236.48807952  2111.35464320
0.42200002 22301.84424886  1698.06250157
0.42300002 22369.44776622  2276.31511255
0.42400002 22439.35562560  1573.55988781
0.42500002 22512.08197310  2013.93094875
0.42600002 22585.69153180  2459.24313897
0.42700002 22662.50491361  1454.93288440
0.42800002 22740.50257994  1609.68655140
0.42900002 22821.28092651  1913.56449637
0.43000002 22903.37158563  1628.77334750
0.43100002 22985.57216729  2532.09074994
0.43200002 23070.54173382  1498.43175662
0.43300002 23156.05429337  1808.95104712
0.43400002 23243.25745169  1668.28488265
0.43500002 23330.97492020  1831.01499851
0.43600002 23420.42952238  1535.20922794
0.43700002 23509.93374898  2316.90408076
0.43800002 23599.82747486  1864.85845544
0.43900002 23691.30188105  1719.98859807
0.44000002 23782.60833235  2045.18550046
0.44100002 23874.67506331  1741.18013488
0.44200002 23966.82030429  1751.85481316
0.44300002 24059.31476978  2243.29061545
0.44400002 24151.71070842  1773.33944281
0.44500002 24243.62897930  2432.84828337
0.44600002 24335.30529595  2447.52344613
0.44700002 24427.76457279  1641.54585709
0.44800002 24518.74574321  2642.14016650
0.44900002 24609.89519951  2325.63520657
0.45000002 24700.79638527  2506.51343198
0.45100002 24790.27598146  2353.09310768
0.45200002 24879.45846133  2028.67113908
0.45300002 24967.43834426  1870.31089501
0.45400002 25054.72028583  1880.98321460
0.45500002 25141.32042976  2751.46623823
0.45600002 25226.37021305  2420.97486409
0.45700002 25310.60016651  1738.83831385
0.45800002 25393.20960175  1923.15482033
0.45900002 25474.43822149  2109.28358471
0.46000002 25554.76327786  1767.11196442
0.46100002 25632.76177968  2131.62057063
0.46200002 25709.90719113  2499.77439467
0.46300002 25785.30119880  2333.05416304
0.46400002 25858.40473672  2705.43572380
0.46500002 25930.91142357  1812.57079442
0.46600002 26000.46432551  2185.59913479
0.46700002 26068.21315045  2195.98637987
0.46800002 26134.74353117  2022.43722402
0.46900002 26198.48731840  2585.79082088
0.47000002 26260.25474776  2040.81579445
0.47100002 26320.24574442  2049.82083573
0.47200002 26378.02448215  3181.58557371
0.47300002 26433.51215035  1879.42280297
0.47400002 26486.16829680  2264.56749671
0.47500002 26536.92384497  2084.21009757
0.47600002 26585.91657075  3043.55587328
0.47700002 26631.47412142  3437.05821302
