# SAXS profile: number of points = 501, q_min = 0, q_max = 0.5, delta_q = 0.001
#    q    intensity    error
0.00000000 1646666.22097350 296.39991978
0.00100000 1646585.69579480 543.37329252
0.00200000 1646344.06072801 889.02582094
0.00300000 1645941.52583720 1283.83443589
0.00400000 1645377.97902527 1604.24359051
0.00500000 1644653.91410757 1480.18858128
0.00600000 1643769.24376903 1898.55355385
0.00700000 1642724.50224872 2365.52338155
0.00800000 1641519.51943127 3988.89260063
0.00900000 1640155.51558017 2952.28005425
0.01000000 1638631.89233074 3244.49128691
0.01100000 1636949.90418799 3830.46294258
0.01200000 1635109.41947026 3507.30985854
0.01300000 1633111.66276063 3772.48810736
0.01400000 1630956.57577344 4403.58294980
0.01500000 1628645.64365092 4299.62469070
0.01600000 1626178.18992382 7049.48276846
0.01700000 1623556.50375230 4821.96303245
0.01800000 1620780.49687654 5543.06954874
0.01900000 1617850.78313593 6794.97359578
0.02000000 1614768.61291940 5595.17349687
0.02100000 1611535.88681607 6381.68240113
0.02200000 1608151.19518042 5548.12187544
0.02300000 1604617.86204370 6931.94947956
0.02400000 1600935.12685254 7204.20839933
0.02500000 1597105.75215598 6851.58398967
0.02600000 1593129.60378865 6452.17519046
0.02700000 1589008.85473577 7341.22124512
0.02800000 1584743.33286453 8961.72395833
0.02900000 1580335.32290870 7822.66020757
0.03000000 1575786.64218479 11723.85315674
0.03100000 1571097.20037838 9803.64698146
0.03200000 1566268.40657519 8528.33186660
0.03300000 1561304.31464592 7962.65237178
0.03400000 1556202.87617406 12255.09821533
0.03500000 1550967.27703667 11725.31315585
0.03600000 1545598.88663613 9435.88163898
0.03700000 1540099.29165850 8778.56636844
0.03800000 1534470.00120534 10771.97990698
0.03900000 1528713.14756399 15592.87482726
0.04000000 1522828.58850451 15921.17363059
0.04100000 1516820.26784373 10511.56494354
0.04200000 1510688.85628186 11692.73229008
0.04300000 1504435.31354371 13900.98294240
0.04400000 1498063.29043691 13145.50598409
0.04500000 1491573.97151012 10291.86088163
0.04600000 1484967.08760458 19891.13506314
0.04700000 1478247.43248001 11707.72020974
0.04800000 1471414.93545112 14059.37036239
0.04900000 1464473.30371273 10983.55028910
0.05000000 1457422.51877439 14494.06762414
0.05100000 1450266.72136109 14705.70523965
0.05200000 1443004.41952374 18355.01707171
0.05300000 1435641.41395413 12791.56559465
0.05400000 1428177.90838039 12960.71512296
0.05500000 1420616.14332425 15513.12900878
0.05600000 1412957.05345662 13288.86170787
0.05700000 1405206.07843253 15892.88148893
0.05800000 1397362.07936356 16076.65147374
0.05900000 1389427.32581992 12504.84651643
0.06000000 1381405.70506517 18959.79418780
0.06100000 1373298.75185102 15326.01478686
0.06200000 1365108.29166821 20640.43833483
0.06300000 1356837.73367266 16933.33570796
0.06400000 1348485.68757910 19721.60410316
0.06500000 1340057.99507417 14593.23224900
0.06600000 1331556.19331757 20073.21055346
0.06700000 1322980.89396498 13494.40574997
0.06800000 1314336.11738897 17684.39328726
0.06900000 1305624.06217643 20563.57994204
0.07000000 1296845.21440408 13811.40218017
0.07100000 1288003.05047410 13910.43359665
0.07200000 1279099.91087300 16807.37361624
0.07300000 1270138.00555981 18328.09227900
0.07400000 1261119.82869734 14187.59873773
0.07500000 1252047.19371420 17128.00641284
0.07600000 1242921.06375950 17226.88675131
0.07700000 1233746.61375538 18765.28687510
0.07800000 1224524.03713199 17412.73262461
0.07900000 1215255.30166527 17499.67716478
0.08000000 1205944.83581573 16117.45348676
0.08100000 1196593.11835441 16189.90565094
0.08200000 1187202.10023206 16258.73352562
0.08300000 1177775.52515464 16323.96954476
0.08400000 1168314.04590338 22344.00717670
0.08500000 1158821.15923669 22423.19048389
0.08600000 1149298.12029499 16498.17529145
0.08700000 1139748.58541250 18053.61844069
0.08800000 1130172.24191031 15087.80013808
0.08900000 1120574.72896487 19666.08741704
0.09000000 1110955.08455367 15164.53761652
0.09100000 1101316.70455030 18237.80548419
0.09200000 1091661.28967381 18274.41084779
0.09300000 1081993.75657450 19832.94649000
0.09400000 1072310.84409890 16808.47327121
0.09500000 1062618.26220904 18362.04443404
0.09600000 1052917.17940520 15319.94568050
0.09700000 1043211.90599106 23002.82360853
0.09800000 1033502.44235085 23021.26798577
0.09900000 1023791.31558948 18428.24454715
0.10000000 1014079.17063326 21508.62022062
0.10100000 1004368.90027687 15366.84489697
0.10200000 994663.23670314 16904.30250289
0.10300000 984962.81522965 15365.42064038
0.10400000 975271.17419183 18432.62605939
0.10500000 965590.65058804 21494.04889337
0.10600001 955918.91767120 19945.24915570
0.10700001 946263.13946166 22994.19537097
0.10800001 936621.85053854 19907.89837010
0.10900001 926998.82695196 18354.57763752
0.11000001 917393.96137214 25966.83729889
0.11100001 907810.40144300 19826.58010082
0.11200001 898249.13041192 16747.85582497
0.11300001 888712.13127316 18236.37379231
0.11400001 879201.75948162 18199.47727818
0.11500001 869719.34863476 19673.05259248
0.11600001 860266.08137190 15097.67043905
0.11700001 850844.67071951 16565.94651908
0.11800001 841454.42944527 19525.95095492
0.11900001 832098.05392125 16475.54224367
0.12000001 822776.48843649 22400.09095284
0.12100001 813494.65320008 16375.64814034
0.12200001 804250.13620975 14838.41571213
0.12300001 795046.33556995 16266.64879215
0.12400001 785883.23202235 17682.37355365
0.12500001 776762.20099967 16148.88691973
0.12600001 767687.20158877 14624.44187942
0.12700001 758656.91217431 18936.07742026
0.12800001 749673.16077010 17407.41161348
0.12900001 740737.77732242 18777.70354016
0.13000001 731851.92778767 23009.42569419
0.13100001 723015.91258541 20042.00204160
0.13200001 714231.55939853 17098.70433804
0.13300001 705500.31962557 17016.66851159
0.13400001 696822.20273012 18343.84535170
0.13500001 688199.64761243 16847.12816786
0.13600001 679633.00706671 13966.45895375
0.13700001 671123.45775487 16670.70747671
0.13800001 662670.34689622 22106.68381492
0.13900001 654277.37423466 15113.80805756
0.14000001 645943.04201642 13661.69598294
0.14100001 637670.59793654 17657.09968962
0.14200001 629458.79719844 14852.08102040
0.14300001 621310.10721042 18788.41852825
0.14400001 613221.66967220 16005.08633340
0.14500001 605199.71564119 14579.26183753
0.14600001 597241.30712460 19753.75716502
0.14700001 589349.08286897 13083.55025693
0.14800001 581520.23970487 15596.37356470
0.14900001 573759.05331164 23237.24275547
0.15000001 566064.26644866 14103.49186401
0.15100001 558437.03643654 12732.36503153
0.15200001 550878.77896967 13906.93543132
0.15300001 543388.73528637 12552.28037744
0.15400001 535966.01988391 16199.57371547
0.15500001 528614.49893896 17317.41180250
0.15600001 521330.66282198 13505.07145777
0.15700001 514119.73993053 15840.02993486
0.15800001 506976.35988553 18137.08013095
0.15900001 499905.73209790 15597.05957764
0.16000001 492903.70136809 19045.79991987
0.16100001 485975.66328474 17713.81376290
0.16200001 479118.36974049 14057.33363178
0.16300001 472332.23720878 15105.18565902
0.16400001 465618.50071720 11524.05843680
0.16500001 458975.87424097 13714.19976979
0.16600001 452405.78039002 14732.59493397
0.16700001 445907.38558286 12360.55331196
0.16800001 439481.43167584 14483.11126472
0.16900001 433128.56982443 12149.25695724
0.17000001 426846.57285816 10948.61511080
0.17100001 420637.64111042 13022.94198374
0.17200001 414500.69784899 10756.29361712
0.17300001 408435.49257094 18122.28366119
0.17400001 402443.51605690 12676.97135448
0.17500001 396522.11233183 14655.45796393
0.17600001 390671.50420610 18670.19206779
0.17700001 384895.34786191 14387.38878260
0.17800001 379188.61100485 11199.33615500
0.17900001 373553.00927145 13111.71124474
0.18000001 367989.54272507 12988.19152398
0.18100001 362497.27580254 12865.02892593
0.18200001 357073.51953963 12742.16914669
0.18300001 351720.46303962 13590.47933386
0.18400001 346437.58043609 11536.37197351
0.18500001 341224.56049385 13328.23196254
0.18600001 336080.87618350 10369.77592455
0.18700001 331005.46563934 11201.22548643
0.18800001 325997.17204440 12014.62634334
0.18900001 321060.42662923 10980.26710951
0.19000001 316187.13003729 12682.26638502
0.19100001 311383.97169250 12555.00233187
0.19200001 306646.05595044 12428.36523493
0.19300001 301976.31880203 9666.26242161
0.19400001 297370.57865663 9567.89882040
0.19500001 292831.07886142 12913.85118803
0.19600001 288355.47035512 9372.99500683
0.19700001 283945.95029681 12649.79268352
0.19800001 279599.15398985 10849.84568333
0.19900001 275316.13689559 9911.38139665
0.20000001 271094.54376043 8990.85096873
0.20100001 266936.63188670 8088.18032843
0.20200001 262839.20436875 8003.45415130
0.20300001 258803.38554062 12671.01435496
0.20400001 254828.63999714 8619.57915531
0.20500001 250912.96803402 10854.49551021
0.20600001 247056.18220023 9972.42326589
0.20700001 243258.66095892 9866.57175488
0.20800001 239518.56986511 9010.68902426
0.20900001 235838.48715932 11143.36904504
0.21000001 232212.04794222 7349.51166480
0.21100001 228643.32430291 7997.94386221
0.21200001 225129.22773085 8631.45499925
0.21300001 221669.90590855 8538.72517927
0.21400001 218265.16400638 8446.86224639
0.21500001 214915.00045078 7659.57097819
0.21600001 211616.24435414 8954.54180320
0.21700001 208370.40480063 6813.71255913
0.21800001 205176.15877606 8762.04827481
0.21900001 202032.22559640 6667.06375991
0.22000001 198937.96046146 9892.19055167
0.22100001 195895.03912982 9784.95766720
0.22200001 192900.08215237 9678.76207965
0.22300001 189953.09347350 7020.66666676
0.22400001 187053.30596878 8206.96418746
0.22500001 184202.31906511 8742.24247623
0.22600001 181395.62143111 8029.47756235
0.22700001 178635.52526486 8553.06935415
0.22800001 175919.74727388 6647.12796509
0.22900001 173247.53838710 7770.15246412
0.23000001 170619.62407223 7094.36430443
0.23100001 168035.62951841 7601.93223893
0.23200001 165492.01942799 6940.73562306
0.23300001 162991.09863818 7437.28418260
0.23400001 160530.48355873 7356.30975700
0.23500001 158109.42689275 6156.78137440
0.23600001 155728.64837543 6089.76908275
0.23700001 153386.97370077 5475.91522012
0.23800001 151083.22397263 8666.13413697
0.23900001 148817.24095968 5357.42092795
0.24000001 146587.77905320 6358.97815611
0.24100001 144395.84294080 5765.72628135
0.24200001 142239.66555721 7776.95408221
0.24300001 140117.94596984 6153.98047810
0.24400001 138031.05236671 10652.54697030
0.24500001 135977.52405382 7024.59922491
0.24600001 133957.75508870 5955.76207298
0.24700001 131971.21302199 6382.12816366
0.24800001 130016.48713205 5341.72762652
0.24900001 128092.47595143 6724.85530559
0.25000001 126200.50206177 7127.17369111
0.25100001 124338.36429717 5169.98943206
0.25200001 122507.73590056 6508.83631633
0.25300001 120705.00944107 4598.86107728
0.25400001 118932.20375467 5458.98841061
0.25500001 117186.10265466 4949.94121032
0.25600001 115469.10238650 5341.60092912
0.25700001 113778.39587991 5283.86895466
0.25800001 112114.59498231 6097.91310960
0.25900001 110477.83930220 6032.09031131
0.26000001 108866.07496934 5966.94985140
0.26100001 107279.03047312 6745.70575533
0.26200001 105718.30525734 5421.76354166
0.26300001 104180.08919506 4950.63807280
0.26400001 102667.05488291 4897.21874964
0.26500001 101176.98431095 4844.35423804
0.26600001 99709.71481214  5590.72397407
0.26700001 98265.04709071  4740.30609597
0.26800001 96842.85421591  4298.37028778
0.26900001 95441.58288185  5798.07643445
0.27000001 94062.29082584  4205.99553331
0.27100001 92703.37963843  4916.98748871
0.27200001 91365.68360527  5612.13738104
0.27300001 90047.80472943  4441.15793943
0.27400001 88748.37041644  5125.21863410
0.27500001 87470.27354779  6518.28509326
0.27600001 86208.81089235  4656.56914073
0.27700001 84968.08151450  6023.38758363
0.27800001 83744.50401373  4205.64919061
0.27900001 82539.35890366  6586.64115224
0.28000001 81351.37851889  3771.85684354
0.28100001 80181.00895883  3730.82252343
0.28200001 79027.99483115  4025.68624723
0.28300001 77891.44214118  4313.62826994
0.28400001 76770.77575732  4922.92622844
0.28500001 75666.75740845  4219.93526040
0.28600001 74578.43260976  3531.66184340
0.28700001 73506.34462452  4128.11650951
0.28800001 72447.96875537  4082.80547246
0.28900001 71406.41663556  4348.65097894
0.29000001 70378.89250872  3072.03880342
0.29100001 69366.60891850  3342.08337589
0.29200001 68368.16964567  3605.73743779
0.29300001 67384.12388362  3268.80400433
0.29400001 66413.31259033  3820.42598760
0.29500001 65457.63881728  3778.21509138
0.29600001 64514.01249736  3448.91927137
0.29700001 63584.28206057  3410.66105118
0.29800001 62667.97819512  3372.79074612
0.29900001 61764.68735988  3057.35216905
0.30000001 60873.36113381  2748.43238530
0.30100001 59995.74984608  3533.14987570
0.30200001 59129.44930098  2956.17695775
0.30300001 58276.22034846  2923.13535106
0.30400001 57434.97450419  2890.41522876
0.30500001 56606.09458289  3897.32979654
0.30600001 55787.90406496  3339.74303496
0.30700001 54982.21835880  4572.32149519
0.30800001 54187.85106326  2762.76771726
0.30900001 53405.05768822  3725.00295011
0.31000001 52633.61351879  2700.89400559
0.31100001 51872.82893703  3641.47276379
0.31200001 51124.06923732  3120.35771364
0.31300001 50385.52039262  2610.47393514
0.31400001 49659.06848208  2346.39109687
0.31500001 48942.16614054  3015.81642037
0.31600002 48237.04044534  2523.03851995
0.31700002 47541.70197581  2721.28714994
0.31800002 46856.74267749  3587.35238924
0.31900002 46182.86737110  2660.13328653
0.32000002 45519.39903781  2410.93508419
0.32100002 44865.78229987  2167.01738769
0.32200002 44223.28324042  2999.66544423
0.32300002 43589.25204752  2753.96907476
0.32400002 42966.48462336  2723.00109194
0.32500002 42353.37366443  2899.51209836
0.32600002 41750.35213283  2457.42584290
0.32700002 41157.27106835  2429.92539894
0.32800002 40574.83644337  2202.60510063
0.32900002 40000.14586848  1980.00731425
0.33000002 39436.72149171  2937.04997218
0.33100002 38881.75103753  2710.83581071
0.33200002 38337.91465552  1914.97892773
0.33300002 37802.77866236  1893.91930067
0.33400002 37277.83209334  2622.49561196
0.33500002 36761.83885542  2038.07644266
0.33600002 36254.84965265  2015.95101040
0.33700002 35757.27983813  2175.47300838
0.33800002 35269.99008141  3048.91443698
0.33900002 34790.96142128  2129.20693982
0.34000002 34321.37722995  2457.75393983
0.34100002 33861.01360754  1910.77708836
0.34200002 33410.60022472  2234.66810186
0.34300002 32968.55222500  2041.41285045
0.34400002 32536.19273725  2188.87247006
0.34500002 32112.39890847  1833.29694051
0.34600002 31698.24527851  1979.87249386
0.34700002 31291.90250193  1633.43738796
0.34800002 30895.39305455  2587.79824481
0.34900002 30507.17287637  1921.95198224
0.35000002 30128.20815765  1744.87525809
0.35100002 29758.76291070  2356.89413416
0.35200002 29396.36548407  2179.15267655
0.35300002 29043.98601811  1850.68287673
0.35400002 28699.66096275  2139.55982611
0.35500002 28364.44382322  1514.66137190
0.35600002 28037.09136146  1801.66357622
0.35700002 27718.39231288  1488.47773770
0.35800002 27408.35043945  1623.53371518
0.35900002 27107.26985370  1756.55116972
0.36000002 26814.24100456  2323.18595067
0.36100002 26528.91632606  2304.83235958
0.36200002 26253.35655430  2144.24299814
0.36300002 25984.68686241  1560.64036688
0.36400002 25724.65150210  1971.79463103
0.36500002 25471.94292086  1398.40973259
0.36600002 25228.26062279  1666.57897568
0.36700002 24991.89812623  1931.37397868
0.36800002 24764.33825943  1507.77680635
0.36900002 24544.41342605  2043.32251451
0.37000002 24331.70322950  1760.27715352
0.37100002 24126.57849182  1750.14208670
0.37200002 23929.91481873  1740.54243679
0.37300002 23740.49442681  1465.02598048
0.37400002 23558.52347273  1855.23381136
0.37500002 23384.16356096  1450.75357605
0.37600002 23217.33763853  1312.94050565
0.37700002 23057.56354254  2222.51865515
0.37800002 22905.13556449  1562.58842223
0.37900002 22760.61475504  1816.29714349
0.38000002 22622.39398606  1680.73084082
0.38100002 22490.54242752  1417.57895636
0.38200002 22366.89807711  1413.47619094
0.38300002 22249.15812260  1794.17219600
0.38400002 22138.68518909  1662.06186931
0.38500002 22034.25008321  1786.09639636
0.38600002 21937.38731699  1273.46539408
0.38700002 21846.11621573  1525.73282879
0.38800002 21761.34767372  1396.75216661
0.38900002 21682.87748754  1775.82775036
0.39000002 21611.17175786  1394.24481201
0.39100002 21544.81879798  1646.88602694
0.39200002 21484.97157038  1393.19304749
0.39300002 21430.57959502  1519.85677689
0.39400002 21383.18538914  1393.64917376
0.39500002 21340.26195228  1267.61162002
0.39600002 21303.22836246  2156.63242545
0.39700002 21271.08056642  1650.84864097
0.39800002 21245.50521117  1398.69790185
0.39900002 21224.20442718  1655.48802375
0.40000002 21208.46666536  1530.82719643
0.40100002 21197.52537312  1406.03192462
0.40200002 21192.00619554  1793.47956930
0.40300002 21190.98605195  1412.59119715
0.40400002 21194.72738265  2060.12759920
0.40500002 21202.67809705  1807.74042021
0.40600002 21216.14721028  1554.29501827
0.40700002 21233.40713840  1429.43303628
0.40800002 21254.77071605  1825.57234330
0.40900002 21279.96985645  1832.20549145
0.41000002 21309.99347621  1445.13727606
0.41100002 21343.52897323  1714.73919896
0.41200002 21380.08289414  1456.94581785
0.41300002 21421.73637190  1862.40584842
0.41400002 21466.12089772  1870.77252488
0.41500002 21513.94720773  1879.45851712
0.41600002 21564.33117514  1483.73387681
0.41700002 21619.20322232  1491.07651690
0.41800002 21677.51100226  1634.91795726
0.41900002 21736.95847429  1917.19982828
0.42000002 21799.93736666  1376.66610994
0.42100002 21866.26765446  1660.96176974
0.42200002 21934.87062766  1670.12112873
0.42300002 22005.59411019  1819.42260724
0.42400002 22078.69348299  1548.26845386
0.42500002 22154.47336452  1698.80509809
0.42600002 22231.12231523  1708.68414212
0.42700002 22311.08995208  1575.60924708
0.42800002 22392.19597965  2593.68818323
0.42900002 22475.90456009  1594.66550410
0.43000002 22560.99213417  1604.42503165
0.43100002 22646.20174537  1760.96873117
0.43200002 22734.25571980  2362.54396636
0.43300002 22822.69134409  2080.06018767
0.43400002 22912.91572823  1794.08138654
0.43500002 23003.60988447  2707.98508393
0.43600002 23096.02919371  2270.91717809
0.43700002 23188.52425633  1523.48611584
0.43800002 23281.32151363  1992.99762262
0.43900002 23375.80640470  1697.08362541
0.44000002 23470.07271554  2018.30899882
0.44100002 23565.16970300  2343.55623802
0.44200002 23660.32858467  2358.34336344
0.44300002 23755.79513106  2373.20404606
0.44400002 23851.17932379  1751.27292484
0.44500002 23946.05558742  1922.38943366
0.44600002 24040.77485084  1934.32083617
0.44700002 24136.22360100  2108.54059371
0.44800002 24230.32064501  1795.10339006
0.44900002 24324.50145179  1641.90392581
0.45000002 24418.50921695  2477.86834022
0.45100002 24510.91909816  1661.84039361
0.45200002 24603.18753344  2340.50134098
0.45300002 24694.25306520  2186.18232747
0.45400002 24784.61579247  2029.86012960
0.45500002 24874.34187379  2381.96709072
0.45600002 24962.51799830  2224.53489685
0.45700002 25049.89522071  1720.92788322
0.45800002 25135.65149482  1903.64865618
0.45900002 25220.10634850  1914.20616257
0.46000002 25303.64629540  2099.69666911
0.46100002 25384.94890003  2111.01245058
0.46200002 25465.32874169  1768.56716493
0.46300002 25543.94568075  1777.85870364
0.46400002 25620.32406571  1965.71945711
0.46500002 25696.15466642  2335.00968521
0.46600002 25769.01405001  2707.67927964
0.46700002 25840.16612468  1813.97974793
0.46800002 25909.97870823  2005.04379737
0.46900002 25977.08689376  2014.52318409
0.47000002 26042.36058517  2207.87143506
0.47100002 26105.79136371  2033.11912777
0.47200002 26167.00982150  2227.85932180
0.47300002 26225.89579606  2424.05966332
0.47400002 26282.06381377  2808.89570323
0.47500002 26336.39086220  1880.41839669
0.47600002 26388.91494995  4153.87929916
0.47700002 26437.98704773  2464.28488952
