# SAXS profile: number of points = 501, q_min = 0, q_max = 0.5, delta_q = 0.001
#    q    intensity    error
0.00000000 1646666.22097351 246.99993315
0.00100000 1646585.77001580 642.16846556
0.00200000 1646344.35551379 1037.19697682
0.00300000 1645942.19394960 1185.07842186
0.00400000 1645379.15899697 1604.24474098
0.00500000 1644655.74112051 1924.24729328
0.00600000 1643771.89381254 2588.94083816
0.00700000 1642728.10649953 2759.78333362
0.00800000 1641524.22925679 3767.29826520
0.00900000 1640161.46246269 2706.26652875
0.01000000 1638639.24658649 3244.50584834
0.01100000 1636958.77171310 4419.78887606
0.01200000 1635119.97490075 3826.18090902
0.01300000 1633124.07484835 4115.47285013
0.01400000 1630970.91873160 6238.46404071
0.01500000 1628662.08075657 4299.66808466
0.01600000 1626196.86091439 4976.16261685
0.01700000 1623577.58700180 5260.39161786
0.01800000 1620804.11472900 6467.00870877
0.01900000 1617877.02887956 6309.72069734
0.02000000 1614797.72458559 6103.93567505
0.02100000 1611567.93588433 5849.99187249
0.02200000 1608186.28035624 8322.36437895
0.02300000 1604656.21054895 8665.14393139
0.02400000 1600976.78711594 6604.02954798
0.02500000 1597150.86388372 6851.77751899
0.02600000 1593178.34385215 9033.32162281
0.02700000 1589061.33070824 9343.68105252
0.02800000 1584799.67644887 10340.81836305
0.02900000 1580395.66731517 12090.02741006
0.03000000 1575851.12756147 12457.10373597
0.03100000 1571165.79867504 9804.07503485
0.03200000 1566341.46128131 8528.72964949
0.03300000 1561381.82257235 7963.04766222
0.03400000 1556285.05861351 12255.74540207
0.03500000 1551054.16159337 8375.69285938
0.03600000 1545690.56238152 9436.44131943
0.03700000 1540195.88994177 10534.94037442
0.03800000 1534571.65711090 13465.86691434
0.03900000 1528820.01192782 12842.08869491
0.04000000 1522940.68150299 10302.69418778
0.04100000 1516937.76711184 12423.72088869
0.04200000 1510811.77081784 11693.68364863
0.04300000 1504563.94301699 11916.14698182
0.04400000 1498197.55663865 10112.83397697
0.04500000 1491713.91711547 15439.23975953
0.04600000 1485113.00859508 13611.06135651
0.04700000 1478399.29519764 15966.71313071
0.04800000 1471572.92922967 14060.87999302
0.04900000 1464637.49084826 13181.73803121
0.05000000 1457592.85430447 15610.82019654
0.05100000 1450443.34888989 16970.18797255
0.05200000 1443187.44379235 17210.01106923
0.05300000 1435831.05207248 13956.27847676
0.05400000 1428374.00861324 12962.49473266
0.05500000 1420818.79823669 16708.82984672
0.05600000 1413166.47565977 18123.86089607
0.05700000 1405422.34027720 14672.60991739
0.05800000 1397585.12113122 14842.35467944
0.05900000 1389657.14644162 15008.29788254
0.06000000 1381642.67127353 15170.43723933
0.06100000 1373542.79038371 12773.94854751
0.06200000 1365359.24378617 20644.23273103
0.06300000 1357096.03196404 20844.99602558
0.06400000 1348751.11642409 13150.32400013
0.06500000 1340330.63262042 23884.69299057
0.06600000 1331836.04865587 14723.44820678
0.06700000 1323268.18774354 18896.27060530
0.06800000 1314630.69847632 23130.92822243
0.06900000 1305926.04133503 13712.22407601
0.07000000 1297154.61875830 16577.63680404
0.07100000 1288320.04895623 25044.94292476
0.07200000 1279424.26353151 16811.63561038
0.07300000 1270469.91356982 15512.43837153
0.07400000 1261459.30646219 15610.55964905
0.07500000 1252394.22548896 15705.02432377
0.07600000 1243275.81521335 14359.83633891
0.07700000 1234108.79120192 18770.79559432
0.07800000 1224893.94929790 20320.99157183
0.07900000 1215632.74966164 18963.87178420
0.08000000 1206330.04957758 20519.67510591
0.08100000 1196985.80229968 19139.80387678
0.08200000 1187602.39257352 19221.34562577
0.08300000 1178183.39535949 17814.13377389
0.08400000 1168729.73424800 16391.43529222
0.08500000 1159244.32260527 16449.67771000
0.08600000 1149728.82906788 16504.35811617
0.08700000 1140186.89620329 21070.65483127
0.08800000 1130618.23820919 19621.88044564
0.08900000 1121028.16298342 18160.65709333
0.09000000 1111416.20497588 15170.83191058
0.09100000 1101785.27890004 16725.10131947
0.09200000 1092137.12337729 16758.84494567
0.09300000 1082477.01193120 16789.21924401
0.09400000 1072801.58050579 22931.13486102
0.09500000 1063116.36189701 15308.87633088
0.09600000 1053422.57342005 15327.29916376
0.09700000 1043724.52363325 26082.67707181
0.09800000 1034022.09092396 18426.27452663
0.09900000 1024318.53863452 16901.25668221
0.10000000 1014613.25953083 15371.39160477
0.10100000 1004910.24806528 16912.64027037
0.10200000 995211.33850124 16913.61749338
0.10300000 985517.85512196 30748.15852622
0.10400000 975833.15459765 16906.31019876
0.10500000 966159.52636682 18434.32463040
0.10600001 956494.43097169 16886.90997339
0.10700001 946845.18977628 16872.78207581
0.10800001 937210.64364397 16855.73421920
0.10900001 927593.92116336 16835.83046150
0.11000001 917995.51325904 18341.55121824
0.11100001 908418.38023584 15261.42950637
0.11200001 898863.28181911 24377.17335054
0.11300001 889332.56167365 18249.10502473
0.11400001 879828.08186219 15177.03512672
0.11500001 870351.77252203 18172.94586599
0.11600001 860904.36463153 15108.87231078
0.11700001 851488.76379775 16578.48701190
0.11800001 842104.07838640 15031.55850716
0.11900001 832753.37473863 19486.42988673
0.12000001 823437.16381404 19429.00079539
0.12100001 814160.64325859 22348.71071025
0.12200001 804921.41269381 14850.80076384
0.12300001 795722.80592058 23680.71181990
0.12400001 786564.62239005 17697.70483765
0.12500001 777448.30273719 16163.15097552
0.12600001 768378.23349258 16101.36664159
0.12700001 759352.49043296 18953.43905441
0.12800001 750373.27693964 15971.69595239
0.12900001 741442.37196169 15903.93962816
0.13000001 732560.83350879 17273.78526834
0.13100001 723728.73694004 18628.77856695
0.13200001 714948.36321934 17115.86462232
0.13300001 706221.08260163 19873.06220129
0.13400001 697546.56819710 18362.91427352
0.13500001 688927.77960721 16864.95283994
0.13600001 680364.33997346 13981.48784569
0.13700001 671858.09105201 23642.68733895
0.13800001 663407.95123652 23514.49594042
0.13900001 655018.12224822 16506.45745907
0.14000001 646686.75632273 13677.42554126
0.14100001 638416.85018319 14958.10750526
0.14200001 630207.56750047 14869.74825651
0.14300001 622061.36149776 14780.17864633
0.14400001 613975.17492992 18695.54495848
0.14500001 605955.30851444 13270.42188246
0.14600001 597998.80710175 17141.63661422
0.14700001 590108.26847527 13100.40417818
0.14800001 582280.93633280 15616.77544922
0.14900001 574521.23577342 14219.40125627
0.15000001 566827.82359521 14122.51589122
0.15100001 559201.59166913 15299.75626999
0.15200001 551644.29041541 15192.28447492
0.15300001 544155.11317111 12569.98370742
0.15400001 536733.07374914 14974.85346428
0.15500001 529381.67899326 16103.79143496
0.15600001 522098.23101969 14754.49670495
0.15700001 514887.59361567 20744.82212587
0.15800001 507744.03434024 14531.63494869
0.15900001 500673.35429365 13217.77717724
0.16000001 493670.79238597 13114.36521876
0.16100001 486742.17610543 14193.40252522
0.16200001 479883.99663060 15253.11355294
0.16300001 473096.96799741 13965.82315458
0.16400001 466382.17547713 12697.25532680
0.16500001 459738.24969181 12592.23125355
0.16600001 453166.81729008 17027.74396361
0.16700001 446666.82748672 11256.00458411
0.16800001 440238.98786507 12276.06475625
0.16900001 433884.27669046 14383.26445144
0.17000001 427600.16448168 12064.73921054
0.17100001 421388.83004514 18482.11495853
0.17200001 415249.35557469 14008.43767183
0.17300001 409181.50631463 18155.38429256
0.17400001 403186.78624984 12700.38436666
0.17500001 397262.41483588 10487.72824698
0.17600001 391408.59215165 11431.08847367
0.17700001 385629.00978281 10296.29504750
0.17800001 379918.66089292 12240.97983214
0.17900001 374279.45138312 13137.20936406
0.18000001 368712.18291832 10010.53623908
0.18100001 363215.86461851 10907.37292972
0.18200001 357787.94418158 16696.17520393
0.18300001 352430.60132345 10699.79356163
0.18400001 347143.18198854 9633.22375526
0.18500001 341925.36535317 10493.68995843
0.18600001 336776.90393230 15114.54816255
0.18700001 331696.45422267 11224.60854120
0.18800001 326682.92658251 10187.60754680
0.18900001 321740.77687083 11003.53508887
0.19000001 316862.01353080 9985.90682825
0.19100001 312053.14405086 9885.84407064
0.19200001 307309.43274376 11565.59104780
0.19300001 302633.77162865 10567.97180464
0.19400001 298021.84823016 9588.85341992
0.19500001 293476.04384817 9491.01570655
0.19600001 288994.01515510 13663.63768223
0.19700001 284577.92112644 10987.55405394
0.19800001 280224.31865792 10037.63556869
0.19900001 275934.31370125 11589.24172316
0.20000001 271705.74226746 9011.12136818
0.20100001 267540.67469145 12159.72423942
0.20200001 263435.89778427 9625.94815999
0.20300001 259392.68981146 9524.90002007
0.20400001 255410.33669921 7853.86822472
0.20500001 251486.85074313 11656.41608291
0.20600001 247622.15802794 9995.26888125
0.20700001 243816.70035352 10649.91397485
0.20800001 240068.24397595 7526.13980441
0.20900001 236379.99586800 8190.56724400
0.21000001 232745.15923174 8103.02310170
0.21100001 229167.93499082 8016.29474494
0.21200001 225645.20330062 7209.36458627
0.21300001 222177.08793927 9984.63880402
0.21400001 218763.51567762 8466.14845697
0.21500001 215404.30823733 11166.55986695
0.21600001 212096.46662414 9665.23644102
0.21700001 208841.28055003 8194.93223624
0.21800001 205637.82755905 8106.24354565
0.21900001 202484.49781620 9354.78424142
0.22000001 199380.69218213 7270.41728418
0.22100001 196328.07693052 6537.72527091
0.22200001 193323.45255153 7113.33677298
0.22300001 190366.61796229 8315.21426578
0.22400001 187456.96390080 6326.67283082
0.22500001 184595.93311403 7509.36291418
0.22600001 181779.16768063 8046.45523789
0.22700001 179008.85012527 7346.52355655
0.22800001 176282.96788790 6660.85225664
0.22900001 173600.38312337 7785.97755129
0.23000001 170962.08557036 7700.98750871
0.23100001 168367.62943492 9374.71005029
0.23200001 165813.49985273 6374.70030332
0.23300001 163302.05226388 7451.47299721
0.23400001 160830.65902104 6236.20909848
0.23500001 158398.99565172 6168.05718240
0.23600001 156007.49250504 5546.06662087
0.23700001 153655.03406712 7679.67896591
0.23800001 151340.28963910 8680.87942429
0.23900001 149063.35939945 6976.16554986
0.24000001 146822.97760222 5838.41598051
0.24100001 144620.09626758 5249.70974283
0.24200001 142452.84888465 6750.12856369
0.24300001 140320.10296215 5135.71601135
0.24400001 138222.05776541 5587.62694948
0.24500001 136157.49604763 7033.89657855
0.24600001 134126.59656170 5963.26876523
0.24700001 132128.90977510 5898.23481138
0.24800001 130163.03985134 5833.90772212
0.24900001 128227.82276880 6251.10665570
0.25000001 126324.81299692 6182.96826464
0.25100001 124451.23264169 7056.38522461
0.25200001 122609.56949550 5583.64005899
0.25300001 120795.66670464 5062.54663110
0.25400001 119011.72238235 5462.63831579
0.25500001 117254.34766533 4502.56716337
0.25600001 115526.19955490 4898.88872390
0.25700001 113824.30564240 6607.50125516
0.25800001 112149.40206202 5664.10581913
0.25900001 110501.54408753 4740.51646565
0.26000001 108878.70897281 5541.38215536
0.26100001 107280.54672816 4637.73825450
0.26200001 105708.78825302 4587.23308329
0.26300001 104159.64583096 4537.19438709
0.26400001 102635.59700987 6935.60079612
0.26500001 101134.69803577 6456.43942811
0.26600001 99656.56563211  3991.24564243
0.26700001 98201.03033587  4737.21792757
0.26800001 96768.16384751  5075.97427482
0.26900001 95356.17149509  4634.31015396
0.27000001 93966.14806243  4201.69650944
0.27100001 92596.62841771  4533.53114187
0.27200001 91248.38839397  4110.28384972
0.27300001 89920.10970061  4065.28835195
0.27400001 88610.20805621  4386.20550636
0.27500001 87321.92998179  4338.15368680
0.27600001 86050.27337682  4290.46683362
0.27700001 84799.27701521  3889.74302078
0.27800001 83565.63262573  3497.22189090
0.27900001 82350.45890933  5879.82304441
0.28000001 81152.65569818  3762.64305953
0.28100001 79972.41600802  4059.40002869
0.28200001 78809.73435590  4349.11539627
0.28300001 77663.47209371  3970.15688134
0.28400001 76533.28538202  3271.79810494
0.28500001 75419.94678188  4529.72221812
0.28600001 74322.30864892  3839.49064653
0.28700001 73241.04544005  4746.01996916
0.28800001 72173.59480070  4380.21567578
0.28900001 71123.10998808  4331.39760329
0.29000001 70086.69667227  3977.06979092
0.29100001 69065.58850182  4537.60937936
0.29200001 68058.57544253  3290.29198552
0.29300001 67066.03714110  4140.65732909
0.29400001 66086.94804090  3509.21710709
0.29500001 65122.98967116  3180.60696610
0.29600001 64171.22693492  2858.82829528
0.29700001 63233.65969222  3957.16261086
0.29800001 62309.40330160  2794.57687037
0.29900001 61398.51167139  3315.51978721
0.30000001 60499.64955563  4370.49489080
0.30100001 59614.59480554  2970.59539979
0.30200001 58741.02429304  3203.73561661
0.30300001 57880.74844141  2639.36225388
0.30400001 57032.48696563  2870.16004242
0.30500001 56196.81499475  2837.37732341
0.30600001 55371.95008739  3059.85410669
0.30700001 54559.76589131  3780.99195527
0.30800001 53759.03831047  2990.07785239
0.30900001 52970.13102176  3694.66681369
0.31000001 52192.59140363  4382.61210766
0.31100001 51426.01527930  2888.08515482
0.31200001 50671.53756121  2616.93168125
0.31300001 49927.44326510  3292.21576477
0.31400001 49195.66202009  3719.19222481
0.31500001 48473.52754902  2986.93890899
0.31600002 47763.38445867  2952.49375011
0.31700002 47063.17872269  3816.35334332
0.31800002 46373.52688419  2662.76803977
0.31900002 45695.18543128  3070.71660638
0.32000002 45027.41873584  2384.87734627
0.32100002 44369.62818844  2785.96908587
0.32200002 43723.14666532  2542.06386749
0.32300002 43085.28578099  3350.31198097
0.32400002 42458.87101360  2483.84407191
0.32500002 41842.35832566  2046.09141901
0.32600002 41236.12354871  3033.94793376
0.32700002 40639.89760278  2199.43136241
0.32800002 40054.52548369  1976.69092622
0.32900002 39477.12546036  2149.52958310
0.33000002 38911.13904201  2704.71340289
0.33100002 38353.86968800  2865.03420137
0.33200002 37807.83145496  1888.50127060
0.33300002 37270.72765380  1867.26354388
0.33400002 36743.92202533  2215.65860305
0.33500002 36226.29743792  1825.80547733
0.33600002 35717.86521258  2347.19962360
0.33700002 35219.07736950  1964.16803791
0.33800002 34730.63929548  4061.92211116
0.33900002 34250.76998768  1746.78935210
0.34000002 33780.41938971  2073.44224033
0.34100002 33319.53753186  2051.15082760
0.34200002 32868.76960567  1691.09827630
0.34300002 32426.60536001  2007.85549898
0.34400002 31994.26543566  2483.55497206
0.34500002 31570.70807718  2293.92775753
0.34600002 31156.87851050  2432.57340492
0.34700002 30751.06792897  1926.24698630
0.34800002 30355.37365416  1906.92466327
0.34900002 29968.04838598  1730.65487626
0.35000002 29590.20735439  2181.09428739
0.35100002 29222.00247506  2160.09052526
0.35200002 28861.03515437  1833.83026056
0.35300002 28510.29411143  1968.06569573
0.35400002 28167.83139633  2549.89305793
0.35500002 27834.58104847  1635.00336823
0.35600002 27509.35084397  1915.06354971
0.35700002 27192.92115029  1752.31192192
0.35800002 26885.38823259  2026.88951486
0.35900002 26587.01923968  1866.40883903
0.36000002 26296.87597932  1851.16867225
0.36100002 26014.50288284  1836.36384548
0.36200002 25742.14149150  1822.15757179
0.36300002 25476.73587928  1530.13282939
0.36400002 25220.18640696  1795.04685254
0.36500002 24971.15254665  1919.28287565
0.36600002 24731.23389602  1497.59993951
0.36700002 24498.81183170  1622.80137260
0.36800002 24275.36531494  2015.46230074
0.36900002 24059.72226513  2002.97197345
0.37000002 23851.39711344  1460.06334346
0.37100002 23650.86816522  1847.60590859
0.37200002 23458.93833500  1443.78042822
0.37300002 23274.38541306  1566.83170023
0.37400002 23097.35608846  1948.83951228
0.37500002 22928.16215562  1551.77808820
0.37600002 22766.62756589  1802.43398978
0.37700002 22612.26516361  2179.59634237
0.37800002 22465.33827381  1915.73181205
0.37900002 22326.53863001  1654.39659086
0.38000002 22194.10801655  1395.23266656
0.38100002 22068.20298746  2023.21294574
0.38200002 21950.56496210  1765.48402354
0.38300002 21839.05343619  2138.48021378
0.38400002 21734.87247686  1506.22673400
0.38500002 21636.88740245  2004.44134392
0.38600002 21546.55622501  1375.85541293
0.38700002 21461.89782556  1748.71551767
0.38800002 21383.88566417  1622.07472390
0.38900002 21312.30006079  1371.44657388
0.39000002 21247.54805469  1246.16875245
0.39100002 21188.22009318  1370.45414055
0.39200002 21135.57476784  2242.69594487
0.39300002 21088.43644941  1246.32665321
0.39400002 21048.38198366  1371.82836078
0.39500002 21012.89189248  1248.16583755
0.39600002 20983.41095327  2124.25570850
0.39700002 20958.87161731  1376.36916432
0.39800002 20940.96005716  1629.31147444
0.39900002 20927.46470152  2009.03670653
0.40000002 20919.57561523  1384.14378616
0.40100002 20916.55187513  1513.52176539
0.40200002 20919.01274922  1643.92069479
0.40300002 20926.02114725  1775.36371825
0.40400002 20937.92689490  1526.37494296
0.40500002 20954.08613173  1531.32468706
0.40600002 20975.77814273  1920.85697443
0.40700002 21001.31391571  1413.80851979
0.40800002 21031.00942689  1935.37873421
0.40900002 21064.61952078  1554.56899429
0.41000002 21103.07407888  1561.20549433
0.41100002 21145.08397657  1568.11950200
0.41200002 21190.19935808  1575.27949492
0.41300002 21240.36886944  1978.54045394
0.41400002 21293.31832452  1723.16186706
0.41500002 21349.77924580  1598.67154568
0.41600002 21408.75706389  1606.94138136
0.41700002 21472.32743336  1884.84099141
0.41800002 21539.27989310  1624.49256651
0.41900002 21607.42083025  1769.64784985
0.42000002 21679.08804993  1916.64826531
0.42100002 21754.15284793  1514.74173458
0.42200002 21831.56231464  1662.25523340
0.42300002 21910.97727252  2229.66115291
0.42400002 21992.82470722  1682.45116983
0.42500002 22077.32054366  1551.81493455
0.42600002 22162.74863842  1561.47652931
0.42700002 22251.40051733  1714.24797709
0.42800002 22341.21863806  1581.42323623
0.42900002 22433.68306341  1446.97262616
0.43000002 22527.42692638  1602.03804179
0.43100002 22621.32545785  1759.03435096
0.43200002 22717.96042205  1623.08475927
0.43300002 22815.08843076  1930.84102539
0.43400002 22913.86206699  2242.69435608
0.43500002 23013.11790889  1505.05798256
0.43600002 23114.04404137  1666.63822458
0.43700002 23215.02004645  1525.22688933
0.43800002 23316.32214752  1995.99385203
0.43900002 23419.20853615  1700.23462030
0.44000002 23521.85420939  2489.55316750
0.44100002 23625.22464628  1566.35246828
0.44200002 23728.65264140  1892.12285129
0.44300002 23832.37066329  1745.95955753
0.44400002 23935.86816380  1757.49120322
0.44500002 24038.86762120  1929.84038409
0.44600002 24141.61245703  2428.04278793
0.44700002 24245.02467329  1955.11888231
0.44800002 24346.97580799  2295.67645773
0.44900002 24449.03499180  1980.37192819
0.45000002 24550.78542562  1993.03285531
0.45100002 24650.92089093  1671.33251561
0.45200002 24750.80271613  1849.99883669
0.45300002 24849.41857755  2030.69458240
0.45400002 24947.22483788  2213.44262864
0.45500002 25044.30140534  2740.84847570
0.45600002 25139.80248824  3102.00037604
0.45700002 25234.43258122  1906.96616054
0.45800002 25327.26454235  1743.78224639
0.45900002 25418.75397879  2630.84116149
0.46000002 25509.20512187  2293.15010311
0.46100002 25597.31721793  2660.84125091
0.46200002 25684.43556414  3924.32509584
0.46300002 25769.73662447  2152.28850488
0.46400002 25852.66973655  2524.51331942
0.46500002 25934.89112814  1994.13387336
0.46600002 26014.09621962  2733.43128983
0.46700002 26091.45083920  2930.59189716
0.46800002 26167.38497477  1840.87562023
0.46900002 26240.56747568  2219.95211366
0.47000002 26311.69244416  1858.92115929
0.47100002 26380.91216782  2241.32240401
0.47200002 26447.76090596  2627.05621530
0.47300002 26512.23522251  2450.52601776
0.47400002 26573.85100660  2840.08046094
0.47500002 26633.47058986  1901.62989025
0.47600002 26691.19475122  2673.65710496
0.47700002 26745.35831580  2492.93496678
