# SAXS profile: number of points = 501, q_min = 0, q_max = 0.5, delta_q = 0.001
#    q    intensity    error
0.00000000 1646666.22097351 345.79990640
0.00100000 1646585.57974703 543.37325422
0.00200000 1646343.59631522 963.11103434
0.00300000 1645940.49202184 1481.34649559
0.00400000 1645376.14672588 1974.45145110
0.00500000 1644651.03721120 1628.20459129
0.00600000 1643765.10486373 1898.54877341
0.00700000 1642718.87624895 2562.64155345
0.00800000 1641512.18413974 2437.64569636
0.00900000 1640146.22940992 2952.26333914
0.01000000 1638620.43692650 2974.09622144
0.01100000 1636936.03429806 3241.13348903
0.01200000 1635092.94959639 4463.80394811
0.01300000 1633092.35386789 5144.24114157
0.01400000 1630934.17034699 4770.48265974
0.01500000 1628620.01623546 5081.29467692
0.01600000 1626149.06194664 5805.35241067
0.01700000 1623523.63277763 5260.21680617
0.01800000 1620743.71764665 6466.76772440
0.01900000 1617809.82540724 5338.77266474
0.02000000 1614723.33305491 7120.93022089
0.02100000 1611486.06756086 6381.48511687
0.02200000 1608096.59980699 8876.69363422
0.02300000 1604558.32685716 7509.33331150
0.02400000 1600870.39469739 6603.59067923
0.02500000 1597035.64866458 8719.81503995
0.02600000 1593053.95687632 9032.61634863
0.02700000 1588927.41471782 6673.49544747
0.02800000 1584655.93699007 7582.57900623
0.02900000 1580241.85887219 9244.41529885
0.03000000 1575686.87620566 7326.94431114
0.03100000 1570990.84256696 8294.83203042
0.03200000 1566155.38867126 9302.96343718
0.03300000 1561184.47919796 11943.06181645
0.03400000 1556076.00259268 8986.33932961
0.03500000 1550833.26087459 9211.94999499
0.03600000 1545457.38898105 9435.01779576
0.03700000 1539950.34370363 9655.48910156
0.03800000 1534313.37163540 8975.73363946
0.03900000 1528548.66253681 14674.06783991
0.04000000 1522656.15446705 11237.20294069
0.04100000 1516639.65731771 12421.27936936
0.04200000 1510500.02399888 11691.27072814
0.04300000 1504238.06306261 9927.97167705
0.04400000 1497857.49914514 13143.70016542
0.04500000 1491359.51978281 10290.38116464
0.04600000 1484743.83927157 18841.40019623
0.04700000 1478015.26921092 15962.56564986
0.04800000 1471173.75522382 14057.06588521
0.04900000 1464222.94873813 13178.00715205
0.05000000 1457162.79125472 12262.02545940
0.05100000 1449997.64390505 12440.98036426
0.05200000 1442725.86385032 12616.63826732
0.05300000 1435353.47351178 13951.63641293
0.05400000 1427880.18934835 12958.01332262
0.05500000 1420308.60226404 13123.65209713
0.05600000 1412639.73148613 18117.10540173
0.05700000 1404878.91789698 14666.93658748
0.05800000 1397024.91781310 13600.03820993
0.05900000 1389080.02389445 21252.92535822
0.06000000 1381048.23836504 15163.91036569
0.06100000 1372931.16977121 17875.56466577
0.06200000 1364730.59921050 19345.05714806
0.06300000 1356449.89111227 14324.11151987
0.06400000 1348087.54114261 18401.39579717
0.06500000 1339649.35421683 18567.54091799
0.06600000 1331137.30575106 14715.72360361
0.06700000 1322551.67770383 17537.03606707
0.06800000 1313896.36287699 16318.59359079
0.06900000 1305173.98383442 15074.76021907
0.07000000 1296384.68019015 16567.79698867
0.07100000 1287532.02210623 13905.34649004
0.07200000 1278618.47486146 15400.96025119
0.07300000 1269645.88907824 16911.68403493
0.07400000 1260617.39523437 21272.91954152
0.07500000 1251534.38680036 27108.23608873
0.07600000 1242397.76718567 17219.63386046
0.07700000 1233212.93373644 20200.02880175
0.07800000 1223980.03375961 21756.24612036
0.07900000 1214700.89359250 16034.05254748
0.08000000 1205380.13141984 16109.90621216
0.08100000 1196018.15644624 14711.02401450
0.08200000 1186616.92145690 20682.73391153
0.08300000 1177180.11908013 19282.21125549
0.08400000 1167708.65288063 19354.77182998
0.08500000 1158205.56989145 14940.85255300
0.08600000 1148672.76337536 16489.19829245
0.08700000 1139113.33554502 15036.29673526
0.08800000 1129527.16004190 22618.78244210
0.08900000 1119919.90669908 18142.70334068
0.09000000 1110290.83750178 25764.30009452
0.09100000 1100642.67656151 18226.64358017
0.09200000 1090977.66759444 24350.62268486
0.09300000 1081300.94704328 19820.24729070
0.09400000 1071608.70254136 18324.50967466
0.09500000 1061906.92127026 18349.75246204
0.09600000 1052196.87263990 19902.30478155
0.09700000 1042482.52897637 15324.49389640
0.09800000 1032764.21797005 15336.54935794
0.09900000 1023044.63669123 16880.23729916
0.10000000 1013323.83662421 15351.85684681
0.10100000 1003605.21257928 19961.70861704
0.10200000 993891.11959220 15355.61851997
0.10300000 984182.61489768 18423.89941756
0.10400000 974483.04188159 21487.35208436
0.10500000 964794.72938148 21476.33168648
0.10600001 955115.27355291 15329.60086184
0.10700001 945451.93964598 24506.11542882
0.10800001 935803.12529575 21420.53454611
0.10900001 926172.91497294 16810.03919793
0.11000001 916561.03255887 24417.18705667
0.11100001 906970.60505831 19808.23894691
0.11200001 897402.78355460 22816.46684601
0.11300001 887859.14013194 16700.63121216
0.11400001 878342.48847838 22727.11295947
0.11500001 868853.89380818 24188.89354263
0.11600001 859394.64329662 22623.56505016
0.11700001 849967.48735028 21062.19532846
0.11800001 840571.46715415 16504.62153491
0.11900001 831209.75368183 19450.30915230
0.12000001 821882.99049910 25359.20086639
0.12100001 812596.07527867 16357.55976593
0.12200001 803346.96610110 17786.10266740
0.12300001 794138.49337717 16248.07434002
0.12400001 784971.03417096 17661.84910103
0.12500001 775845.66541104 20528.87727411
0.12600001 766766.82531232 17528.29045263
0.12700001 757732.64976607 21822.70134169
0.12800001 748745.24466999 21732.33175077
0.12900001 739806.55791577 15868.85141523
0.13000001 730917.82541982 15798.78954112
0.13100001 722078.63224316 14297.15759235
0.13200001 713291.67324235 17076.20346240
0.13300001 704557.92242344 18410.09938083
0.13400001 695877.83250314 14091.52677254
0.13500001 687253.25233593 16823.96041040
0.13600001 678684.68052992 16736.36501100
0.13700001 670173.63300297 16647.11382876
0.13800001 661719.07020143 19315.58057002
0.13900001 653324.99841627 24695.68610474
0.14000001 644989.68919522 20462.29885473
0.14100001 636716.68264270 16274.47917590
0.14200001 628504.45984450 17525.84768938
0.14300001 620355.58185282 24119.42616009
0.14400001 612267.25496138 21306.90147770
0.14500001 604245.41223066 14556.27266729
0.14600001 596287.56875859 14462.95566252
0.14700001 588395.94651191 20899.82500608
0.14800001 580568.09328127 18165.97649582
0.14900001 572807.84949220 14176.99494381
0.15000001 565114.74239160 12799.84951910
0.15100001 557489.00671110 13981.82494805
0.15200001 549932.60260572 12620.95382535
0.15300001 542444.69625398 17542.66230467
0.15400001 535024.20574333 17415.03871878
0.15500001 527675.11825080 13582.35818477
0.15600001 520394.06659621 13480.80893140
0.15700001 513186.15613516 13378.76372188
0.15800001 506045.94301960 13276.11594173
0.15900001 498978.76739754 15568.13827763
0.16000001 491980.34168720 14257.59097509
0.16100001 485056.10391714 17680.29582236
0.16200001 478202.90826872 11692.06165911
0.16300001 471420.95878463 12756.65174693
0.16400001 464711.63740171 12651.77492555
0.16500001 458073.73374348 13687.24381045
0.16600001 451508.57780241 12441.31944874
0.16700001 445015.11503667 14578.69585693
0.16800001 438594.51360356 11118.37144482
0.16900001 432247.23439689 12124.53549733
0.17000001 425970.75647164 13111.38050331
0.17100001 419767.82287503 10830.01034158
0.17200001 413636.84372433 10733.87660153
0.17300001 407577.91008891 11701.56235125
0.17400001 401592.38982562 11595.98080385
0.17500001 395677.66512818 12535.06902326
0.17600001 389833.79963574 12420.10544299
0.17700001 384064.65649978 12305.43217545
0.17800001 378365.09264594 11175.01353912
0.17900001 372736.96101665 12076.67810736
0.18000001 367180.83448884 10965.85613998
0.18100001 361696.26877086 10861.73946426
0.18200001 356280.40754914 10757.88741413
0.18300001 350935.29488603 11622.97751569
0.18400001 345660.62951667 17265.74926000
0.18500001 340455.95022176 12348.33789790
0.18600001 335320.66160984 13168.04300352
0.18700001 330253.78102190 10244.47277130
0.18800001 325254.36358459 11987.25013626
0.18900001 320326.36769980 9129.30191078
0.19000001 315462.18467888 12653.18882532
0.19100001 310668.10206853 9841.96593856
0.19200001 305939.48589400 11514.03309567
0.19300001 301279.20682178 9643.94786607
0.19400001 296682.90001560 11281.36780618
0.19500001 292153.13147765 8589.30247133
0.19600001 287687.36200565 12751.74292350
0.19700001 283287.72604913 9255.01044739
0.19800001 278950.86354291 9992.02040432
0.19900001 274677.86991591 8240.33648692
0.20000001 270466.41466267 13862.75673870
0.20100001 266318.79606352 11297.24386295
0.20200001 262231.70722062 8783.45144849
0.20300001 258206.42625570 12641.78722699
0.20400001 254242.26578909 10163.33505530
0.20500001 250337.07702129 8508.95765015
0.20600001 246490.87520729 9184.25044434
0.20700001 242704.10396900 9086.84208213
0.20800001 238974.82762277 8990.23344014
0.20900001 235305.62285433 8153.34021732
0.21000001 231690.01703393 7332.98938577
0.21100001 228132.33042439 10156.45183062
0.21200001 224629.22725390 10047.66581006
0.21300001 221180.93124389 9229.88069715
0.21400001 217787.22701825 8428.36608407
0.21500001 214448.19597505 6948.12187808
0.21600001 211160.69369450 8935.26517613
0.21700001 207925.85086915 8838.92833835
0.21800001 204742.85272154 9416.12424186
0.21900001 201610.22769844 7318.45161148
0.22000001 198527.17328212 6581.17610548
0.22100001 195495.48259029 9113.99982930
0.22200001 192511.67087837 6439.51569537
0.22300001 189575.91990242 6369.75120992
0.22400001 186687.40237135 8190.91016636
0.22500001 183847.65830970 6855.67950255
0.22600001 181052.16200050 8014.27432993
0.22700001 178303.23868432 7317.56526165
0.22800001 175598.75408892 10254.08972994
0.22900001 172937.57547016 9546.15461740
0.23000001 170320.80545439 7081.93942571
0.23100001 167747.94362578 7005.15445711
0.23200001 165215.39550379 8083.98968432
0.23300001 162725.47670439 7425.16385319
0.23400001 160275.60341001 8474.57293111
0.23500001 157865.68052156 6147.28989025
0.23600001 155495.78734051 7739.02570197
0.23700001 153164.90326930 6014.78603587
0.23800001 150871.96246665 5949.63612128
0.23900001 148616.60413594 6420.23760235
0.24000001 146397.75948254 6350.73510674
0.24100001 144216.38960149 5235.05519016
0.24200001 142070.79988214 6214.17708079
0.24300001 139959.39628883 5122.51414648
0.24400001 137882.87942650 8614.23329965
0.24500001 135839.54485626 7518.71916346
0.24600001 133829.93531838 5454.23927191
0.24700001 131853.46768938 4904.94923008
0.24800001 129908.80944106 6792.93196702
0.24900001 127994.61721726 5759.75804726
0.25000001 126112.45909265 5697.76117136
0.25100001 124259.96906304 5636.43246335
0.25200001 122439.02765288 5111.21745118
0.25300001 120645.62196728 4596.59841442
0.25400001 118882.31058222 7275.59775185
0.25500001 117145.50392975 5847.90383285
0.25600001 115437.66024738 4450.12201308
0.25700001 113755.91112010 6163.29555609
0.25800001 112101.07542848 6968.20317833
0.25900001 110473.11666778 4308.45175390
0.26000001 108869.88815884 5114.70758771
0.26100001 107291.43397966 4216.55355491
0.26200001 105739.13894588 4588.55015167
0.26300001 104209.17730421 5364.68870146
0.26400001 102704.23849107 4898.99240784
0.26500001 101222.19973550 5250.39574872
0.26600001 99762.75486090  7191.89733824
0.26700001 98325.97273888  5533.78600760
0.26800001 96911.37507195  5474.52383687
0.26900001 95517.52379227  7736.91979330
0.27000001 94145.50538573  5740.52246255
0.27100001 92793.78246398  4543.18380443
0.27200001 91463.09455146  4119.95528904
0.27300001 90152.05798495  4075.77473438
0.27400001 88859.38212333  5131.62956048
0.27500001 87587.84024804  3626.13675788
0.27600001 86332.83355644  3587.12940403
0.27700001 85098.35509524  3903.46173296
0.27800001 83880.85231838  3861.45521923
0.27900001 82681.64397393  3472.62921126
0.28000001 81499.56828347  4122.24835888
0.28100001 80334.82290478  4077.79580364
0.28200001 79187.33054506  5042.25351110
0.28300001 78056.15837790  3990.23100514
0.28400001 76940.64607984  4604.89788583
0.28500001 75841.67209974  3904.32946449
0.28600001 74758.28896078  4505.68228893
0.28700001 73690.85264179  3820.13398177
0.28800001 72637.08918577  3463.69976177
0.28900001 71599.90810830  5294.81345523
0.29000001 70576.63923140  3696.80453793
0.29100001 69568.43906174  3656.51733017
0.29200001 68573.93038105  3917.97169778
0.29300001 67593.77112322  3278.97399240
0.29400001 66626.55416632  2948.22516142
0.29500001 65674.34618927  4665.50577414
0.29600001 64734.06873703  2883.90289875
0.29700001 63807.54426211  3993.07630895
0.29800001 62894.16983430  6205.76803132
0.29900001 61993.82776078  3068.69461943
0.30000001 61105.17087126  3310.67831453
0.30100001 60230.15127140  3274.11117811
0.30200001 59366.21464292  2968.01404158
0.30300001 58515.34045133  3201.95958108
0.30400001 57676.14495709  2638.68375671
0.30500001 56849.36441708  4435.95611547
0.30600001 56032.88575442  3096.37741338
0.30700001 55228.88371054  3572.20436752
0.30800001 54436.07408035  2775.42336839
0.30900001 53654.68516923  3492.92016989
0.31000001 52884.46785635  3947.29686768
0.31100001 52124.88887840  2439.44491501
0.31200001 51377.12193302  3859.44958234
0.31300001 50639.38231657  2862.13802404
0.31400001 49913.71230482  3065.94992349
0.31500001 49197.37180258  3264.73774740
0.31600002 48492.76002051  3228.16318741
0.31700002 47797.73746444  3419.92827751
0.31800002 47112.88432774  2705.22194619
0.31900002 46439.11588692  3566.52426899
0.32000002 45775.64070132  2424.50692454
0.32100002 45121.86200293  2833.20184932
0.32200002 44479.08182228  2370.51277796
0.32300002 43844.76136030  2770.11215391
0.32400002 43221.42020340  3160.56650203
0.32500002 42607.66109419  2500.21767140
0.32600002 42004.03853214  2472.35782507
0.32700002 41410.13208851  2852.33003332
0.32800002 40826.80515625  2014.80292987
0.32900002 40251.05872746  2191.67025149
0.33000002 39686.44528412  3152.69136266
0.33100002 39130.30546871  2338.42716555
0.33200002 38585.17112444  2120.06232783
0.33300002 38048.56533242  2287.47985611
0.33400002 37522.22490803  2262.59026910
0.33500002 37004.60543525  2238.03864271
0.33600002 36495.93645601  2213.84361026
0.33700002 35996.67015565  2190.03751598
0.33800002 35507.50965558  2166.66834179
0.33900002 35026.67177676  3036.81258686
0.34000002 34555.06069285  2474.48801340
0.34100002 34092.60273747  1748.95060326
0.34200002 33640.06491272  2250.01584825
0.34300002 33195.84957411  1712.90591915
0.34400002 32761.33621771  2204.01899843
0.34500002 32335.22392280  2181.65766139
0.34600002 31918.70643712  1827.50562361
0.34700002 31510.01399949  1973.78737041
0.34800002 31111.00813387  1954.39362353
0.34900002 30720.28264054  2257.94088102
0.35000002 30338.78887958  2076.53850321
0.35100002 29966.75590577  2056.91822279
0.35200002 29601.76106825  2507.86131648
0.35300002 29246.65690870  1708.29731095
0.35400002 28899.65067799  1692.79711864
0.35500002 28561.75265635  1677.71743050
0.35600002 28231.65020661  2116.52691624
0.35700002 27910.16075664  1498.77570362
0.35800002 27597.30950860  1783.33822491
0.35900002 27293.40042529  2210.76553916
0.36000002 26997.49061669  1754.29702337
0.36100002 26709.32628517  1595.34813458
0.36200002 26430.87958250  1726.99375372
0.36300002 26159.28940508  1713.95672301
0.36400002 25896.41993730  1843.17777634
0.36500002 25640.70798006  2393.04738913
0.36600002 25394.13160133  1537.74171196
0.36700002 25154.89225245  2082.82517716
0.36800002 24924.46365895  1379.56912887
0.36900002 24701.57511219  1782.21872877
0.37000002 24486.02537256  1498.91211418
0.37100002 24278.02130202  1625.65638339
0.37200002 24078.41585626  1886.06240336
0.37300002 23886.28568672  1474.02275955
0.37400002 23701.36464521  1466.52200689
0.37500002 23524.25038664  1724.79812005
0.37600002 23354.61680575  1981.05546439
0.37700002 23192.10453193  1840.98934496
0.37800002 23036.86974461  1309.64610702
0.37900002 22889.67149833  1565.65360465
0.38000002 22748.80944467  2340.17013843
0.38100002 22614.25805087  1425.37675247
0.38200002 22488.04561235  1291.93828163
0.38300002 22367.64699561  1417.21418078
0.38400002 22254.60549581  1285.20352827
0.38500002 22147.71406394  2564.70541011
0.38600002 22048.36451191  1663.87990672
0.38700002 21954.69579808  1277.76335598
0.38800002 21867.52964589  1658.76153987
0.38900002 21786.77244056  1529.43149779
0.39000002 21712.70419394  1273.45016131
0.39100002 21644.14458675  1527.21091439
0.39200002 21582.14987228  1653.94813382
0.39300002 21525.57562423  1526.59389560
0.39400002 21476.12876155  2035.93710305
0.39500002 21431.25315998  2418.73134623
0.39600002 21392.22031581  1910.86017024
0.39700002 21358.16472066  1275.08249423
0.39800002 21330.73611871  2170.29584922
0.39900002 21307.68197669  1534.15317501
0.40000002 21290.22767235  1408.66798068
0.40100002 21277.66301599  1411.34745472
0.40200002 21270.52897781  2057.28566021
0.40300002 21267.98792416  1804.37618098
0.40400002 21270.28807440  1550.60407409
0.40500002 21276.79944630  1295.75714767
0.40600002 21289.02801797  1819.57331091
0.40700002 21304.96959131  1695.02346100
0.40800002 21325.15748732  1962.44771075
0.40900002 21349.25144304  1312.97902596
0.41000002 21378.21050827  1581.56008834
0.41100002 21410.77363598  1587.82304808
0.41200002 21446.42442214  1328.60605590
0.41300002 21487.28668144  1601.23267937
0.41400002 21530.87915678  1742.38647832
0.41500002 21578.05998604  1615.76520831
0.41600002 21627.81374124  2435.07566451
0.41700002 21682.14000744  1903.25834004
0.41800002 21739.96052908  1776.26355920
0.41900002 21799.05619140  1510.67466565
0.42000002 21861.69467390  1932.79251770
0.42100002 21927.77160339  2082.04201240
0.42200002 21996.18588242  1395.65806037
0.42300002 22066.81543505  1824.48438662
0.42400002 22139.87674775  1552.55893050
0.42500002 22215.73526812  1419.58555090
0.42600002 22292.45307687  1713.39802468
0.42700002 22372.65764207  1436.32468868
0.42800002 22453.92070044  2456.34677142
0.42900002 22537.97819881  1599.06962898
0.43000002 22623.50473160  1755.13158025
0.43100002 22709.20111516  1913.02319259
0.43200002 22797.72243899  2072.99699961
0.43300002 22886.81675905  1936.91139410
0.43400002 22977.69775951  1799.15381983
0.43500002 23069.14012883  1659.59401951
0.43600002 23162.36565324  2125.61039673
0.43700002 23255.73121108  2139.06225816
0.43800002 23349.44162447  2306.34120575
0.43900002 23444.89845831  1856.83604589
0.44000002 23540.26606541  2647.22074584
0.44100002 23636.44952857  1723.80634581
0.44200002 23732.80603462  1734.74953931
0.44300002 23829.52158537  1904.45545536
0.44400002 23926.20042425  2076.19614021
0.44500002 24022.39687874  1767.80827008
0.44600002 24118.56964064  2264.01023946
0.44700002 24215.38686744  1790.00148207
0.44800002 24311.05535220  2292.28951779
0.44900002 24406.84044608  2306.44653146
0.45000002 24502.42014411  2817.90096222
0.45100002 24596.43905903  1667.63864724
0.45200002 24690.44101311  2348.80176489
0.45300002 24783.31015905  1856.51785200
0.45400002 24875.35574515  1867.51742107
0.45500002 24967.01568490  2390.84153530
0.45600002 25057.06934255  2404.72705877
0.45700002 25146.39675830  1727.55753917
0.45800002 25234.09793266  1737.36772500
0.45900002 25320.54544541  2096.54126224
0.46000002 25406.19814755  1756.83868517
0.46100002 25489.51804272  2296.35078930
0.46200002 25572.01567144  1775.97657255
0.46300002 25652.73707874  2499.60281942
0.46400002 25731.24044350  1974.22951660
0.46500002 25809.23522383  2525.69187871
0.46600002 25884.28458661  2175.83306548
0.46700002 25957.68848669  2551.12174539
0.46800002 26029.72693260  2197.42965180
0.46900002 26099.16320465  2207.98931176
0.47000002 26166.67735301  2773.01376392
0.47100002 26232.41401866  2785.88250082
0.47200002 26295.92465410  2052.26553690
0.47300002 26357.13846804  2436.19042407
0.47400002 26415.64660230  2634.96087347
0.47500002 26472.28479821  2646.16971385
0.47600002 26527.15654847  3036.82902561
0.47700002 26578.55751105  2477.38746303
