# SAXS profile: number of points = 501, q_min = 0, q_max = 0.5, delta_q = 0.001
#    q    intensity    error
0.00000000 1682732.95097188 277.65093691
0.00100000 1682651.34987233 555.27495864
0.00200000 1682406.49615527 1059.91612614
0.00300000 1681998.59999537 1009.19919595
0.00400000 1681427.52354634 1387.17775964
0.00500000 1680693.79096404 2117.67426043
0.00600000 1679797.32510799 2998.43834739
0.00700000 1678738.64523999 3021.72968702
0.00800000 1677517.57887413 2717.57859251
0.00900000 1676135.35595619 3268.46408383
0.01000000 1674591.37604910 3315.69106775
0.01100000 1672886.89939248 4817.91448002
0.01200000 1671021.83027735 3910.19125429
0.01300000 1668997.34572752 3504.89458061
0.01400000 1666813.40530823 3750.33032820
0.01500000 1664471.55859650 6391.57106962
0.01600000 1661971.01058068 5933.23677301
0.01700000 1659314.21640458 6272.20801937
0.01800000 1656500.98729560 4721.02802623
0.01900000 1653531.96842835 5456.65574203
0.02000000 1650408.44346724 9357.81629777
0.02100000 1647132.28477460 6522.64414343
0.02200000 1643702.08509998 6237.84969635
0.02300000 1640121.18637513 6494.88019368
0.02400000 1636388.81061542 7977.39581550
0.02500000 1632507.87455365 8913.49340215
0.02600000 1628478.05798332 9893.00465474
0.02700000 1624301.62448882 10233.10070297
0.02800000 1619978.38385358 10570.35943940
0.02900000 1615510.93058008 10177.71932996
0.03000000 1610900.55615962 12734.16948177
0.03100000 1606147.33767965 9251.40909072
0.03200000 1601253.19092624 9511.44439218
0.03300000 1596221.65686022 10582.95007286
0.03400000 1591050.67139027 12529.52461532
0.03500000 1585743.74727202 10275.61995683
0.03600000 1580302.10785574 9647.74481432
0.03700000 1574727.40161459 10771.13592518
0.03800000 1569021.14692264 11014.52896114
0.03900000 1563185.39938742 11254.93539681
0.04000000 1557220.16492335 13407.66624129
0.04100000 1551129.30434139 15635.38411272
0.04200000 1544913.55253867 10961.16216378
0.04300000 1538574.04943952 10154.58919766
0.04400000 1532113.94878229 15512.65445186
0.04500000 1525534.84671949 12631.42911776
0.04600000 1518836.57313193 19274.03700903
0.04700000 1512023.78026806 20684.48627606
0.04800000 1505096.50631720 11062.45983615
0.04900000 1498058.35864345 12358.98203409
0.05000000 1490909.18583879 15967.63812388
0.05100000 1483653.41707991 13886.99663078
0.05200000 1476289.48362729 15257.45252430
0.05300000 1468823.48266354 15466.71199347
0.05400000 1461254.98236248 12055.35416668
0.05500000 1453586.74032495 15873.16794482
0.05600000 1445819.85108739 16070.28839474
0.05700000 1437959.45195466 16263.32216076
0.05800000 1430004.10031946 15186.64425449
0.05900000 1421956.87566338 17916.65747017
0.06000000 1413821.20923805 14230.11113579
0.06100000 1405598.90827973 20915.31273260
0.06200000 1397291.50136570 19806.60795769
0.06300000 1388902.52278889 16000.15781062
0.06400000 1380430.71968214 18842.88020488
0.06500000 1371881.90666041 13581.63151126
0.06600000 1363257.34898520 17810.95809784
0.06700000 1354558.51898663 16579.79704831
0.06800000 1345788.38841703 18107.58361375
0.06900000 1336949.89630946 16845.56948219
0.07000000 1328043.22014492 18386.75924393
0.07100000 1319072.13312517 14245.97970500
0.07200000 1310038.60095561 14344.92335248
0.07300000 1300945.24136677 18772.64071253
0.07400000 1291794.59632350 18892.49685661
0.07500000 1282588.15485740 19007.95734594
0.07600000 1273326.90847050 20589.69707523
0.07700000 1264016.42338541 17746.79141645
0.07800000 1254656.75603441 14867.68325625
0.07900000 1245249.61315660 16437.29566464
0.08000000 1235799.94786047 16516.46707796
0.08100000 1226307.98674224 18100.30673355
0.08200000 1216775.86847167 18178.63232800
0.08300000 1207206.57604846 30421.60714417
0.08400000 1197602.14795225 16796.37091343
0.08500000 1187964.77324402 26052.06870026
0.08600000 1178296.92828370 21527.48589049
0.08700000 1168601.63079814 20053.20492615
0.08800000 1158878.54454360 15471.02929623
0.08900000 1149133.13083796 18615.95759396
0.09000000 1139365.38587883 18662.80589739
0.09100000 1129577.69908944 18705.80757574
0.09200000 1119772.21463584 17182.90544096
0.09300000 1109953.76118647 20345.45339862
0.09400000 1100119.40814274 26650.39391476
0.09500000 1090274.70950079 25119.93048760
0.09600000 1080420.85804203 18864.14906818
0.09700000 1070562.32549737 17310.99361713
0.09800000 1060698.60456345 17326.51252020
0.09900000 1050833.08680025 18914.99645183
0.10000000 1040965.65808386 25233.00873859
0.10100000 1031099.70402915 20508.57407769
0.10200000 1021237.44788631 20511.55510558
0.10300000 1011380.13534174 17355.28393887
0.10400000 1001531.62833371 20506.36105486
0.10500000 991693.31782306 18921.50939431
0.10600001 981863.29953458 22062.46937866
0.10700001 972049.09709184 15747.19611391
0.10800001 962248.82310247 17306.04589795
0.10900001 952466.16336671 22001.96940931
0.11000001 942701.90572709 18835.18496299
0.11100001 932958.52735902 15673.70399745
0.11200001 923237.01461896 23473.30220174
0.11300001 913539.74892170 24994.44870726
0.11400001 903868.32864830 20269.24822430
0.11500001 894225.23497095 17115.47180328
0.11600001 884610.76370528 23287.37945118
0.11700001 875028.17429741 23231.99912171
0.11800001 865476.12928198 20083.37452588
0.11900001 855958.05178419 24651.59305251
0.12000001 846474.84699155 21508.92687523
0.12100001 837031.30652750 24508.27780966
0.12200001 827624.91362248 15269.68037571
0.12300001 818259.55179511 16741.59121850
0.12400001 808934.10029682 16684.26660474
0.12500001 799651.14248326 21158.77022712
0.12600001 790414.35865034 18068.87309021
0.12700001 781222.06646190 14999.46438294
0.12800001 772076.45837052 16433.64819092
0.12900001 762979.32577134 19341.52681991
0.13000001 753931.99770587 19259.19378918
0.13100001 744933.91888260 17699.63074697
0.13200001 735988.50242415 14682.97131552
0.13300001 727096.20844956 16076.09792670
0.13400001 718257.02263376 17453.64647286
0.13500001 709473.64511592 20262.56825985
0.13600001 700746.23883074 14400.33588696
0.13700001 692076.25946457 14325.97924643
0.13800001 683462.58158173 15675.21504775
0.13900001 674910.21309657 15590.42665775
0.14000001 666416.23459910 14094.70402649
0.14100001 657984.31821862 21022.59995857
0.14200001 649613.51203288 22294.73678451
0.14300001 641306.60947790 19393.11278534
0.14400001 633059.76977868 16522.86077060
0.14500001 624880.14916912 17790.33868605
0.14600001 616764.04014136 17679.54204467
0.14700001 608714.80549710 16216.16318346
0.14800001 600729.46339208 21482.08662440
0.14900001 592811.91019743 16005.92233050
0.15000001 584961.36584333 14574.31311764
0.15100001 577179.18771997 17107.59193124
0.15200001 569466.13936002 14376.17336651
0.15300001 561822.09005666 14275.89998201
0.15400001 554245.46751716 19329.31159183
0.15500001 546740.49897804 15352.47393583
0.15600001 539304.10473025 19050.91839870
0.15700001 531941.32405148 17649.81396504
0.15800001 524646.17176903 18769.21768092
0.15900001 517424.82834551 16143.65540637
0.16000001 510272.52944772 13555.39038463
0.16100001 503194.46803697 13450.38876554
0.16200001 496187.95702708 19410.87379521
0.16300001 489253.43927140 13239.19869168
0.16400001 482391.90146348 14327.04014984
0.16500001 475602.19627280 14210.99429555
0.16600001 468886.20537381 14094.71999899
0.16700001 462241.58615200 11648.48852101
0.16800001 455670.37228271 15016.61782761
0.16900001 449173.49838166 11453.92474956
0.17000001 442747.92239859 12492.13322035
0.17100001 436396.12967198 14636.72688036
0.17200001 430116.54266304 12277.67729010
0.17300001 423910.32412634 13276.87197863
0.17400001 417777.57431722 15353.32658123
0.17500001 411716.23198981 11956.23994165
0.17600001 405726.51497176 16158.05922188
0.17700001 399811.86971132 14944.96839567
0.17800001 393967.66687786 12693.63882635
0.17900001 388195.18687662 14673.77875703
0.18000001 382495.96931550 14538.67248042
0.18100001 376868.63194672 12346.21696577
0.18200001 371310.30132517 12230.96190342
0.18300001 365824.04708427 14135.44184708
0.18400001 360408.22129768 11001.46147483
0.18500001 355063.36170576 11887.52191150
0.18600001 349788.81371827 9811.57668833
0.18700001 344583.10190995 16519.31468601
0.18800001 339445.37052552 10585.60437997
0.18900001 334379.99503653 11435.79637056
0.19000001 329379.39444985 10380.39210655
0.19100001 324449.51753688 11212.97585589
0.19200001 319585.56677075 12952.80363326
0.19300001 314791.11481206 10076.46406127
0.19400001 310061.20562617 10883.14883175
0.19500001 305398.75070583 10774.46843405
0.19600001 300800.72075955 8888.66171849
0.19700001 296269.90717350 9679.13832477
0.19800001 291802.52567581 10452.36696367
0.19900001 287399.77423327 11208.59172482
0.20000001 283059.57409650 12801.36984352
0.20100001 278783.92571206 10136.58401797
0.20200001 274569.56996562 8360.64380061
0.20300001 270417.95038205 9102.26864008
0.20400001 266327.88677329 11465.41606751
0.20500001 262297.84828882 11347.00545331
0.20600001 258327.90131886 10427.40622962
0.20700001 254417.94197907 13494.32828043
0.20800001 250566.39165352 9426.30809959
0.20900001 246775.73120670 7773.43590047
0.21000001 243039.68391292 9230.64763137
0.21100001 239362.28335267 9134.06516454
0.21200001 235740.28668365 13557.42452810
0.21300001 232174.08601821 8943.34621622
0.21400001 228663.23504363 9586.70658243
0.21500001 225207.98482969 9485.76076949
0.21600001 221805.14470091 7219.75780135
0.21700001 218456.00623302 7143.51174156
0.21800001 215159.42431762 7774.78616531
0.21900001 211913.92664869 7692.47590106
0.22000001 208719.02644407 10378.55408066
0.22100001 205576.20589790 8899.39437411
0.22200001 202482.76661817 7450.35375000
0.22300001 199437.79917772 9381.55451693
0.22400001 196440.82467489 10607.80503405
0.22500001 193493.75713065 7215.38254460
0.22600001 190591.86476545 7787.58396258
0.22700001 187737.32881582 8988.86372878
0.22800001 184928.05395245 6987.50684903
0.22900001 182163.24638752 8170.02198685
0.23000001 179443.65511979 6217.72294395
0.23100001 176768.76600470 7997.01935225
0.23200001 174135.31230218 7303.23534335
0.23300001 171545.38864727 6623.36776892
0.23400001 168995.89677214 7148.52677155
0.23500001 166487.79593720 8251.13555689
0.23600001 164020.52422221 6997.11589426
0.23700001 161592.79190268 6922.63553254
0.23800001 159204.19298285 5707.47058839
0.23900001 156854.11078815 5646.74825546
0.24000001 154541.39118299 7262.67302217
0.24100001 152267.11496059 7185.48549487
0.24200001 150029.30738051 6562.28221523
0.24300001 147826.91151491 7033.60478259
0.24400001 145659.80551862 5888.29791663
0.24500001 143527.10194526 5825.76534354
0.24600001 141428.86306978 7859.90943692
0.24700001 139364.88776596 6739.68629119
0.24800001 137333.42964766 6668.22499199
0.24900001 135332.96199224 7104.98084071
0.25000001 133365.95822844 8033.96570375
0.25100001 131429.16064288 5961.62700880
0.25200001 129525.06201040 4915.47633584
0.25300001 127649.08016970 4863.43018456
0.25400001 125804.20845461 7699.21792168
0.25500001 123986.39670421 6189.40121631
0.25600001 122198.87674468 7066.15038208
0.25700001 120438.17314425 5127.05327333
0.25800001 118704.95431624 5534.02523206
0.25900001 116999.80852915 6388.18984795
0.26000001 115319.88925415 6320.68342909
0.26100001 113665.95747369 5360.48680810
0.26200001 112038.44338338 5303.90016073
0.26300001 110434.72343647 5247.85830602
0.26400001 108856.37625465 4759.74527696
0.26500001 107302.06642839 4709.48791839
0.26600001 105770.93326163 5083.35129310
0.26700001 104263.42298408 5448.80674299
0.26800001 102778.85766549 4561.83981335
0.26900001 101315.73262369 4513.61610198
0.27000001 99875.32750122  4465.92548055
0.27100001 98455.96285667  5222.10451704
0.27200001 97058.40412932  3974.54183718
0.27300001 95681.44875689  4325.75850301
0.27400001 94323.27404833  5058.08581021
0.27500001 92987.16599148  4619.60262508
0.27600001 91668.65680068  4189.71615736
0.27700001 90371.11785178  4145.32337205
0.27800001 89091.34465141  4101.32024513
0.27900001 87830.47364426  7008.87212853
0.28000001 86587.53999243  5474.49747512
0.28100001 85362.66682092  5055.17736839
0.28200001 84155.90353863  5001.38558401
0.28300001 82966.04435102  4241.22438796
0.28400001 81792.53427895  4545.62030770
0.28500001 80636.41062341  5188.95326922
0.28600001 79496.45874783  4106.78725330
0.28700001 78373.29177795  6094.30745711
0.28800001 77264.19584429  4019.28365807
0.28900001 76172.83446880  3313.51845623
0.29000001 75095.51782286  3605.71145894
0.29100001 74034.17824890  4215.50630903
0.29200001 72987.13081372  4170.11991644
0.29300001 71955.23826804  4442.51662096
0.29400001 70936.84845404  4708.43353902
0.29500001 69933.93288027  4657.60015030
0.29600001 68943.81269688  4300.02580146
0.29700001 67967.83640312  3949.61116035
0.29800001 67005.84327094  3606.25465556
0.29900001 66057.55853897  5053.40346745
0.30000001 65121.25658163  3234.24736123
0.30100001 64199.42544874  3489.88093261
0.30200001 63289.16094450  3164.14175121
0.30300001 62392.60558129  3129.61324412
0.30400001 61508.29845890  4502.40766034
0.30500001 60636.89010312  4453.17342000
0.30600001 59776.44170155  4129.05790602
0.30700001 58928.95415974  2994.76959218
0.30800001 58093.32330302  4577.46362638
0.30900001 57269.68552383  3461.95265382
0.31000001 56457.75900759  2633.75458240
0.31100001 55656.71964404  3125.68152320
0.31200001 54868.17555772  3348.87925372
0.31300001 54090.08847885  3821.46493196
0.31400001 53324.70045824  3779.38832392
0.31500001 52568.90516246  3737.64933402
0.31600002 51825.65218262  3450.03382915
0.31700002 51092.37124144  3411.94871305
0.31800002 50369.73180748  3615.28767166
0.31900002 49658.64453740  3575.42257599
0.32000002 48958.47436116  3064.55584774
0.32100002 48268.13874119  2564.48633275
0.32200002 47589.49119869  2536.28205353
0.32300002 46919.73858883  2964.38922441
0.32400002 46261.58322737  3608.40366260
0.32500002 45613.03160843  3345.71602690
0.32600002 44975.05942493  2647.23212310
0.32700002 44347.45004257  2618.27357450
0.32800002 43730.77615135  2589.73668632
0.32900002 43122.14465799  3415.27401864
0.33000002 42524.84944662  2744.76653751
0.33100002 41936.54296087  2506.12792602
0.33200002 41359.62413893  2479.09598828
0.33300002 40791.68843482  2043.66368736
0.33400002 40234.11739317  2426.11739370
0.33500002 39685.95472649  2000.17221294
0.33600002 39147.01427793  2572.54616510
0.33700002 38617.80829719  2936.88446008
0.33800002 38098.92343010  3099.72855707
0.33900002 37588.83000844  3067.24867395
0.34000002 37088.29843396  1897.06655474
0.34100002 36597.50604955  2816.17822388
0.34200002 36116.54789072  2787.29471547
0.34300002 35644.27447423  2023.16911497
0.34400002 35182.07086742  2366.87392970
0.34500002 34728.73376954  2162.90564160
0.34600002 34285.28652652  1784.54924822
0.34700002 33849.67656247  1766.95320025
0.34800002 33424.33830162  2449.66987015
0.34900002 33007.43774354  1906.17961997
0.35000002 32600.11810603  2402.95481940
0.35100002 32202.38824559  1870.31479789
0.35200002 31812.07998050  1684.44971475
0.35300002 31431.91485086  1835.93823339
0.35400002 31059.95550313  1984.73125065
0.35500002 30697.35450066  1639.23880798
0.35600002 30343.01657811  2437.30292208
0.35700002 29997.40816396  1771.94698417
0.35800002 29660.75681061  1756.95501289
0.35900002 29333.24724032  1900.79451120
0.36000002 29014.00293828  1571.10833352
0.36100002 28702.63267600  2026.11893657
0.36200002 28401.33919529  1701.09829168
0.36300002 28106.95403928  2301.95964485
0.36400002 27821.46776009  2132.51560482
0.36500002 27543.58196182  1512.14272133
0.36600002 27274.83993634  1651.62801058
0.36700002 27013.68704067  1789.38671433
0.36800002 26761.48752131  1777.49808536
0.36900002 26517.05271709  1913.20544416
0.37000002 26279.98077329  1608.72909924
0.37100002 26050.89065011  2035.09567399
0.37200002 25830.29338037  1445.20498309
0.37300002 25617.30298223  2011.98307153
0.37400002 25411.66838423  1572.34705576
0.37500002 25213.94835874  1706.48010576
0.37600002 25024.02682321  1415.10878389
0.37700002 24841.34262509  1690.20503228
0.37800002 24665.95452347  1682.71149730
0.37900002 24498.90530527  1815.36896912
0.38000002 24338.18101982  1947.29795564
0.38100002 24184.04209284  1385.74567757
0.38200002 24038.27988300  1380.99924470
0.38300002 23898.70575310  1927.19172323
0.38400002 23766.46596485  1509.76482194
0.38500002 23640.42537528  1368.78069407
0.38600002 23522.10627008  1365.45833367
0.38700002 23409.58383882  1634.92541276
0.38800002 23303.67145708  2039.65394091
0.38900002 23204.29150818  2307.66689982
0.39000002 23111.78056602  1897.70839218
0.39100002 23024.65379565  1760.00461952
0.39200002 22944.63816840  1893.62107775
0.39300002 22869.86190835  1757.09157366
0.39400002 22802.38017248  2431.87396061
0.39500002 22739.42384470  1620.86620844
0.39600002 22682.51957619  1755.96733618
0.39700002 22630.78583047  1486.16377590
0.39800002 22585.77038225  1757.28594785
0.39900002 22545.10006241  1487.97667462
0.40000002 22510.18501580  2166.38030856
0.40100002 22480.09188484  1626.65952586
0.40200002 22455.66145440  2036.16719885
0.40300002 22435.95825401  1767.50487500
0.40400002 22421.18516680  1362.08706342
0.40500002 22410.75380735  1501.29646869
0.40600002 22405.87048129  2188.60553231
0.40700002 22404.98048984  1919.65881932
0.40800002 22408.34125190  1649.70216113
0.40900002 22415.83556885  1378.57395280
0.41000002 22428.12507962  1382.69397667
0.41100002 22444.21738329  1525.75797001
0.41200002 22463.32376997  1530.76327084
0.41300002 22487.80925729  1955.09022947
0.41400002 22514.99055020  1962.18151942
0.41500002 22545.87472720  1828.92144453
0.41600002 22579.31267930  1553.56968251
0.41700002 22617.47882581  2127.17398436
0.41800002 22659.34292873  1851.38170172
0.41900002 22702.35916386  2002.34817313
0.42000002 22749.02615751  1867.58139090
0.42100002 22799.46055136  2020.48828980
0.42200002 22851.87018603  1449.95123201
0.42300002 22906.83452513  2476.68706622
0.42400002 22964.16160963  2049.55152078
0.42500002 23024.46589157  1912.64247224
0.42600002 23085.73325859  1922.23367086
0.42700002 23150.32083327  1634.87573472
0.42800002 23216.13026335  2091.54127454
0.42900002 23284.92095615  1802.25296741
0.43000002 23355.20280017  1962.88811236
0.43100002 23425.62475318  1517.98055594
0.43200002 23498.94488372  1526.25654252
0.43300002 23572.96912777  1841.52043553
0.43400002 23648.78414327  1697.39156232
0.43500002 23725.33621503  1861.96447439
0.43600002 23803.64725098  1716.36206637
0.43700002 23882.08778369  2353.57986262
0.43800002 23961.12247675  2682.32798277
0.43900002 24041.83931253  1586.76146982
0.44000002 24122.49371465  2553.12485575
0.44100002 24204.11446445  2407.09929756
0.44200002 24285.93621034  1936.56064519
0.44300002 24368.15147815  1622.91896536
0.44400002 24450.46441659  1795.27543487
0.44500002 24532.38305172  1805.33815433
0.44600002 24614.20009812  2805.64973115
0.44700002 24696.97693253  2987.34647133
0.44800002 24778.29450427  2169.46367814
0.44900002 24860.16204900  2517.09152675
0.45000002 24941.69049923  2024.76653069
0.45100002 25021.92684222  2205.43273639
0.45200002 25102.12323391  1876.25829004
0.45300002 25181.08932390  2229.28194350
0.45400002 25259.53707197  1723.96348687
0.45500002 25337.60641709  2079.71083328
0.45600002 25414.11894773  1916.35173008
0.45700002 25489.94962321  2626.73943316
0.45800002 25564.31080041  1760.10288203
0.45900002 25637.32903695  2122.77094487
0.46000002 25709.70294043  1955.60864685
0.46100002 25779.80287194  1965.19446607
0.46200002 25849.14732003  2333.79037640
0.46300002 25917.04527693  1984.20908044
0.46400002 25982.59758807  1812.28626766
0.46500002 26047.71848956  2366.95629133
0.46600002 26110.09441852  2194.81464085
0.46700002 26170.68379819  2572.05492559
0.46800002 26230.27608917  2398.89001343
0.46900002 26287.11701338  2038.56602101
0.47000002 26342.20764644  2605.50788180
0.47100002 26395.62773718  2242.57263884
0.47200002 26446.90003903  2251.68917605
0.47300002 26495.99545527  2260.63843939
0.47400002 26542.46439335  2080.26574543
0.47500002 26587.06080177  2088.14785434
0.47600002 26630.03699949  2667.53093267
0.47700002 26669.73728216  2677.10835527
