# SAXS profile: number of points = 501, q_min = 0, q_max = 0.5, delta_q = 0.001
#    q    intensity    error
0.00000000 1682732.95097188 302.89193117
0.00100000 1682651.35646245 504.79541893
0.00200000 1682406.52061314 984.20784572
0.00300000 1681998.66026135 1009.19923211
0.00400000 1681427.62998177 2017.71323265
0.00500000 1680693.95079549 1815.14953870
0.00600000 1679797.55960643 2469.30251315
0.00700000 1678738.96468468 3021.73026202
0.00800000 1677517.99202626 2491.11432333
0.00900000 1676135.87473322 3268.46509545
0.01000000 1674592.03227355 3868.30776158
0.01100000 1672887.67750191 3312.31774567
0.01200000 1671022.77038577 3584.34399963
0.01300000 1668998.46239303 4556.36600329
0.01400000 1666814.66768563 3750.33316855
0.01500000 1664473.00079722 6791.05014565
0.01600000 1661972.68145953 5085.63663261
0.01700000 1659316.08311507 4480.15362538
0.01800000 1656503.08635839 5665.24081027
0.01900000 1653534.30000292 6944.84437338
0.02000000 1650411.02078395 5718.67444570
0.02100000 1647135.13102600 7066.21003247
0.02200000 1643705.20312735 9073.25313348
0.02300000 1640124.60903149 5904.44886127
0.02400000 1636392.50674926 7977.41383415
0.02500000 1632511.89024148 8276.83566153
0.02600000 1628482.39261769 10552.56638682
0.02700000 1624306.29662153 9550.92146158
0.02800000 1619983.41254308 8456.31380128
0.02900000 1615516.31570377 10177.75325624
0.03000000 1610906.33964657 8239.78630604
0.03100000 1606153.45110134 10022.39799603
0.03200000 1601259.72110439 8718.85958299
0.03300000 1596228.60241751 8140.76624762
0.03400000 1591058.03899389 10858.97161717
0.03500000 1585751.54280603 9419.36459924
0.03600000 1580310.32405229 9647.79497420
0.03700000 1574736.10652123 9873.59584452
0.03800000 1569030.29337250 11014.59316923
0.03900000 1563195.04141527 9379.17068284
0.04000000 1557230.24013228 13407.75298884
0.04100000 1551139.92846263 17589.92760435
0.04200000 1544924.65618677 9964.76449470
0.04300000 1538585.67200165 13201.06567854
0.04400000 1532126.13362795 11376.03707051
0.04500000 1525547.51387294 12631.53400179
0.04600000 1518849.80952320 11778.68082041
0.04700000 1512037.61138069 14152.67270073
0.04800000 1505110.91502779 13275.07888821
0.04900000 1498073.34270699 12359.10565262
0.05000000 1490924.71654911 17108.36191907
0.05100000 1483669.59317690 13887.14803906
0.05200000 1476306.21622717 12910.29846254
0.05300000 1468840.90011196 13087.37303010
0.05400000 1461272.98515152 19288.80430351
0.05500000 1453605.38654537 12210.28581658
0.05600000 1445839.13909436 19779.08034579
0.05700000 1437979.38204957 12510.42120780
0.05800000 1430024.71201967 21514.72279691
0.05900000 1421978.09240463 16637.14445819
0.06000000 1413843.13785766 14230.33184736
0.06100000 1405621.55575151 15686.73729525
0.06200000 1397314.79960207 15845.55056816
0.06300000 1388926.55946538 20000.54339143
0.06400000 1380455.49282728 13459.44168452
0.06500000 1371907.34450320 16298.26001509
0.06600000 1363283.52796890 21921.60015542
0.06700000 1354585.41565956 16580.12626361
0.06800000 1345816.09036419 13929.19718728
0.06900000 1336978.26251064 21057.40862043
0.07000000 1328072.42918556 18387.16364312
0.07100000 1319102.10114009 15670.93369554
0.07200000 1310069.30616922 20083.36340442
0.07300000 1300976.75398474 23105.34823338
0.07400000 1291826.88307859 15986.35842728
0.07500000 1282621.18150234 19008.44680084
0.07600000 1273360.75498103 22060.97611428
0.07700000 1264051.08697478 16268.33825216
0.07800000 1254692.16036918 17841.72335716
0.07900000 1245285.79128639 16437.77321597
0.08000000 1235837.08426564 15015.42127822
0.08100000 1226345.75092730 16592.45878853
0.08200000 1216814.52892189 19694.14407475
0.08300000 1207246.00587032 16732.43042665
0.08400000 1197642.51654280 22904.91420401
0.08500000 1188005.93190573 16857.80496513
0.08600000 1178338.94191724 21528.25347961
0.08700000 1168644.38550463 20053.93859695
0.08800000 1158922.17280712 18565.93408030
0.08900000 1149177.67729834 18616.67924665
0.09000000 1139410.72203902 15552.95708644
0.09100000 1129623.91327093 17147.69180907
0.09200000 1119819.15767648 18745.77358031
0.09300000 1110001.62731681 18781.22841677
0.09400000 1100168.13656943 17245.13635120
0.09500000 1090324.30015551 15700.67066021
0.09600000 1080471.25788803 15720.85754127
0.09700000 1070613.61070767 17311.82289902
0.09800000 1060750.69832920 20477.79319406
0.09900000 1050886.14877619 20492.28086473
0.10000000 1041019.50199145 18925.73543623
0.10100000 1031154.48215318 20509.66361463
0.10200000 1021293.01000557 17356.87552145
0.10300000 1011436.54741751 18934.09305833
0.10400000 1001588.95250831 17352.52941856
0.10500000 991751.45787284 17345.73381430
0.10600001 981922.26523959 22063.79433811
0.10700001 972108.86324795 15748.16432569
0.10800001 962309.47660783 22027.26495619
0.10900001 952527.63373158 17288.37736592
0.11000001 942764.15883513 21975.83357684
0.11100001 933021.71760094 17242.24215292
0.11200001 923301.03956335 17214.94869309
0.11300001 913604.60319519 17184.90339518
0.11400001 903934.01778845 15592.86254103
0.11500001 894291.77134133 20228.88082028
0.11600001 884678.07104109 18631.32105350
0.11700001 875096.25226626 18587.04527349
0.11800001 865545.06698427 15449.98017334
0.11900001 856027.74433878 18490.20014864
0.12000001 846545.37558398 15364.79929061
0.12100001 837102.62801324 22978.46822144
0.12200001 827697.08394009 16798.11310994
0.12300001 818332.50970481 16743.08393740
0.12400001 809007.79390071 21236.45559050
0.12500001 799725.55109770 18137.77635356
0.12600001 790489.61334121 30117.65568755
0.12700001 781298.11041553 21001.29419768
0.12800001 772153.14946117 26894.09546323
0.12900001 763056.75136699 19343.48955885
0.13000001 754010.27682301 17779.56316552
0.13100001 745012.86366294 17701.50647504
0.13200001 736068.15574855 23495.29663907
0.13300001 727176.57989897 21924.37491753
0.13400001 718338.10966781 16000.98214723
0.13500001 709555.40817729 17369.91721114
0.13600001 700828.60198675 18722.63698486
0.13700001 692159.38569186 20058.77994319
0.13800001 683546.31001546 14251.94123588
0.13900001 674994.59015501 19844.84188640
0.14000001 666501.32524911 14096.50369382
0.14100001 658069.95283978 18221.95785354
0.14200001 649699.76535734 29265.72731085
0.14300001 641393.50114312 15239.51030597
0.14400001 633147.27284322 22033.52613426
0.14500001 624968.19643562 16424.16497709
0.14600001 616852.62738550 21762.56172079
0.14700001 608803.94052697 16218.53774077
0.14800001 600819.07993621 21485.29131217
0.14900001 592902.18621365 14674.32980113
0.15000001 585052.14390544 15901.71802164
0.15100001 577270.45018021 13161.76688515
0.15200001 569557.90054812 15685.62532125
0.15300001 561914.34603569 16874.28860773
0.15400001 554338.18997943 15466.03623028
0.15500001 546833.59839168 12795.90680624
0.15600001 539397.64274369 13973.09659473
0.15700001 532035.41435595 21435.70785610
0.15800001 524740.54401353 16269.58133504
0.15900001 517519.62459495 24840.94315306
0.16000001 510367.63016859 16022.99250547
0.16100001 503290.01766289 15898.93240847
0.16200001 496283.82007769 13347.55397107
0.16300001 489349.62073568 18057.00185758
0.16400001 482488.33377513 13135.74550716
0.16500001 475698.93676107 11844.90408456
0.16600001 468983.28317755 14097.63815791
0.16700001 462338.86418821 15146.22190593
0.16800001 455767.87084594 13864.45928576
0.16900001 449271.26708172 14893.34320699
0.17000001 442845.93129128 14766.69827619
0.17100001 436494.26055402 13513.86294489
0.17200001 430214.86367155 11164.07623948
0.17300001 424008.74138788 14386.61727469
0.17400001 417876.18016274 15356.95034623
0.17500001 411814.92384521 13046.29740356
0.17600001 405825.36232845 10774.66387870
0.17700001 399910.71036495 12813.13976527
0.17800001 394066.57281684 11638.75677787
0.17900001 388294.16047574 11532.33711084
0.18000001 382594.97320458 12464.94481579
0.18100001 376967.62141967 12349.45986105
0.18200001 371409.31103392 11214.70467643
0.18300001 365923.06838639 11109.42488101
0.18400001 360507.12360148 10004.07315254
0.18500001 355162.16105375 9909.02476152
0.18600001 349887.49492758 13740.08257494
0.18700001 344681.67331452 12636.03074070
0.18800001 339543.78692466 10588.67349552
0.18900001 334478.22892036 12392.41896701
0.19000001 329477.53894196 12271.39151770
0.19100001 324547.37244595 10281.66124490
0.19200001 319683.24219032 12956.76241820
0.19300001 314888.60104024 11912.23634024
0.19400001 310158.40510430 12700.98728919
0.19500001 305495.60307013 12574.19961656
0.19600001 300897.32426753 9780.66798751
0.19700001 296366.15856516 14963.52805309
0.19800001 291898.42548812 15683.70314267
0.19900001 287495.28893004 9487.34498306
0.20000001 283154.78564079 11951.96406676
0.20100001 278878.61390059 9295.02464061
0.20200001 274663.93507905 10872.57238398
0.20300001 270511.85096337 9933.19563686
0.20400001 266421.28662920 10650.19143639
0.20500001 262390.76612925 10540.23757362
0.20600001 258420.32508328 11233.53206236
0.20700001 254509.89026620 8734.77984682
0.20800001 250657.69088350 11787.17847098
0.20900001 246866.51969696 9331.55488566
0.21000001 243129.84524496 10003.57795550
0.21100001 239451.78469154 10660.39395842
0.21200001 235829.17236693 9041.69089599
0.21300001 232262.32441699 9692.30725613
0.21400001 228750.80068840 11065.82050645
0.21500001 225294.84098102 8029.50851218
0.21600001 221891.38345596 7944.82136026
0.21700001 218541.45617212 10004.82833658
0.21800001 215244.05656856 7777.84435185
0.21900001 211997.86424019 10493.89477606
0.22000001 208802.17092259 10382.68844005
0.22100001 205658.51880627 8902.95770009
0.22200001 202564.22047004 6775.77349511
0.22300001 199518.41183119 12066.87411814
0.22400001 196520.51503927 7959.08123545
0.22500001 193572.59587755 8530.74470372
0.22600001 190669.78791035 10387.69053657
0.22700001 187814.35330944 8350.22654301
0.22800001 185004.07102897 6990.37915440
0.22900001 182238.31760422 7544.66670561
0.23000001 179517.76381639 8708.40713457
0.23100001 176841.90719670 8615.73812608
0.23200001 174207.32336083 9132.81935912
0.23300001 171616.43432249 7830.85826849
0.23400001 169065.84169633 9535.31392265
0.23500001 166556.71922242 6485.71895327
0.23600001 164088.31870049 5833.34000570
0.23700001 161659.46947520 6348.36766656
0.23800001 159269.82474854 6851.78818476
0.23900001 156918.51849078 6213.97362615
0.24000001 154604.69492687 6706.75198316
0.24100001 152329.19878312 7188.41523060
0.24200001 150090.23579026 7659.10509467
0.24300001 147886.60940098 5953.91517612
0.24400001 145718.24190719 7497.20390077
0.24500001 143584.37174336 5828.08992476
0.24600001 141484.85353460 6290.41688572
0.24700001 139419.57564938 7779.61268926
0.24800001 137386.86924989 5644.53979016
0.24900001 135385.09899153 7107.71803330
0.25000001 133416.82771063 7032.40132132
0.25100001 131478.66401468 7951.82997580
0.25200001 129573.30474362 5900.76857719
0.25300001 127695.94439648 6811.30199635
0.25400001 125849.70722546 5295.12668203
0.25500001 124030.57379569 4762.77425909
0.25600001 122241.66490795 4712.41640516
0.25700001 120479.56385741 9791.37461795
0.25800001 118744.94433313 6458.53782786
0.25900001 117038.41331703 5020.94816887
0.26000001 115357.05069397 6774.34312253
0.26100001 113701.68883626 7596.41019058
0.26200001 112072.78072779 4863.39854980
0.26300001 110467.60798253 5249.42097972
0.26400001 108887.79446348 4761.11903820
0.26500001 107332.02626063 5139.05766053
0.26600001 105799.40956561 5084.71986433
0.26700001 104290.51442486 5450.22254175
0.26800001 102804.45724051 5807.42406433
0.26900001 101339.81002170 4925.11500012
0.27000001 99897.90209540  4466.93490358
0.27100001 98477.02947433  5223.22189050
0.27200001 97077.94680847  4770.41053192
0.27300001 95699.53641984  3933.25113299
0.27400001 94339.82327524  5058.97326255
0.27500001 93002.22192093  4620.35060369
0.27600001 91682.16817981  4571.27312179
0.27700001 90383.15400520  6407.26209066
0.27800001 89101.81913158  4847.58469928
0.27900001 87839.41628855  4058.18122460
0.28000001 86594.99607078  5109.97095998
0.28100001 85368.58141341  4694.41851411
0.28200001 84160.35824867  5001.65032744
0.28300001 82968.97285592  3887.92625204
0.28400001 81793.94337521  3846.36036927
0.28500001 80636.25815168  3459.29563844
0.28600001 79494.79133973  4448.92620790
0.28700001 78370.11020748  3724.14781333
0.28800001 77259.45486362  3349.19752687
0.28900001 76166.63922292  3644.57385933
0.29000001 75087.77485198  4588.61413840
0.29100001 74024.95563623  3566.52253137
0.29200001 72976.40810263  3848.77594552
0.29300001 71943.02195438  4759.03112756
0.29400001 70923.11896206  3452.18297889
0.29500001 69918.65597249  4035.70501377
0.29600001 68927.13853594  4606.05625070
0.29700001 67949.66696695  3341.08528293
0.29800001 66986.21177234  3304.76491423
0.29900001 66036.47194350  2971.64137813
0.30000001 65098.66776614  3233.12548766
0.30100001 64175.45544857  2907.14826944
0.30200001 63263.75223254  5750.67535018
0.30300001 62365.85103079  3981.43611829
0.30400001 61480.08369881  2812.71396238
0.30500001 60607.27478440  3060.06144873
0.30600001 59745.43575890  3851.78842573
0.30700001 58896.54298831  3809.42858083
0.30800001 58059.55931415  2960.16677178
0.30900001 57234.59359194  2661.40872803
0.31000001 56421.37130166  3158.46851500
0.31100001 55618.92382337  2863.26233399
0.31200001 54829.12483573  3346.49579279
0.31300001 54049.72035766  2545.74194938
0.31400001 53283.01530906  3776.43388883
0.31500001 52525.99184928  2987.67855784
0.31600002 51781.45832044  3447.09184360
0.31700002 51046.96202203  2678.43422411
0.31800002 50323.10677803  2889.55292801
0.31900002 49610.78825931  2857.58153904
0.32000002 48909.43099143  2590.48813512
0.32100002 48217.90385033  2561.81735287
0.32200002 47538.14603569  2533.54561294
0.32300002 46867.20464511  3644.39400577
0.32400002 46207.98439341  3153.69508418
0.32500002 45558.29223409  2450.58065531
0.32600002 44919.32005503  3304.93912955
0.32700002 44290.62638577  2397.00881350
0.32800002 43672.91556716  2370.78433383
0.32900002 43063.27365273  2344.79536143
0.33000002 42465.00099388  2530.06487902
0.33100002 41875.71775497  2293.95192725
0.33200002 41297.81156319  2887.95609937
0.33300002 40728.97896277  2856.73071973
0.33400002 40170.53161649  2422.28317118
0.33500002 39621.45934618  2196.61381018
0.33600002 39081.63733757  1975.57686097
0.33700002 38551.57892229  2345.47817271
0.33800002 38031.95221353  2707.49480630
0.33900002 37521.00631830  2104.92855414
0.34000002 37019.78470845  2272.27449302
0.34100002 36528.27128757  2623.46056812
0.34200002 36046.54008938  2040.05403297
0.34300002 35573.59127289  2569.83635526
0.34400002 35110.70383241  2362.07271219
0.34500002 34656.80473854  2158.42590134
0.34600002 34212.73190205  1780.77277984
0.34700002 33776.54399780  1939.44924821
0.34800002 33350.61342065  2444.26657336
0.34900002 32933.23549239  2247.69342881
0.35000002 32525.36388514  2226.19863656
0.35100002 32127.11916411  2205.20556387
0.35200002 31736.44847747  2520.66753971
0.35300002 31355.83981620  2330.99324234
0.35400002 30983.50068465  1649.87148960
0.35500002 30620.50285741  1635.13493003
0.35600002 30265.85442246  2917.32584596
0.35700002 29919.94960930  2410.05205518
0.35800002 29582.99290787  1752.34866790
0.35900002 29255.24690585  1579.78340774
0.36000002 28935.79732329  2193.62289898
0.36100002 28624.25680629  2331.44582730
0.36200002 28322.75636757  1850.60898871
0.36300002 28028.30684178  1683.38018865
0.36400002 27742.64925965  1670.80113080
0.36500002 27464.70151836  1809.37462174
0.36600002 27195.90250494  1646.84795419
0.36700002 26934.73407141  1784.15686940
0.36800002 26682.56583787  1772.25610690
0.36900002 26438.17667053  1907.51453714
0.37000002 26201.17044093  2041.33328575
0.37100002 25972.20819854  1594.17421474
0.37200002 25751.74855795  1584.89144008
0.37300002 25538.89682671  1432.73217985
0.37400002 25333.46382980  1567.50814872
0.37500002 25135.94744871  2268.26800522
0.37600002 24946.29454272  2539.28344179
0.37700002 24763.87052723  1544.52267795
0.37800002 24588.78596407  1817.23431276
0.37900002 24422.04323977  2088.08479592
0.38000002 24261.70765453  1663.86798977
0.38100002 24107.95941479  1933.94059587
0.38200002 23962.65474599  1376.65458037
0.38300002 23823.48173516  1783.90239684
0.38400002 23691.73291361  1778.65693275
0.38500002 23566.19612550  1637.37938437
0.38600002 23448.41105735  1633.41639164
0.38700002 23336.46497542  1629.81879110
0.38800002 23231.14410939  1491.09105530
0.38900002 23132.41509943  2029.86952114
0.39000002 23040.54180275  1891.85897705
0.39100002 22954.12198836  2429.46438635
0.39200002 22874.78295991  1753.00907518
0.39300002 22800.73971266  1347.52378086
0.39400002 22734.02781290  1616.38945408
0.39500002 22671.80599104  2020.05800951
0.39600002 22615.75440018  2020.15235751
0.39700002 22564.84782574  1885.97007063
0.39800002 22520.67570714  1617.43500592
0.39900002 22480.87698842  1753.50848818
0.40000002 22446.90894875  1755.23612841
0.40100002 22417.75445607  1622.14878930
0.40200002 22394.26419701  1489.10666833
0.40300002 22375.56503522  1491.55523592
0.40400002 22361.76898458  1766.02078923
0.40500002 22352.39335442  1497.38690176
0.40600002 22348.53279101  1364.37799154
0.40700002 22348.74539758  1367.74328314
0.40800002 22353.19451323  1645.64225804
0.40900002 22361.80502125  1787.82639616
0.41000002 22375.26289602  1379.43502290
0.41100002 22392.48746075  1799.01252784
0.41200002 22412.81187649  1805.01589000
0.41300002 22438.48057030  1532.77268038
0.41400002 22466.93324464  1678.27999290
0.41500002 22499.00768688  1965.51340466
0.41600002 22533.73267650  1973.27906398
0.41700002 22573.15986226  2123.00578564
0.41800002 22616.35424554  2132.15689753
0.41900002 22660.67892247  1570.38512374
0.42000002 22708.69103956  1434.05390710
0.42100002 22760.47438993  2305.18095544
0.42200002 22814.24812341  1737.07693443
0.42300002 22870.63861452  1745.48722177
0.42400002 22929.31570466  1607.91833998
0.42500002 22991.05167908  1616.04109910
0.42600002 23053.75750693  1624.25256212
0.42700002 23119.75129396  1632.71691375
0.42800002 23187.06300694  1939.71384776
0.42900002 23257.29514716  2250.14341212
0.43000002 23329.10272412  1659.04921884
0.43100002 23400.96436557  1819.65907530
0.43200002 23475.82446373  1677.23035829
0.43300002 23551.33764048  1533.19215305
0.43400002 23628.65852094  1695.94704571
0.43500002 23706.77536508  1860.50781882
0.43600002 23786.62085235  1715.13437784
0.43700002 23866.62610240  2352.05611385
0.43800002 23947.20995151  1892.30862004
0.43900002 24029.50503344  2061.73162957
0.44000002 24111.69906124  2232.98455588
0.44100002 24194.91075758  1924.94719110
0.44200002 24278.34716224  1774.62586992
0.44300002 24362.14344656  1947.02259652
0.44400002 24446.05535112  1794.95169922
0.44500002 24529.56386336  2297.43906032
0.44600002 24612.99330257  2145.39166289
0.44700002 24697.36083105  1991.59527180
0.44800002 24780.26861547  1835.84628738
0.44900002 24863.78769043  2013.96689837
0.45000002 24946.90433494  3037.78468483
0.45100002 25028.70517982  1866.64092078
0.45200002 25110.53526826  2388.76533328
0.45300002 25191.09930068  1715.51394368
0.45400002 25271.16064417  2759.61087313
0.45500002 25350.80248336  1907.39446925
0.45600002 25428.93168360  2614.73002429
0.45700002 25506.35202153  2277.97240700
0.45800002 25582.31962773  1937.47706883
0.45900002 25656.88640188  2124.39029476
0.46000002 25730.87701080  2313.07729851
0.46100002 25802.55190911  2503.36370487
0.46200002 25873.43046029  1796.90983063
0.46300002 25942.92787551  2166.75343886
0.46400002 26010.01033505  1814.19830685
0.46500002 26076.69212809  2005.03695276
0.46600002 26140.61583028  1831.15022570
0.46700002 26202.69768022  2207.31535720
0.46800002 26263.82573540  2217.19227367
0.46900002 26322.13025794  2226.85232537
0.47000002 26378.77938726  2236.39302245
0.47100002 26433.66943293  2058.65427301
0.47200002 26486.40559840  2630.89479279
0.47300002 26536.92289175  2830.16296055
0.47400002 26584.87652503  2841.25881328
0.47500002 26630.86912414  2662.02180382
0.47600002 26675.27571496  2290.33928144
0.47700002 26716.39159923  2490.23497900
