# SAXS profile: number of points = 501, q_min = 0, q_max = 0.5, delta_q = 0.001
#    q    intensity    error
0.00000000 1664650.74656091 374.54641798
0.00100000 1664569.57619156 499.37088472
0.00200000 1664326.00906131 823.84140057
0.00300000 1663920.25342023 1797.03393771
0.00400000 1663352.18913375 1497.01702710
0.00500000 1662622.32122379 1645.99616316
0.00600000 1661730.57236176 3140.67090963
0.00700000 1660677.47111798 2192.09435298
0.00800000 1659462.83391735 3136.38488852
0.00900000 1658087.89872509 2735.84514985
0.01000000 1656552.07249674 3553.30434894
0.01100000 1654856.58747206 2978.74198714
0.01200000 1653001.36240033 3223.35279800
0.01300000 1650987.56702745 4853.90366114
0.01400000 1648815.18079903 5935.73491401
0.01500000 1646485.74503271 4741.87915684
0.01600000 1643998.45937246 7126.73363997
0.01700000 1641355.71142174 4431.66061964
0.01800000 1638557.38467991 6070.85538341
0.01900000 1635604.18448583 5888.17532984
0.02000000 1632497.22693729 6685.07644671
0.02100000 1629238.51052487 5914.13606134
0.02200000 1625826.56225045 7291.83246298
0.02300000 1622264.82375678 6424.16899449
0.02400000 1618552.37773686 7890.44320125
0.02500000 1614692.19545515 7556.75981985
0.02600000 1610683.96114286 10437.23254559
0.02700000 1606529.97124258 7422.16880708
0.02800000 1602229.99731990 7666.67088877
0.02900000 1597786.44636450 10785.05900815
0.03000000 1593201.01133624 7408.38504324
0.03100000 1588473.53279253 7624.67330824
0.03200000 1583605.70350298 8622.73345272
0.03300000 1578601.50073763 9661.04162989
0.03400000 1573458.63394503 9086.72403030
0.03500000 1568180.60917064 11855.44595279
0.03600000 1562768.64355470 9540.70300981
0.03700000 1557224.28406320 9763.79671263
0.03800000 1551549.31382698 10891.87668714
0.03900000 1545745.54445862 11129.36843550
0.04000000 1539813.18705397 11363.82184705
0.04100000 1533755.81703182 9662.66209532
0.04200000 1527574.38069173 14779.28281885
0.04300000 1521269.86563799 13052.49605304
0.04400000 1514845.68227918 15337.81324539
0.04500000 1508303.21111582 11448.02190430
0.04600000 1501642.23923659 15879.86741813
0.04700000 1494867.59243402 16144.57074914
0.04800000 1487979.15085732 15311.30617473
0.04900000 1480980.50973255 14439.56064202
0.05000000 1473871.63962234 12402.63042496
0.05100000 1466656.92217134 17159.88678878
0.05200000 1459334.73423352 16242.39634894
0.05300000 1451911.05870998 14112.57614856
0.05400000 1444385.78826439 17874.27496332
0.05500000 1436761.44584830 14482.55604975
0.05600000 1429039.00231941 15883.76925198
0.05700000 1421223.90540605 14837.57826504
0.05800000 1413314.63517059 12507.83510528
0.05900000 1405313.91708225 17706.95618225
0.06000000 1397225.61917712 14063.07651403
0.06100000 1389051.20383199 14209.99447925
0.06200000 1380792.41481991 18267.88450197
0.06300000 1372452.75036296 14493.10172146
0.06400000 1364030.77820194 17289.09092226
0.06500000 1355532.61585250 13419.77352469
0.06600000 1346959.27178394 18951.71784072
0.06700000 1338312.22145165 21841.25647624
0.06800000 1329594.53113303 19265.82565793
0.06900000 1320809.23406195 18029.04688905
0.07000000 1311956.27241857 29341.90340668
0.07100000 1303039.38262496 18294.67378894
0.07200000 1294060.81055670 15586.96319335
0.07300000 1285022.97722740 15690.13128712
0.07400000 1275928.25803722 15789.61293318
0.07500000 1266778.59883081 15885.40437393
0.07600000 1257574.58463061 17429.98456011
0.07700000 1248321.83888206 20447.51267964
0.07800000 1239020.42230995 20555.34977009
0.07900000 1229672.37625844 14756.06920722
0.08000000 1220282.07578921 19274.35629127
0.08100000 1210850.21415655 17872.14999948
0.08200000 1201378.46041770 17948.59504088
0.08300000 1191870.28681644 19522.83621430
0.08400000 1182327.38774306 18089.60988157
0.08500000 1172752.19570688 19667.05524528
0.08600000 1163146.79492792 19732.78630244
0.08700000 1153514.38126349 21316.94676674
0.08800000 1143854.87505905 16797.50962912
0.08900000 1134173.40206551 15311.34164705
0.09000000 1124470.14995605 18418.82192151
0.09100000 1114747.44042754 24613.62464102
0.09200000 1105007.33015109 20039.30887387
0.09300000 1095254.79910349 20076.02141098
0.09400000 1085486.83929494 17015.00700561
0.09500000 1075708.77471045 20137.26920909
0.09600000 1065921.89348792 17060.08070723
0.09700000 1056130.79906975 17077.63582382
0.09800000 1046335.11510246 20199.50034679
0.09900000 1036537.92692066 18657.68356190
0.10000000 1026739.23545729 21777.14020817
0.10100000 1016942.42057280 20226.98569650
0.10200000 1007149.74390311 17116.51070273
0.10300000 997362.37801895 15558.85382900
0.10400000 987583.77689198 17109.88973959
0.10500000 977816.21064568 17102.00632883
0.10600001 968057.15265095 20198.51344047
0.10700001 958314.14752447 20182.09689659
0.10800001 948585.47010662 21713.12243260
0.10900001 938874.88380432 21688.01083664
0.11000001 929182.64059109 20112.15920226
0.11100001 919511.76885855 18537.35813280
0.11200001 909863.10684639 24675.48861932
0.11300001 900238.84222230 16933.49341944
0.11400001 890640.87664023 15363.55584543
0.11500001 881071.38349823 18396.77135371
0.11600001 871530.82095224 16824.90329079
0.11700001 862022.22676898 19835.13237209
0.11800001 852544.80514054 19783.30313505
0.11900001 843101.47954407 22763.74101990
0.12000001 833693.01197250 19670.98754409
0.12100001 824324.55293787 15085.14002940
0.12200001 814993.46549393 16540.29316143
0.12300001 805703.42945050 22479.12674076
0.12400001 796453.97838225 25386.97175710
0.12500001 787246.79437534 19342.65464924
0.12600001 778086.09744881 14822.54085489
0.12700001 768970.16003113 20669.91887574
0.12800001 759900.87669114 16174.49092266
0.12900001 750880.50900570 17570.60473887
0.13000001 741909.70859781 16036.37910721
0.13100001 732988.88691310 17415.81677400
0.13200001 724120.19120172 18780.05804411
0.13300001 715305.10285108 15815.39656962
0.13400001 706543.02850011 15738.24670183
0.13500001 697837.02968493 18506.63889980
0.13600001 689187.23483977 18411.63784687
0.13700001 680594.74288289 18314.80539458
0.13800001 672058.83780178 15413.67017183
0.13900001 663583.98959128 15328.79088244
0.14000001 655167.87546525 16628.16146350
0.14100001 646813.94268613 15154.85139188
0.14200001 638521.20978471 19174.79283422
0.14300001 630291.94217350 20421.45988965
0.14400001 622123.20675371 13531.18038516
0.14500001 614021.44970016 17481.19149759
0.14600001 605983.62132624 17370.52132476
0.14700001 598012.42381684 15931.05172205
0.14800001 590105.12568376 19783.27527190
0.14900001 582265.60565016 17031.26976882
0.15000001 574493.24124289 13012.27252811
0.15100001 566788.95150127 14215.06757439
0.15200001 559154.09785880 14115.84586653
0.15300001 551587.87782392 14015.84863690
0.15400001 544089.43360466 21505.13587807
0.15500001 536662.40234108 16325.27104965
0.15600001 529303.90085749 16204.63968953
0.15700001 522018.77656339 14846.21470616
0.15800001 514801.52224942 19644.82701625
0.15900001 507657.86362749 15838.92609278
0.16000001 500583.09155779 12089.08223175
0.16100001 493582.64213085 15592.27640094
0.16200001 486653.59300548 16658.15327494
0.16300001 479796.45512888 17704.49003005
0.16400001 473012.20589175 12877.75791336
0.16500001 466299.70062879 12771.94940320
0.16600001 459660.30849770 12665.94039865
0.16700001 453092.89985653 12559.73577703
0.16800001 446598.48630178 12453.39937853
0.16900001 440178.01623965 12346.99393852
0.17000001 433828.67864129 12240.47674586
0.17100001 427553.28381567 13237.05029200
0.17200001 421350.06229021 12027.43809604
0.17300001 415219.64961358 11920.95670337
0.17400001 409162.71600190 12888.62616274
0.17500001 403177.03227310 18094.58606298
0.17600001 397262.75980575 12656.79212518
0.17700001 391423.48221087 13586.30970923
0.17800001 385654.25206467 14496.74401982
0.17900001 379956.66657463 12310.59657849
0.18000001 374331.93301269 13212.04619975
0.18100001 368779.04713410 13087.96900102
0.18200001 363295.10339000 11966.94127096
0.18300001 357882.51413950 11853.06942823
0.18400001 352540.72484316 14674.50836483
0.18500001 347269.32455218 10657.69607400
0.18600001 342068.00797062 12473.51049994
0.18700001 336935.38516447 13302.20963475
0.18800001 331870.46493757 13171.93937570
0.18900001 326877.81254312 10247.61990740
0.19000001 321949.28529586 13835.77118931
0.19100001 317091.48558494 10045.45873798
0.19200001 312299.23985441 13561.59513148
0.19300001 307576.09433700 9845.51124495
0.19400001 302917.43591016 8860.33541906
0.19500001 298325.84613011 9647.85831976
0.19600001 293798.33534534 9549.91534169
0.19700001 289337.79427219 12030.66605438
0.19800001 284940.43011206 11057.11391304
0.19900001 280607.31794291 9260.04192975
0.20000001 276336.40911376 10831.00606710
0.20100001 272129.86045542 10719.19570995
0.20200001 267984.23053661 11424.16828772
0.20300001 263900.90352189 10497.97843828
0.20400001 259878.89676895 17580.80819739
0.20500001 255916.71932664 12652.52320155
0.20600001 252014.02563658 10172.54662566
0.20700001 248171.26137661 8517.23809305
0.20800001 244386.38833330 9959.96772733
0.20900001 240662.03240554 8338.93981704
0.21000001 236992.00010154 9751.03630513
0.21100001 233380.32713902 9647.94318002
0.21200001 229823.53726715 8077.14859910
0.21300001 226322.28452537 10170.92394741
0.21400001 222875.97688499 7906.52565379
0.21500001 219484.97788663 9244.70770565
0.21600001 216145.78800149 8442.65487849
0.21700001 212860.13974808 6960.52689885
0.21800001 209626.59964449 9640.72777347
0.21900001 206443.84022890 8175.17645960
0.22000001 203311.24784505 7413.74500321
0.22100001 200230.41774394 6667.67322614
0.22200001 197198.25286235 10554.05099224
0.22300001 194214.32536846 6525.60164095
0.22400001 191278.21559538 7746.76809793
0.22500001 188391.44387673 7025.11727436
0.22600001 185549.45743084 10108.73491886
0.22700001 182754.45541199 8125.26347185
0.22800001 180004.35886677 8656.41002727
0.22900001 177298.13407476 6116.78591485
0.23000001 174636.77634270 6656.28104509
0.23100001 172019.70104786 6584.91446753
0.23200001 169443.62882183 7698.67163962
0.23300001 166910.67857184 7030.27811394
0.23400001 164418.04222546 6375.30988881
0.23500001 161965.93803287 5733.59447754
0.23600001 159554.35090464 7373.80467582
0.23700001 157182.17104905 6733.68452623
0.23800001 154848.36975807 6106.44575024
0.23900001 152552.79943449 6590.28124729
0.24000001 150294.02859989 5433.12939088
0.24100001 148073.33511944 6450.07478290
0.24200001 145888.74202553 5317.64489837
0.24300001 143738.97644660 5786.93146548
0.24400001 141624.33146256 6245.63331294
0.24500001 139543.51923212 7723.73415486
0.24600001 137496.78368965 6113.10729202
0.24700001 135483.58095149 5039.98944982
0.24800001 133502.70495709 6482.22414584
0.24900001 131552.47048927 5426.53966440
0.25000001 129635.04203038 5368.83551968
0.25100001 127747.55605806 4828.85784744
0.25200001 125892.04334143 6688.64457917
0.25300001 124064.56026630 4726.85996978
0.25400001 122267.51398685 6547.42568376
0.25500001 120497.32608621 6940.64631094
0.25600001 118756.66290188 5493.68348576
0.25700001 117042.43283211 5888.40507438
0.25800001 115355.46064048 5377.87182951
0.25900001 113695.85410863 5764.38007605
0.26000001 112061.31601539 7458.24124029
0.26100001 110452.00768355 4774.84051809
0.26200001 108869.06894575 7730.79295163
0.26300001 107309.10219153 5099.32877743
0.26400001 105774.28057902 4624.98063716
0.26500001 104262.95884961 6656.14760792
0.26600001 102774.40246364 4939.33801613
0.26700001 101308.98469169 5701.66992825
0.26800001 99866.05114229  5641.43349599
0.26900001 98444.24356999  4385.69125858
0.27000001 97044.63253443  5522.81029889
0.27100001 95665.62368746  6245.05220985
0.27200001 94308.02964148  5792.87099487
0.27300001 92970.46853280  4967.41236879
0.27400001 91651.45756908  4536.74736437
0.27500001 90353.90849411  4114.71718755
0.27600001 89073.42267540  3701.00088732
0.27700001 87813.62759226  3661.82844390
0.27800001 86571.14277649  5072.20349533
0.27900001 85347.31807400  3943.04628163
0.28000001 84140.74013584  3901.18560104
0.28100001 82951.95088056  5263.30153248
0.28200001 81780.68904729  4860.22658011
0.28300001 80626.00249993  4465.06822978
0.28400001 79487.27846800  4757.31384148
0.28500001 78365.41338169  4370.43931116
0.28600001 77259.31914406  3658.61523124
0.28700001 76169.61207954  3619.58013734
0.28800001 75093.59669268  3580.83832778
0.28900001 74034.72787412  3542.56189646
0.29000001 72989.71334848  3823.20136616
0.29100001 71960.20464258  3467.04282379
0.29200001 70944.48343961  3741.61223372
0.29300001 69943.55018884  3701.41285120
0.29400001 68955.74375086  3966.67934704
0.29500001 67983.03973075  3622.13652832
0.29600001 67022.63170182  3881.61589876
0.29700001 66076.08773866  3839.68164026
0.29800001 65142.98338577  3213.82923748
0.29900001 64223.17654645  4046.06031396
0.30000001 63315.18592202  2858.68077971
0.30100001 62421.06415608  3958.74407619
0.30200001 61538.21602938  3076.60325604
0.30300001 60668.62326098  3873.08509234
0.30400001 59810.91204170  3830.88909763
0.30500001 58965.66685044  2706.52423657
0.30600001 58131.15298651  2944.63369394
0.30700001 57309.18309833  3441.98969984
0.30800001 56498.62893207  2880.58273248
0.30900001 55699.67918852  2849.03872538
0.31000001 54911.98016811  3330.13719496
0.31100001 54135.01138401  2786.87051799
0.31200001 53370.17997556  3006.87608219
0.31300001 52615.32550260  2726.00014336
0.31400001 51872.85319458  3676.48864424
0.31500001 51139.66679066  2666.42235271
0.31600002 50418.55611342  2637.14270237
0.31700002 49707.08253898  3082.33633418
0.31800002 49006.06571496  3048.42246214
0.31900002 48316.19803226  3014.93089997
0.32000002 47636.68650731  2752.44787672
0.32100002 46966.89894177  2268.50132630
0.32200002 46308.44687340  2916.73766443
0.32300002 45658.39719783  2884.69767155
0.32400002 45019.55830545  3072.58499984
0.32500002 44390.35379439  2821.89492433
0.32600002 43771.29521315  3864.56783736
0.32700002 43162.15051174  2548.29348688
0.32800002 42563.66232800  3150.77525303
0.32900002 41972.88294080  2285.42358435
0.33000002 41393.27404167  3082.76423023
0.33100002 40822.24572225  2032.94793324
0.33200002 40262.33418715  2614.43479425
0.33300002 39711.05427474  2586.38108739
0.33400002 39169.96999989  2361.94930285
0.33500002 38637.80139090  3115.75245171
0.33600002 38114.74075577  2119.37026009
0.33700002 37601.02335163  2287.64636905
0.33800002 37097.43472256  2263.68557397
0.33900002 36602.27797239  2240.05951799
0.34000002 36116.45710282  3140.50667610
0.34100002 35639.96021348  2742.49506831
0.34200002 35173.27504722  1990.63159557
0.34300002 34714.91427688  1970.41862767
0.34400002 34266.40837928  1950.61538937
0.34500002 33826.41626544  2633.38663098
0.34600002 33395.98112490  2433.56525983
0.34700002 32973.33188582  2237.57040774
0.34800002 32560.55136462  2045.45393360
0.34900002 32156.02024714  1857.01025722
0.35000002 31760.89052241  2173.87425477
0.35100002 31375.05591452  1987.92363690
0.35200002 30996.44847655  1805.38822703
0.35300002 30627.75384632  1788.96718689
0.35400002 30267.07348458  1772.89391333
0.35500002 29915.49119417  2236.48222761
0.35600002 29571.85807618  1900.28768998
0.35700002 29236.85371819  2198.02676664
0.35800002 28910.55398970  1556.83340608
0.35900002 28593.16425072  2007.24022547
0.36000002 28283.85869153  1684.72812276
0.36100002 27982.19447392  1671.37655509
0.36200002 27690.48333297  2110.84564446
0.36300002 27405.46795097  1645.97248310
0.36400002 27129.18629390  2376.51683191
0.36500002 26860.18531891  1474.62424386
0.36600002 26600.29691716  1464.34641465
0.36700002 26347.71080834  2327.02992882
0.36800002 26103.91733446  1444.85189290
0.36900002 25867.85176616  2009.93217744
0.37000002 25638.88211098  1997.52539989
0.37100002 25417.70440756  1843.80036506
0.37200002 25204.89670825  1692.25684515
0.37300002 24999.45896789  1542.71668599
0.37400002 24801.31318669  1674.08871940
0.37500002 24610.92077382  1665.66719688
0.37600002 24428.14450622  1795.83512845
0.37700002 24252.41526746  1512.62321189
0.37800002 24083.97326929  1506.09133974
0.37900002 23923.65399785  1909.10767947
0.38000002 23769.53274731  1630.11463303
0.38100002 23621.91163308  2030.30340104
0.38200002 23482.41823329  1753.78448884
0.38300002 23349.01753820  2017.35521087
0.38400002 23222.83970663  1475.23096225
0.38500002 23102.77313759  1471.41569084
0.38600002 22990.38076427  1468.05083325
0.38700002 22883.51103768  1598.18448659
0.38800002 22783.29161124  1462.34564135
0.38900002 22689.37664369  1460.06145619
0.39000002 22602.34441752  1855.87858805
0.39100002 22520.52650744  1589.04842565
0.39200002 22445.60601368  1984.75280579
0.39300002 22376.01580087  1322.42259648
0.39400002 22313.60490984  1850.91361496
0.39500002 22255.58208024  1586.37796584
0.39600002 22203.53641360  1718.88685290
0.39700002 22156.54969879  1455.02068766
0.39800002 22116.16710201  1853.11372928
0.39900002 22080.15767808  1324.80952345
0.40000002 22049.76422734  2254.69874789
0.40100002 22024.20367415  2656.11908895
0.40200002 22004.21801920  1463.17054651
0.40300002 21988.76870742  1599.02333617
0.40400002 21978.26822455  1335.17985790
0.40500002 21971.99491309  1739.52291969
0.40600002 21971.30579890  1341.34828258
0.40700002 21974.46098123  1613.80449093
0.40800002 21981.94277169  1483.45147824
0.40900002 21993.32096769  1758.36609468
0.41000002 22009.52692538  1628.26487909
0.41100002 22029.45833630  1497.56264866
0.41200002 22052.46050554  1775.99499096
0.41300002 22080.68705267  1508.33180404
0.41400002 22111.68883642  1651.74323435
0.41500002 22146.32857616  1658.31716236
0.41600002 22183.41807385  1387.57286627
0.41700002 22225.29688955  1393.52618101
0.41800002 22270.66530843  1679.65365715
0.41900002 22317.33883028  1687.19089552
0.42000002 22367.63033905  2118.77388426
0.42100002 22421.40651340  1986.98513937
0.42200002 22477.47493485  1996.67419308
0.42300002 22535.89955268  1719.93993536
0.42400002 22596.72648208  1584.59551964
0.42500002 22660.44248773  2461.60398409
0.42600002 22725.10402472  1746.65157811
0.42700002 22793.23591402  1755.99097803
0.42800002 22862.46540569  2059.67960600
0.42900002 22934.57812291  1627.20839493
0.43000002 23008.21095833  1933.72518163
0.43100002 23082.04159512  1794.85963949
0.43200002 23158.80020166  1504.16414438
0.43300002 23236.14715630  1663.94057671
0.43400002 23315.37273988  1521.32814337
0.43500002 23395.22891455  1683.05284787
0.43600002 23476.95456986  2154.48022297
0.43700002 23558.76294336  1857.37295847
0.43800002 23641.12325292  2179.47525597
0.43900002 23725.22225262  2035.62416574
0.44000002 23809.31253601  2204.98053845
0.44100002 23894.32059088  2059.45158933
0.44200002 23979.45364395  1912.12172418
0.44300002 24065.12902299  2083.55896955
0.44400002 24150.84762508  2579.31064859
0.44500002 24236.16363576  2107.81925129
0.44600002 24321.40587222  2446.12551152
0.44700002 24407.64346265  1968.23246211
0.44800002 24492.51554520  1979.48520017
0.44900002 24577.70393144  2488.49264099
0.45000002 24662.74512044  2502.65217970
0.45100002 24746.49723938  2516.71888852
0.45200002 24830.14775532  1855.92948193
0.45300002 24912.72652140  1696.55675651
0.45400002 24994.71841993  1876.47857431
0.45500002 25076.26867420  1886.73854447
0.45600002 25156.36417597  1896.91573059
0.45700002 25235.81626771  2427.18092366
0.45800002 25313.77590507  2091.42426440
0.45900002 25390.49616952  2452.72204622
0.46000002 25466.48279703  2641.51105331
0.46100002 25540.26938705  1769.94075241
0.46200002 25613.39088812  1778.85008149
0.46300002 25684.90535080  2145.20339657
0.46400002 25754.24278665  2155.63022341
0.46500002 25823.09468423  1985.53784438
0.46600002 25889.25749782  2357.60534578
0.46700002 25953.67110032  2004.14257735
0.46800002 26017.04131402  2562.41852047
0.46900002 26077.77695172  1838.48336223
0.47000002 26136.71171682  2400.52640141
0.47100002 26193.98636610  2225.44118714
0.47200002 26249.20718632  3724.76267628
0.47300002 26302.21021841  1870.08723517
0.47400002 26352.58179979  2253.14585068
0.47500002 26401.24032526  2073.55351343
0.47600002 26448.23198959  2460.08241511
0.47700002 26491.88120021  2659.25516092
