# SAXS profile: number of points = 501, q_min = 0, q_max = 0.5, delta_q = 0.001
#    q    intensity    error
0.00000000 1664650.74656090 424.48594037
0.00100000 1664569.57809148 499.37088529
0.00200000 1664326.01870594 748.94673213
0.00300000 1663920.27539137 1497.52830120
0.00400000 1663352.23703552 1372.26564770
0.00500000 1662622.39033245 1945.26827369
0.00600000 1661730.67551631 2442.74419246
0.00700000 1660677.60473062 2590.65717105
0.00800000 1659463.01476583 2912.35771387
0.00900000 1658088.12704509 2735.84552658
0.01000000 1656552.35337260 3006.64265120
0.01100000 1654856.91846734 4170.23961611
0.01200000 1653001.76909359 4190.35966837
0.01300000 1650988.04717133 5200.61257796
0.01400000 1648815.74089784 5564.75337222
0.01500000 1646486.36911563 5532.19444657
0.01600000 1643999.17749262 4611.41789901
0.01700000 1641356.52080540 4874.82908547
0.01800000 1638558.32146829 5136.88056895
0.01900000 1635605.18225621 4906.81576818
0.02000000 1632498.32532534 8742.02892757
0.02100000 1629239.72960167 6989.43875688
0.02200000 1625827.93069042 8413.65992358
0.02300000 1622266.27237179 7592.20650028
0.02400000 1618553.97448035 7283.49321727
0.02500000 1614693.91458112 8186.49852081
0.02600000 1610685.83423597 6523.27792702
0.02700000 1606531.93641661 7422.17788619
0.02800000 1602232.09677604 8363.65192872
0.02900000 1597788.70880788 7909.05447174
0.03000000 1593203.45195942 8890.07567057
0.03100000 1588476.16386396 16011.84046850
0.03200000 1583608.49324831 9406.63488315
0.03300000 1578604.44220035 8855.97132901
0.03400000 1573461.70464709 8260.67433055
0.03500000 1568183.86626463 11008.65124954
0.03600000 1562772.04995290 11275.40086149
0.03700000 1557227.96096493 10651.43974560
0.03800000 1551553.11211122 13614.87918887
0.03900000 1545749.52960203 10201.94736783
0.04000000 1539817.33251593 9469.87703380
0.04100000 1533760.17139217 10628.95848058
0.04200000 1527578.98926538 15764.61590058
0.04300000 1521274.63400995 12048.49566063
0.04400000 1514850.69966492 11247.76696738
0.04500000 1508308.44797917 11448.06165209
0.04600000 1501647.64479146 10586.61638792
0.04700000 1494873.19725266 12915.70502495
0.04800000 1487984.86997444 10936.68930318
0.04900000 1480986.47542130 16661.09862402
0.05000000 1473877.88962265 13530.19965678
0.05100000 1466663.38254489 12583.97240845
0.05200000 1459341.38371628 11601.76454120
0.05300000 1451917.94474650 12936.58949077
0.05400000 1444392.94301995 14299.49080274
0.05500000 1436768.79842911 12068.85846981
0.05600000 1429046.60203919 13440.18391935
0.05700000 1421231.69719169 13601.18797701
0.05800000 1413322.65953745 13758.69673302
0.05900000 1405322.24183012 13912.69084392
0.06000000 1397234.01830463 14063.16105125
0.06100000 1389059.82006498 16793.73400938
0.06200000 1380801.39488288 14353.43117074
0.06300000 1372461.87762478 15810.76156947
0.06400000 1364040.10959966 13299.39169057
0.06500000 1355542.14037537 21471.78850795
0.06600000 1346969.15289743 25720.37717800
0.06700000 1338322.29912692 16381.06570793
0.06800000 1329604.90544217 13761.41141549
0.06900000 1320819.75366593 19416.05128793
0.07000000 1311967.00769255 25150.40871522
0.07100000 1303050.30613285 18294.82715499
0.07200000 1294072.01457386 19838.12491277
0.07300000 1285034.28536670 15690.26935950
0.07400000 1275939.86736588 28708.64836114
0.07500000 1266790.39059969 20217.97558164
0.07600000 1257586.60009590 21787.68886808
0.07700000 1248334.14396605 18987.16322000
0.07800000 1239032.99003175 16150.79578248
0.07900000 1229685.10437946 16231.84413914
0.08000000 1220294.98384860 17791.90169915
0.08100000 1210863.26811767 19361.70456562
0.08200000 1201391.71013426 16453.06024235
0.08300000 1191883.86698953 22526.60614332
0.08400000 1182341.05029096 24119.75855808
0.08500000 1172766.04253927 16641.55092487
0.08600000 1163160.90455372 18215.10062054
0.08700000 1153528.66773412 16749.23704201
0.08800000 1143869.25955722 16797.72086548
0.08900000 1134188.09481788 15311.53999922
0.09000000 1124485.02572699 23023.83198332
0.09100000 1114762.36738035 21537.20994963
0.09200000 1105022.51084929 15415.06475065
0.09300000 1095270.19018174 16987.64144800
0.09400000 1085502.25229441 18562.08938661
0.09500000 1075724.33257569 15490.43111718
0.09600000 1065937.78912135 15509.39556078
0.09700000 1056146.75203163 20182.96538018
0.09800000 1046351.27498851 20199.81231340
0.09900000 1036554.12062002 20212.80630255
0.10000000 1026755.54552591 17110.88197087
0.10100000 1016958.78947993 15559.47021083
0.10200000 1007166.38690613 17116.79355058
0.10300000 997379.14306487 18670.93843647
0.10400000 987600.64281155 20221.12411287
0.10500000 977833.14843379 24876.07646656
0.10600001 968074.15325794 18645.10906907
0.10700001 958331.33774460 15524.96840203
0.10800001 948602.61489108 24815.44557341
0.10900001 938892.22630073 17040.89470940
0.11000001 929200.13930733 18565.41965723
0.11100001 919529.29508018 16992.90217299
0.11200001 909880.72716819 21591.47067217
0.11300001 900256.41251680 20012.70099246
0.11400001 890658.61709502 19973.02042877
0.11500001 881089.15630031 18397.14244983
0.11600001 871548.56818528 19884.38151953
0.11700001 862040.05195637 21361.35349349
0.11800001 852562.65045843 19783.71723567
0.11900001 843119.34256048 19728.99354518
0.12000001 833710.98524709 18158.22611402
0.12100001 824342.48041524 15085.46810225
0.12200001 815011.43733172 19548.05024534
0.12300001 805721.30971131 16485.05877338
0.12400001 796471.85679027 16427.23282031
0.12500001 787264.71320241 16367.23415871
0.12600001 778103.97609581 17787.45773176
0.12700001 768988.03194608 16241.02800008
0.12800001 759918.72295825 22056.64197338
0.12900001 750898.26693469 16106.76858489
0.13000001 741927.48645105 21868.31369390
0.13100001 733006.42328328 17416.23343817
0.13200001 724137.85986563 15891.20608387
0.13300001 715322.50348013 18691.37789710
0.13400001 706560.52942953 22892.56223280
0.13500001 697854.42224985 15659.85397362
0.13600001 689204.54139630 15579.46939285
0.13700001 680612.00747971 19724.13690682
0.13800001 672076.06480084 21019.17991782
0.13900001 663601.05175330 16722.74729280
0.14000001 655184.78426361 13857.15884069
0.14100001 646830.86792513 17910.74757757
0.14200001 638537.84609268 16435.96493363
0.14300001 630308.46924758 21783.46172467
0.14400001 622139.59184806 18944.15146537
0.14500001 614037.76097223 16136.91311956
0.14600001 605999.70562602 16034.75296729
0.14700001 598028.25829075 19914.34194057
0.14800001 590120.96186978 13189.20412004
0.14900001 582281.23206568 18341.85967545
0.15000001 574508.80355744 18217.67502037
0.15100001 566804.19806689 15507.76359084
0.15200001 559169.13145706 15399.51860698
0.15300001 551602.77300421 15290.42958922
0.15400001 544104.04565838 18975.62948782
0.15500001 536676.98416456 17581.53883096
0.15600001 529318.18854377 18698.16589277
0.15700001 522032.85279454 12372.17919516
0.15800001 514815.41114910 14734.01776251
0.15900001 507671.37624877 14620.93632608
0.16000001 500596.46552882 13298.34573449
0.16100001 493595.81917185 14393.25476647
0.16200001 486666.59254507 11898.99874943
0.16300001 479809.14635402 11803.30555752
0.16400001 473024.66690138 15219.56937606
0.16500001 466311.86188949 15094.51568199
0.16600001 459672.17755681 17272.18288717
0.16700001 453104.46820716 13701.87976552
0.16800001 446609.80477974 12453.71499430
0.16900001 440189.07575341 15714.75074642
0.17000001 433839.52162156 11127.98425505
0.17100001 427563.86323617 16546.72228860
0.17200001 421360.34366365 14214.59186475
0.17300001 415229.59397581 11921.24220602
0.17400001 409172.29015117 10740.77312371
0.17500001 403186.39824085 12772.94569951
0.17600001 397271.80031550 12657.08015583
0.17700001 391432.29602314 13586.61563667
0.17800001 385662.67190037 12426.05187554
0.17900001 379964.83648430 12310.86128358
0.18000001 374339.77459085 12195.99043225
0.18100001 368786.47718350 12081.44556322
0.18200001 363302.32071299 9972.64917466
0.18300001 357889.39547661 12841.07211630
0.18400001 352547.21210692 10761.50415794
0.18500001 347275.58892617 11626.78726652
0.18600001 342073.88182814 10554.69012245
0.18700001 336940.81285732 11402.07764578
0.18800001 331875.73276671 11290.41296215
0.18900001 326882.70695728 13042.62062383
0.19000001 321953.88906793 9223.97935762
0.19100001 317095.63427630 9132.35469866
0.19200001 312303.08092679 14465.87939206
0.19300001 307579.64334112 9845.62484858
0.19400001 302920.64030784 8860.42914769
0.19500001 298328.59438669 11402.11941627
0.19600001 293800.84205801 9549.99682239
0.19700001 289339.86314669 10312.07320987
0.19800001 284942.24972457 9356.07921186
0.19900001 280608.83212144 10943.74496994
0.20000001 276337.56169065 8331.57787873
0.20100001 272130.58488524 10719.22424524
0.20200001 267984.63602806 9792.15906328
0.20300001 263900.97923768 9690.44441562
0.20400001 259878.72208191 10388.65240625
0.20500001 255916.20939649 10280.15461737
0.20600001 252013.17861105 7825.00956575
0.20700001 248169.96723960 9291.48401265
0.20800001 244384.79882455 8427.61018584
0.20900001 240660.17265169 8338.87537657
0.21000001 236989.68473721 10501.01342711
0.21100001 233377.69334795 7421.41099930
0.21200001 229820.70344257 9545.60336875
0.21300001 226319.01809382 7264.84082426
0.21400001 222872.41026007 8625.16268483
0.21500001 219481.06597526 8533.42424856
0.21600001 216141.63267036 7738.95152365
0.21700001 212855.51031393 9744.52572289
0.21800001 209621.76208779 7574.68273118
0.21900001 206438.61076253 9537.46426817
0.22000001 203305.73013434 7413.54379988
0.22100001 200224.63031545 7334.22855524
0.22200001 197192.10625755 6596.07626621
0.22300001 194207.95116328 7830.46496117
0.22400001 191271.57726830 7746.49924567
0.22500001 188384.56047505 7024.86059230
0.22600001 185542.21776314 7581.25537631
0.22700001 182746.92357221 7499.93409807
0.22800001 179996.51595912 8037.74480026
0.22900001 177290.05307946 7951.45925665
0.23000001 174628.50691246 7866.14146588
0.23100001 172011.14693396 7183.18583567
0.23200001 169434.76544539 6513.91986561
0.23300001 166901.55282297 7615.71821549
0.23400001 164408.65898415 8693.10825493
0.23500001 161956.30120082 6306.57866704
0.23600001 159544.54121684 6238.98957937
0.23700001 157172.08323257 5611.04363679
0.23800001 154838.09022303 7771.32411587
0.23900001 152542.20565405 7688.12752861
0.24000001 150283.28695305 6519.28929639
0.24100001 148062.37617069 8061.99676384
0.24200001 145877.61759510 6912.41123671
0.24300001 143727.61942053 6312.51734355
0.24400001 141612.76920115 9367.68512578
0.24500001 139531.73099112 5148.72111713
0.24600001 137484.74853791 5603.19119172
0.24700001 135471.43537073 6551.39892445
0.24800001 133490.35715796 6980.21110600
0.24900001 131540.16297728 5919.30761401
0.25000001 129622.46140525 4880.28590279
0.25100001 127734.83829565 7242.56567400
0.25200001 125879.24562271 4777.11759739
0.25300001 124051.55340434 6144.27373081
0.25400001 122254.33628866 7014.34287642
0.25500001 120484.06986209 6939.88275240
0.25600001 118743.33210503 5035.31123615
0.25700001 117028.97077118 5887.72779807
0.25800001 115341.88197146 4481.03232661
0.25900001 113682.28878260 4433.60947230
0.26000001 112047.63256853 4825.33152488
0.26100001 110438.22004478 4774.24447843
0.26200001 108855.21564736 6012.07384468
0.26300001 107295.20024389 6798.22420913
0.26400001 105760.36038759 6726.35923893
0.26500001 104248.86833178 4159.53004326
0.26600001 102760.39018403 4527.10920378
0.26700001 101294.84097431 5293.66863981
0.26800001 99851.99216465  4431.93088195
0.26900001 98430.11371457  5182.34573231
0.27000001 97030.39363365  5127.57139422
0.27100001 95651.44513316  5853.86871917
0.27200001 94293.84926439  3861.33331011
0.27300001 92956.30332022  5348.70594617
0.27400001 91637.30753006  4536.04693741
0.27500001 90339.83229916  4114.07615760
0.27600001 89059.35239449  4810.54114725
0.27700001 87799.58448556  5125.73998485
0.27800001 86557.14251642  5433.62487863
0.27900001 85333.35645498  4300.80136888
0.28000001 84126.89682054  3900.54375569
0.28100001 82938.14040146  3859.11185553
0.28200001 81766.95919950  4165.20909876
0.28300001 80612.34282140  3777.49456340
0.28400001 79473.74373330  5775.75459919
0.28500001 78351.97114387  4033.55966540
0.28600001 77245.97779475  3657.98345161
0.28700001 76156.30874842  4934.92904048
0.28800001 75080.50133088  4231.16185278
0.28900001 74021.67918610  3863.93183641
0.29000001 72976.84421855  3822.52728110
0.29100001 71947.45850157  3781.55859784
0.29200001 70931.94597136  3429.20509031
0.29300001 69931.06591090  4317.54421371
0.29400001 68943.42191671  3050.74656423
0.29500001 67970.94456527  5130.44713865
0.29600001 67010.68030300  3283.85854370
0.29700001 66064.34601704  4429.61461013
0.29800001 65131.44269679  3505.37441188
0.29900001 64211.78173758  4045.34244097
0.30000001 63303.95769882  2858.17382541
0.30100001 62410.09799375  3675.33084484
0.30200001 61527.40418838  3635.34684857
0.30300001 60658.01456192  2766.00559497
0.30400001 59800.57567312  3556.63940654
0.30500001 58955.60705397  2976.66874108
0.30600001 58121.26446502  3211.78122639
0.30700001 57299.49360394  3441.40774878
0.30800001 56489.16553531  2618.27294652
0.30900001 55690.41339111  2848.56477982
0.31000001 54903.00752617  3329.59304906
0.31100001 54126.35214432  3293.04742037
0.31200001 53361.70310147  2505.33207923
0.31300001 52607.20271321  2725.57930162
0.31400001 51864.92786976  2695.67975366
0.31500001 51132.03274058  3877.85354665
0.31600002 50411.19230167  2636.75753818
0.31700002 49700.02779395  2844.82972562
0.31800002 48999.20110647  2813.53426075
0.31900002 48309.63100898  2550.74863805
0.32000002 47630.41472888  2752.08549334
0.32100002 46960.93112350  3855.96223713
0.32200002 46302.74466699  2692.04170241
0.32300002 45653.06411377  2662.48682519
0.32400002 45014.54214612  3950.02626036
0.32500002 44385.54388312  2387.49851853
0.32600002 43766.78208568  2576.11291555
0.32700002 43157.99640844  2548.04822861
0.32800002 42559.76867456  2310.35715190
0.32900002 41969.34147735  2492.97900181
0.33000002 41390.08297770  2877.02480402
0.33100002 40819.35669542  2236.08446566
0.33200002 40259.75875695  2413.17005417
0.33300002 39708.75104288  2785.17193004
0.33400002 39168.00072616  2755.46898157
0.33500002 38636.18878100  2141.99040746
0.33600002 38113.42917214  2504.62411666
0.33700002 37600.00041651  2096.95212253
0.33800002 37096.80381576  2452.28433237
0.33900002 36602.02001728  2240.04373114
0.34000002 36116.43530262  2216.82690386
0.34100002 35640.26327031  2011.18015159
0.34200002 35173.94872402  2352.60967182
0.34300002 34715.90332549  2149.60883572
0.34400002 34267.70488177  1950.68919278
0.34500002 33827.99562463  1931.24036167
0.34600002 33397.96891312  1912.20080068
0.34700002 32975.64299841  2754.12583367
0.34800002 32563.24578747  2727.49759634
0.34900002 32158.92982119  1857.17828513
0.35000002 31764.11394103  2843.04715295
0.35100002 31378.64513964  2153.83030440
0.35200002 31000.33213751  2298.05473020
0.35300002 30631.93740180  1626.55595307
0.35400002 30271.53979915  1934.35148478
0.35500002 29920.35071544  1597.74680388
0.35600002 29577.05591334  2217.39198685
0.35700002 29242.37529636  2041.41031613
0.35800002 28916.33977909  1712.85946794
0.35900002 28599.22153410  2316.53705399
0.36000002 28290.23478662  1531.91628626
0.36100002 27988.91840989  2127.71767830
0.36200002 27697.45142607  1960.56419206
0.36300002 27412.73920396  1945.75632086
0.36400002 27136.74755442  1931.45809867
0.36500002 26868.04822432  1475.05591739
0.36600002 26608.41552360  1611.27267835
0.36700002 26356.14081201  1745.83085008
0.36800002 26112.63319705  1445.33431592
0.36900002 25876.82639630  2441.47868614
0.37000002 25648.17064721  1427.32076413
0.37100002 25427.20501989  2412.02478244
0.37200002 25214.61744127  1833.98528647
0.37300002 25009.45347585  1403.03040646
0.37400002 24811.61379748  1395.65334222
0.37500002 24621.45700722  1527.51526509
0.37600002 24438.88714125  1382.01913331
0.37700002 24263.45507407  1788.45935823
0.37800002 24095.21194337  2465.66315497
0.37900002 23935.08211724  1637.15969438
0.38000002 23781.23832412  1630.91740153
0.38100002 23633.78039845  1625.05881718
0.38200002 23494.53475035  1349.76108535
0.38300002 23361.36683663  1749.29923160
0.38400002 23235.33460249  1878.57689161
0.38500002 23115.49954821  2141.41997959
0.38600002 23003.22827739  1335.33746476
0.38700002 22896.65146491  1332.58517839
0.38800002 22796.55345207  2394.32212250
0.38900002 22702.84205183  1593.73958754
0.39000002 22615.90924059  1459.06545378
0.39100002 22534.37548244  1590.02560937
0.39200002 22459.58167457  1853.58936342
0.39300002 22390.07766544  1455.57901799
0.39400002 22327.79232939  1455.21393401
0.39500002 22269.98605587  1587.40468127
0.39600002 22218.07538360  1720.01238731
0.39700002 22171.18436994  1323.61976960
0.39800002 22130.93526410  1721.89749980
0.39900002 22094.99214038  1458.26955036
0.40000002 22064.69771531  2256.22577178
0.40100002 22039.27681541  1594.76214592
0.40200002 22019.35876578  1863.49842064
0.40300002 22004.03680633  1466.78916301
0.40400002 21993.59748759  1336.11111068
0.40500002 21987.33792783  2008.54341487
0.40600002 21986.75551199  1744.97893389
0.40700002 21990.00064484  1480.36691355
0.40800002 21997.45887822  2024.31624918
0.40900002 22008.94104437  1488.90493220
0.41000002 22025.21298110  1357.85444462
0.41100002 22045.14633002  1498.62911852
0.41200002 22068.14724275  1777.25832241
0.41300002 22096.40067047  1372.18654665
0.41400002 22127.43247301  1515.17601038
0.41500002 22162.06195474  1521.20400465
0.41600002 22199.21194460  1527.41685022
0.41700002 22241.01398247  1673.41397133
0.41800002 22286.42755984  1680.84244621
0.41900002 22333.03875326  1688.37780975
0.42000002 22383.31502500  1554.85705189
0.42100002 22437.07418404  1562.29354946
0.42200002 22493.10227647  1569.90614778
0.42300002 22551.43561128  1577.69851012
0.42400002 22612.24870933  1441.53092353
0.42500002 22675.92550247  1738.79004992
0.42600002 22740.49833085  1747.83478453
0.42700002 22808.56425094  1757.17187316
0.42800002 22877.72670900  1619.39996183
0.42900002 22949.74175358  2072.36177855
0.43000002 23023.27477869  1637.30026347
0.43100002 23097.03498787  1646.35673195
0.43200002 23173.68310600  1505.13078906
0.43300002 23250.93819009  1816.36337748
0.43400002 23330.04466935  2283.42823022
0.43500002 23409.79268816  2143.40072010
0.43600002 23491.35613969  1539.85846793
0.43700002 23573.06220413  2168.25036429
0.43800002 23655.29615087  2025.01172296
0.43900002 23739.22757683  1566.78909432
0.44000002 23823.19278511  2363.85641612
0.44100002 23908.04382272  1743.61371862
0.44200002 23993.04629860  2232.07320294
0.44300002 24078.52521753  2084.71881213
0.44400002 24164.06246326  1935.54149503
0.44500002 24249.21577189  1946.72713442
0.44600002 24334.31442355  2284.26220319
0.44700002 24420.29784989  2133.35732127
0.44800002 24505.01282259  2145.53649936
0.44900002 24590.07780794  2821.71156219
0.45000002 24674.95375596  1836.18677077
0.45100002 24758.43164979  1846.48391995
0.45200002 24841.90830616  2025.60929928
0.45300002 24924.25450396  2036.81017459
0.45400002 25005.97850098  1706.65811358
0.45500002 25087.35751678  2059.17040257
0.45600002 25167.23265052  2587.82081994
0.45700002 25246.50697172  1734.43511116
0.45800002 25324.21478443  2441.00117876
0.45900002 25400.70100356  1927.91329754
0.46000002 25476.45586630  2466.37580931
0.46100002 25550.05523396  2124.74269396
0.46200002 25622.91084783  1957.46236699
0.46300002 25694.19749785  1967.14785367
0.46400002 25763.26432029  1796.98777151
0.46500002 25831.89187058  1986.21426007
0.46600002 25897.78023416  1995.55355052
0.46700002 25961.96951686  2369.28945040
0.46800002 26025.03354673  2380.11955582
0.46900002 26085.50828808  2206.83410577
0.47000002 26144.23390893  2401.21727718
0.47100002 26201.29425926  2597.07241007
0.47200002 26256.21168977  2049.16613845
0.47300002 26308.95384811  2057.62337799
0.47400002 26359.06858254  1878.08372552
0.47500002 26407.45618114  2074.04170677
0.47600002 26454.18577699  2082.07679026
0.47700002 26497.56073825  2469.83775348
