# SAXS profile: number of points = 501, q_min = 0, q_max = 0.5, delta_q = 0.001
#    q    intensity    error
0.00000000 1646666.22097351 296.39991978
0.00100000 1646585.57280095 691.56595700
0.00200000 1646343.56580330 1037.19647930
0.00300000 1645940.42253489 1086.32071757
0.00400000 1645376.01518824 1234.03205828
0.00500000 1644650.82726438 1776.22296375
0.00600000 1643764.80793154 2416.33436603
0.00700000 1642718.47557726 2562.64092840
0.00800000 1641511.65726592 2216.04083087
0.00900000 1640145.56759115 2952.26214787
0.01000000 1638619.62288808 2703.72249451
0.01100000 1636935.04804515 3830.42817920
0.01200000 1635091.78400975 3826.11494233
0.01300000 1633090.98145192 3772.44033354
0.01400000 1630932.57699390 4770.47799919
0.01500000 1628618.16870274 5081.28891262
0.01600000 1626146.95106285 5390.67738376
0.01700000 1623521.28221604 4821.85842448
0.01800000 1620741.06984411 5542.93470829
0.01900000 1617806.87795975 6309.44710874
0.02000000 1614720.10963924 6103.64229054
0.02100000 1611482.52300344 6381.47108042
0.02200000 1608092.67349159 7212.29596828
0.02300000 1604554.08744510 8086.95296883
0.02400000 1600865.74814638 9004.87024392
0.02500000 1597030.67638585 7474.10390683
0.02600000 1593048.55782053 6451.84695427
0.02700000 1588921.63750216 8008.16541979
0.02800000 1584649.71656210 8271.87189980
0.02900000 1580235.22012051 7822.16469874
0.03000000 1575679.79658938 8792.29366911
0.03100000 1570983.25425142 9048.86396085
0.03200000 1566147.36624638 8527.67280198
0.03300000 1561175.96706543 8758.19757899
0.03400000 1556067.05826318 9803.22291938
0.03500000 1550823.81170588 13399.11835188
0.03600000 1545447.45300681 8577.23376057
0.03700000 1539939.78846644 10533.18864024
0.03800000 1534302.33303185 11668.36978271
0.03900000 1528537.03574765 11005.46716705
0.04000000 1522644.01084316 11237.11332074
0.04100000 1516626.97811509 9554.75040515
0.04200000 1510486.70502564 13639.69557917
0.04300000 1504224.26947275 10920.66870329
0.04400000 1497843.03988464 11121.48508765
0.04500000 1491344.44206573 11319.30484123
0.04600000 1484728.15156375 12560.80074614
0.04700000 1477999.01084521 13834.07138491
0.04800000 1471156.95352009 10813.00411148
0.04900000 1464205.56163006 13177.85066807
0.05000000 1457144.73835246 12261.87354422
0.05100000 1449978.92591558 12440.81976390
0.05200000 1442706.53628656 18351.22799676
0.05300000 1435333.47771076 17439.30256717
0.05400000 1427859.60948839 14135.81079314
0.05500000 1420287.30487409 15509.53809273
0.05600000 1412617.87416718 13285.67172651
0.05700000 1404856.40597287 17111.15182347
0.05800000 1397001.72863142 13599.81246323
0.05900000 1389056.12086338 21252.55964183
0.06000000 1381023.78019247 13900.00499703
0.06100000 1372906.12818019 16598.43586537
0.06200000 1364704.78873394 25792.92171272
0.06300000 1356423.48225038 20834.66566150
0.06400000 1348060.42093558 18401.02560633
0.06500000 1339621.72411645 18567.15796478
0.06600000 1331108.79486038 18728.70161997
0.06700000 1322522.63730304 13489.73153180
0.06800000 1313866.59919374 16318.22392583
0.06900000 1305143.67286057 20556.01380996
0.07000000 1296353.66829559 15186.78393526
0.07100000 1287500.43137182 22248.00849615
0.07200000 1278586.12707841 18200.67437160
0.07300000 1269612.99713476 19729.78689992
0.07400000 1260583.89167728 19854.19722437
0.07500000 1251500.32258826 18547.23565011
0.07600000 1242363.13103917 20089.01277069
0.07700000 1233177.57109684 17313.81391002
0.07800000 1223944.15237729 20305.23444018
0.07900000 1214664.28984637 21863.95824274
0.08000000 1205343.12030990 14644.91959877
0.08100000 1195980.46454592 14710.56040411
0.08200000 1186578.67695163 17727.48626552
0.08300000 1177141.20323928 16315.17784260
0.08400000 1167669.31374965 20842.89822877
0.08500000 1158165.60806726 14940.33704544
0.08600000 1148632.28570597 17987.58243870
0.08700000 1139072.33974851 18042.90670887
0.08800000 1129485.70434674 19602.22531953
0.08900000 1119877.85472736 18142.02209871
0.09000000 1110248.37857541 22732.33661919
0.09100000 1100599.79739520 18225.93350114
0.09200000 1090934.16528550 18262.23878496
0.09300000 1081256.97631154 16770.29649066
0.09400000 1071564.28222437 16796.77091327
0.09500000 1061862.20813651 18348.97981905
0.09600000 1052151.59867378 22963.20972050
0.09700000 1042436.83007190 15323.82212247
0.09800000 1032718.09144986 23003.79656863
0.09900000 1022998.21172391 18413.96867690
0.10000000 1013277.03610377 15351.14781889
0.10100000 1003558.12018695 16889.88395711
0.10200000 993843.69004584 18425.86288013
0.10300000 984134.72918309 23028.75374617
0.10400000 974434.88194855 21486.29015779
0.10500000 964746.31515727 16873.41384598
0.10600001 955066.66424967 16861.70275073
0.10700001 945403.00379375 16847.08232039
0.10800001 935754.06915422 15299.57975070
0.10900001 926123.48202350 16809.14198986
0.11000001 916511.40335890 22889.87337630
0.11100001 906920.86953808 21330.77985565
0.11200001 897352.72818614 16731.14240468
0.11300001 887809.10439735 19735.99731994
0.11400001 878292.10839438 19695.70145810
0.11500001 868803.52408003 18140.61843700
0.11600001 859344.11425139 28654.83083911
0.11700001 849916.96517827 16547.88409134
0.11800001 840520.82664683 18003.95695473
0.11900001 831159.17215458 22441.29870520
0.12000001 821832.31214238 22374.38575202
0.12100001 812545.40111903 19330.45600324
0.12200001 803296.25353958 19267.06154884
0.12300001 794087.85222894 14770.03474734
0.12400001 784920.40152584 23547.61315528
0.12500001 775794.94428305 23460.04022057
0.12600001 766716.30104464 21908.91933477
0.12700001 757682.26708250 24730.75036304
0.12800001 748694.98909918 15935.97359403
0.12900001 739756.42576119 15867.77608046
0.13000001 730867.81900001 15797.70865231
0.13100001 722028.94343007 18585.02587994
0.13200001 713241.99876869 19920.84996468
0.13300001 704508.66706397 24073.06228845
0.13400001 695828.58063165 16908.63530652
0.13500001 687204.39340594 19626.55840103
0.13600001 678635.96508084 18129.76066197
0.13700001 670125.18345877 22194.54712270
0.13800001 661670.85199222 16555.00549751
0.13900001 653277.29332756 23322.00047162
0.14000001 644942.28816072 19096.74205305
0.14100001 636669.55609831 21697.69949516
0.14200001 628457.73117835 17524.54466046
0.14300001 620309.31456835 16078.41819199
0.14400001 612221.29528020 15978.97656054
0.14500001 604199.99381346 14555.17853756
0.14600001 596242.57565731 24979.58388556
0.14700001 588351.42923261 13061.40234516
0.14800001 580523.99274155 18164.59658986
0.14900001 572764.30779731 19330.79630020
0.15000001 565071.70774084 15358.64974106
0.15100001 557446.53046280 12709.78149426
0.15200001 549890.73192215 18929.98933967
0.15300001 542403.32346855 15035.42083606
0.15400001 534983.50521656 18657.55062490
0.15500001 527634.87149675 13581.32223327
0.15600001 520354.41479739 12254.34704682
0.15700001 513147.17301482 19458.54171910
0.15800001 506007.64161702 18102.42423326
0.15900001 498941.09251661 15566.96282129
0.16000001 491943.41025016 13068.47731016
0.16100001 485019.78410864 18857.57009630
0.16200001 478167.24582183 11691.18971224
0.16300001 471386.06846754 12755.70761490
0.16400001 464677.38552185 12650.84241807
0.16500001 458040.24639698 14826.76347586
0.16600001 451475.97258198 11309.47364713
0.16700001 444983.37207765 13456.29780696
0.16800001 438563.37028717 13341.09835405
0.16900001 432216.83145831 13225.83566712
0.17000001 425941.20727987 12017.93173088
0.17100001 419739.05441731 12995.12173841
0.17200001 413608.84375388 15026.41000317
0.17300001 407550.78960432 11700.78372210
0.17400001 401566.17192905 13703.44626424
0.17500001 395652.22252551 18801.39450236
0.17600001 389809.18803807 12419.32131745
0.17700001 384040.94457576 11279.28307492
0.17800001 378342.17210375 13206.03414103
0.17900001 372714.87621276 11069.63234638
0.18000001 367159.67413427 13955.73987304
0.18100001 361676.09086061 10861.13352159
0.18200001 356261.09203300 12713.17766974
0.18300001 350916.92682360 10653.83840164
0.18400001 345643.21833562 12469.07969051
0.18500001 340439.34685137 12347.73569363
0.18600001 335305.02301806 13167.42887599
0.18700001 330239.10961252 11175.29199726
0.18800001 325240.49783595 11986.73911407
0.18900001 320313.42666402 10041.82640037
0.19000001 315450.16008763 12652.70651894
0.19100001 310657.13429627 9841.61847952
0.19200001 305929.46776418 9742.32436129
0.19300001 301270.12384330 9643.65711991
0.19400001 296674.73665589 9545.51010297
0.19500001 292145.96661559 12883.63773657
0.19600001 287681.11599012 11051.27059300
0.19700001 283282.42772467 9254.83735113
0.19800001 278946.46865155 9991.86297930
0.19900001 274674.30474048 9888.27543798
0.20000001 270463.85193593 8969.93407338
0.20100001 266317.21438030 8069.41197710
0.20200001 262231.06058856 8783.42978955
0.20300001 258206.66515493 8691.23675990
0.20400001 254243.43618454 14072.37485796
0.20500001 250339.18738605 8509.02938145
0.20600001 246493.84119200 8418.99754386
0.20700001 242708.17217868 9086.99439590
0.20800001 238979.67062618 8990.41563394
0.20900001 235311.37467113 10377.23211354
0.21000001 231696.75805148 10266.48383458
0.21100001 228139.94858484 10156.79099114
0.21200001 224637.57244515 9330.32201260
0.21300001 221190.25643231 7100.20756714
0.21400001 217797.41520711 9833.55376150
0.21500001 214459.29056054 8338.17761120
0.21600001 211172.55688934 8935.76716724
0.21700001 207938.62998273 7479.55287411
0.21800001 204756.50505951 8071.50181107
0.21900001 201624.67358179 7318.97599707
0.22000001 198542.44431259 8556.18704221
0.22100001 195511.49221509 7161.58629846
0.22200001 192528.59093624 9660.12250700
0.22300001 189593.49825170 8281.44439523
0.22400001 186705.80181663 6931.45322021
0.22500001 183866.80825267 8103.01062286
0.22600001 181072.11849067 6165.50592616
0.22700001 178323.82254681 6708.54252145
0.22800001 175620.17606709 6635.80866650
0.22900001 172959.64553120 7757.24046892
0.23000001 170343.58133707 8263.36752145
0.23100001 167771.37248374 8173.82165397
0.23200001 165239.49231519 7507.65668840
0.23300001 162750.33343992 7426.29806609
0.23400001 160301.13885598 7910.86157669
0.23500001 157891.85407254 6707.24627823
0.23600001 155522.48691583 6634.58960563
0.23700001 153192.18899581 6562.75368698
0.23800001 150899.83508252 6491.71121230
0.23900001 148645.07735429 5886.34534165
0.24000001 146426.69893744 6881.32304205
0.24100001 144245.97038013 6283.35476697
0.24200001 142100.76535089 6733.44508466
0.24300001 139989.97050372 6660.72311164
0.24400001 137913.87740082 6082.00228108
0.24500001 135871.06943752 6016.37123929
0.24600001 133862.02607346 6447.46479083
0.24700001 131885.90268808 6378.00255571
0.24800001 129941.59845035 7279.97839757
0.24900001 128027.72628749 5761.24795549
0.25000001 126146.09791872 5224.34089246
0.25100001 124293.86380178 4698.30827398
0.25200001 122473.27507764 5112.64710999
0.25300001 120680.25459155 6437.08508445
0.25400001 118917.23884002 5913.15998108
0.25500001 117180.65234686 7199.57962082
0.25600001 115473.07938251 4896.63616289
0.25700001 113791.57807022 4403.73427967
0.25800001 112136.98206540 5663.47854718
0.25900001 110509.23723641 4740.84650175
0.26000001 108906.21621035 4263.67856637
0.26100001 107327.92285429 5483.38383808
0.26200001 105775.76666919 5424.71045031
0.26300001 104245.97365807 5779.39705307
0.26400001 102741.22672949 4900.75674689
0.26500001 101259.27965667 4444.26999443
0.26600001 99799.87150619  4796.38205155
0.26700001 98363.06735060  5931.29324191
0.26800001 96948.55884951  4303.06198816
0.26900001 95554.73469693  5030.95701987
0.27000001 94182.75534105  5742.79377868
0.27100001 92830.95598039  4166.25350156
0.27200001 91500.27280085  5245.71088792
0.27300001 90189.17622586  3706.77531830
0.27400001 88896.43486432  5500.46716754
0.27500001 87624.74042524  4353.19731034
0.27600001 86369.72342063  3947.52839576
0.27700001 85135.10928863  6390.24160563
0.27800001 83917.46656888  3863.14075633
0.27900001 82718.07610615  4168.99123306
0.28000001 81535.77838986  6186.11979922
0.28100001 80370.91445760  4759.56577944
0.28200001 79223.17237342  3699.32620906
0.28300001 78091.81067705  3992.05355076
0.28400001 76976.00518553  4607.01412841
0.28500001 75876.73340249  3580.62321874
0.28600001 74793.08499973  3541.82670780
0.28700001 73725.41065240  4777.40683640
0.28800001 72671.28636324  4410.42057814
0.28900001 71633.87475732  3427.68106938
0.29000001 70610.20874982  3390.34933360
0.29100001 69601.64684912  3048.55227629
0.29200001 68606.73534188  3316.79277710
0.29300001 67626.15386485  3877.00758459
0.29400001 66658.56769372  2949.64176007
0.29500001 65705.94752427  3209.07862899
0.29600001 64765.25609043  3173.82152495
0.29700001 63838.21402318  3424.28196230
0.29800001 62924.39209454  4233.23867856
0.29900001 62023.56277983  4186.59068583
0.30000001 61134.50752542  3588.29008907
0.30100001 60258.88151467  3821.61844658
0.30200001 59394.49285815  3509.32377666
0.30300001 58543.12829335  3203.48013187
0.30400001 57703.29515613  2903.91846621
0.30500001 56875.95059297  2610.60625581
0.30600001 56058.98213225  2581.51624941
0.30700001 55254.41579087  3573.85578255
0.30800001 54461.01729426  2524.26827110
0.30900001 53679.13401197  2496.07984973
0.31000001 52908.23913163  2961.80336681
0.31100001 52147.97854466  2684.57806258
0.31200001 51399.62161626  2654.53358405
0.31300001 50661.22418942  2386.14377230
0.31400001 49934.96791482  2595.37008026
0.31500001 49218.00336925  2799.52016419
0.31600002 48512.72213062  3460.17006980
0.31700002 47816.99884574  2280.87095294
0.31800002 47131.57977893  2255.24619920
0.31900002 46457.11776839  2675.93011016
0.32000002 45792.90241393  2204.92835563
0.32100002 45138.44492278  3052.26179020
0.32200002 44495.03887757  2371.36320926
0.32300002 43859.90788907  2131.59162434
0.32400002 43235.93298457  3161.62774920
0.32500002 42621.48308889  2084.19062174
0.32600002 42017.15931984  2473.13011467
0.32700002 41422.51447207  2241.78658938
0.32800002 40838.48482280  2015.37932144
0.32900002 40262.01296705  1992.96973624
0.33000002 39696.65528479  2168.03293104
0.33100002 39139.84113187  2338.99701680
0.33200002 38593.96184233  2313.32218238
0.33300002 38056.67856644  2287.96762376
0.33400002 37529.55051475  2074.44600294
0.33500002 37011.24212659  2238.44002982
0.33600002 36501.86398925  2583.23703685
0.33700002 36001.90560289  2007.82637056
0.33800002 35511.91212747  2889.24930752
0.33900002 35030.32761012  2679.82018908
0.34000002 34558.06750439  1767.64523656
0.34100002 34094.91386110  3323.23141142
0.34200002 33641.67154671  1903.95049136
0.34300002 33196.74007267  2398.13261642
0.34400002 32761.47157119  1864.94685751
0.34500002 32334.70771281  1678.17140977
0.34600002 31917.46296054  1993.56483093
0.34700002 31508.00133430  1973.66129706
0.34800002 31108.38874483  1791.37665071
0.34900002 30716.95857147  2257.69656193
0.35000002 30334.75456747  1756.83739398
0.35100002 29962.02846730  2372.99276700
0.35200002 29596.34862699  1723.83940743
0.35300002 29240.62797902  2018.48064499
0.35400002 28892.97037363  1846.26089432
0.35500002 28554.39804237  1677.28542045
0.35600002 28223.58501252  1662.51035391
0.35700002 27901.51239295  2097.63580106
0.35800002 27587.95210872  1931.29467885
0.35900002 27283.47472860  1915.30001667
0.36000002 26987.02238741  2338.15573039
0.36100002 26698.20974318  1449.71285772
0.36200002 26419.18372536  2301.63939517
0.36300002 26147.02552883  1570.39042765
0.36400002 25883.55454809  1700.54961436
0.36500002 25627.27030563  1547.63092706
0.36600002 25380.16856547  1536.89618028
0.36700002 25140.33884589  1387.74677003
0.36800002 24909.34042435  1792.35167514
0.36900002 24685.98987062  1644.08700326
0.37000002 24469.87977937  1497.92376165
0.37100002 24261.43279604  1353.78801415
0.37200002 24061.38753404  1750.10510519
0.37300002 23868.69942899  1740.74433182
0.37400002 23683.33067443  1731.84363761
0.37500002 23505.75932318  1325.72488863
0.37600002 23335.68219407  1451.59617965
0.37700002 23172.69247662  1576.67007080
0.37800002 23017.07455924  1570.22490082
0.37900002 22869.47565820  1433.91619170
0.38000002 22728.17655591  2078.26456273
0.38100002 22593.29357146  1294.59578297
0.38200002 22466.71062355  1548.85510376
0.38300002 22345.91567364  1673.26224491
0.38400002 22232.58906766  1925.89811922
0.38500002 22125.32159278  1665.37303518
0.38600002 22025.68348249  1790.02738142
0.38700002 21931.71248281  1659.35344506
0.38800002 21844.29455102  1656.99904167
0.38900002 21763.24986118  1400.46519491
0.39000002 21688.98573504  1399.26498099
0.39100002 21620.07232071  1398.38634395
0.39200002 21557.87172422  1397.92025819
0.39300002 21501.12052921  1397.78791183
0.39400002 21451.45817641  1270.99895717
0.39500002 21406.38927476  1398.69354148
0.39600002 21367.17790595  1399.65705504
0.39700002 21332.99651136  1400.93794727
0.39800002 21305.42695599  1785.18180922
0.39900002 21282.24580343  1404.62828958
0.40000002 21264.68739185  1662.79230939
0.40100002 21251.95280684  1409.64209647
0.40200002 21244.73246485  1541.09296602
0.40300002 21242.13043721  1544.72779858
0.40400002 21244.35844510  1806.83277136
0.40500002 21250.92825225  1941.27238782
0.40600002 21263.05631205  1817.35350910
0.40700002 21278.97723432  1432.50081529
0.40800002 21299.21210229  1437.37739683
0.40900002 21323.29241257  1442.52080006
0.41000002 21352.27181914  1448.00438202
0.41100002 21384.89966244  1850.22160646
0.41200002 21420.60147035  1725.10822115
0.41300002 21461.52820210  2532.24583255
0.41400002 21505.20222408  1472.56879207
0.41500002 21552.43443096  1479.35916944
0.41600002 21602.32989577  1891.71611861
0.41700002 21656.77508064  1493.66784809
0.41800002 21714.73698621  1774.20266953
0.41900002 21773.94154433  1920.46173521
0.42000002 21836.71059463  1792.68484121
0.42100002 21902.99866209  1525.10586911
0.42200002 21971.63533026  1812.33042609
0.42300002 22042.44009774  2243.03881063
0.42400002 22115.71413293  1409.87684278
0.42500002 22191.72523741  1701.66157184
0.42600002 22268.77423694  1711.57806896
0.42700002 22349.15350283  2008.74201202
0.42800002 22430.71663010  2020.78335696
0.42900002 22515.05473391  2178.33164873
0.43000002 22600.80989264  1753.37091456
0.43100002 22686.75449711  1617.11193719
0.43200002 22775.58524451  1775.12919808
0.43300002 22864.98373044  1488.51051139
0.43400002 22956.18602924  1947.25857221
0.43500002 23047.94304036  1959.53621015
0.43600002 23141.51931283  2123.69732798
0.43700002 23235.14081285  2137.16835324
0.43800002 23329.27001142  1536.23250305
0.43900002 23425.10158967  3092.11355637
0.44000002 23520.80916286  1867.08191983
0.44100002 23617.38246291  1878.99903780
0.44200002 23714.12656553  2206.12529894
0.44300002 23811.23339387  2220.15950686
0.44400002 23908.31192783  2393.81984522
0.44500002 24004.91873890  1927.11496769
0.44600002 24101.44583103  1616.00201955
0.44700002 24198.78797840  1788.77449214
0.44800002 24294.76451132  2127.12820760
0.44900002 24390.96379118  2469.58520090
0.45000002 24487.02678789  1987.85692885
0.45100002 24581.50674413  1833.28885986
0.45200002 24675.94390593  1676.73046787
0.45300002 24769.22645892  2192.81972233
0.45400002 24861.80693137  2375.54576488
0.45500002 24953.84838656  2389.58063475
0.45600002 25044.38524194  2231.83049661
0.45700002 25134.16991531  1726.71755502
0.45800002 25222.31698710  1910.21226755
0.45900002 25309.23759032  1746.33747650
0.46000002 25395.32043253  2458.52108759
0.46100002 25479.10389792  2648.55297572
0.46200002 25562.08241459  2130.34404940
0.46300002 25643.30591327  2141.72901138
0.46400002 25722.27526408  1794.12878470
0.46500002 25800.74863750  1803.47241524
0.46600002 25876.34157559  2175.16537594
0.46700002 25950.16760326  2368.21240772
0.46800002 26022.71940812  2013.76823684
0.46900002 26092.64590752  2207.43794840
0.47000002 26160.61938372  2402.72220118
0.47100002 26226.81865268  2785.28827293
0.47200002 26290.82620087  2611.46789031
0.47300002 26352.44817486  1873.65915404
0.47400002 26411.46165943  2258.18007891
0.47500002 26468.57166275  2267.82732755
0.47600002 26523.92790262  3036.45941021
0.47700002 26575.78842253  2096.03253223
