# SAXS profile: number of points = 501, q_min = 0, q_max = 0.5, delta_q = 0.001
#    q    intensity    error
0.00000000 1646666.22097351 246.99993315
0.00100000 1646585.57106387 642.16838797
0.00200000 1646343.55565094 1111.28193525
0.00300000 1645940.39971778 1975.12855002
0.00400000 1645375.96528094 1357.43522294
0.00500000 1644650.75560839 1480.18573864
0.00600000 1643764.70029417 2934.12010948
0.00700000 1642718.33501753 2759.76691753
0.00800000 1641511.47268881 2659.24869803
0.00900000 1640145.33391354 2706.23991664
0.01000000 1638619.33543223 3514.83862627
0.01100000 1636934.70834621 4125.07564464
0.01200000 1635091.36464378 4144.95679110
0.01300000 1633090.48956872 4115.38821522
0.01400000 1630932.00383546 5137.43603983
0.01500000 1628617.52859549 5081.28691548
0.01600000 1626146.21858174 5390.67495558
0.01700000 1623520.45387264 4383.50542209
0.01800000 1620740.10078627 6004.84234362
0.01900000 1617805.86692020 5338.75960174
0.02000000 1614718.98691744 5595.00154276
0.02100000 1611481.27218435 6913.25497111
0.02200000 1608091.26675481 8876.66419577
0.02300000 1604552.59426020 6354.02856250
0.02400000 1600864.11781912 10205.50921644
0.02500000 1597028.91081841 9965.46085864
0.02600000 1593046.64079815 7742.20702839
0.02700000 1588919.60979982 8008.15520017
0.02800000 1584647.56293507 8271.86065787
0.02900000 1580232.88263450 9955.46761769
0.03000000 1575677.29814021 8059.58975045
0.03100000 1570980.55028231 11311.06048249
0.03200000 1566144.49979177 7752.41563103
0.03300000 1561172.96220225 7961.98247428
0.03400000 1556063.90268773 8986.26945265
0.03500000 1550820.45363827 15911.41858909
0.03600000 1545443.95115292 8577.21432528
0.03700000 1539936.01316760 10533.16281720
0.03800000 1534298.41709379 10770.77538647
0.03900000 1528532.94946986 10088.31793369
0.04000000 1522639.75401520 10300.65841323
0.04100000 1516622.49730938 9554.72217607
0.04200000 1510481.96471751 14613.91368662
0.04300000 1504219.36206025 10920.63307547
0.04400000 1497837.90825257 12132.48762030
0.04500000 1491339.06470602 11319.26402707
0.04600000 1484722.59632121 11514.02426972
0.04700000 1477993.24418762 15962.32777960
0.04800000 1471151.06057401 11894.25687816
0.04900000 1464199.39719485 13177.79518815
0.05000000 1457138.30029947 12261.81936801
0.05100000 1449972.29671317 11309.78444122
0.05200000 1442699.71158949 16057.24853828
0.05300000 1435326.39321120 12788.75875970
0.05400000 1427852.23860427 12957.75966960
0.05500000 1420279.76130216 11930.35055148
0.05600000 1412610.03733135 16908.94293590
0.05700000 1404848.39966571 17111.05430665
0.05800000 1396993.44548110 13599.73182676
0.05900000 1389047.59903224 13751.57187270
0.06000000 1381015.10640292 15163.54657673
0.06100000 1372897.28995216 15321.53447186
0.06200000 1364695.53528863 14186.01075243
0.06300000 1356414.08368956 16928.04855592
0.06400000 1348050.79737895 14457.84547804
0.06500000 1339611.87650797 13262.15819780
0.06600000 1331098.60312663 18728.55822227
0.06700000 1322512.21762716 18885.47535154
0.06800000 1313855.94022169 16318.09154139
0.06900000 1305132.83759183 19185.45361084
0.07000000 1296342.58807829 17947.86397241
0.07100000 1287489.16124639 18076.34867056
0.07200000 1278574.58759387 16800.47086803
0.07300000 1269601.29869432 16911.09009099
0.07400000 1260571.86767997 15599.57759360
0.07500000 1251488.14450648 17120.35861932
0.07600000 1242350.72303252 15784.06667609
0.07700000 1233164.88736441 15870.83284454
0.07800000 1223931.18711266 15953.94377219
0.07900000 1214651.16160736 16033.39608524
0.08000000 1205329.76548083 17573.70880511
0.08100000 1195966.96699903 14710.39438427
0.08200000 1186564.95050377 22159.10149048
0.08300000 1177127.18174403 16314.98350467
0.08400000 1167655.17992613 14887.60424286
0.08500000 1158151.25701294 16434.16710852
0.08600000 1148617.65358168 16488.40719132
0.08700000 1139057.52514332 18042.67204551
0.08800000 1129470.78448723 21109.80995346
0.08900000 1119862.57591264 21165.40367888
0.09000000 1110232.97209315 15154.68078097
0.09100000 1100584.33161608 22782.09673478
0.09200000 1090918.42766463 22827.46917147
0.09300000 1081240.99140289 15245.49869520
0.09400000 1071548.34192823 18323.47750813
0.09500000 1061846.06740911 21406.81772515
0.09600000 1052135.12072697 16839.42339882
0.09700000 1042420.31017369 18388.29513595
0.09800000 1032701.33388414 16869.17708215
0.09900000 1022981.41859486 18413.66640056
0.10000000 1013260.07742535 15350.89089490
0.10100000 1003541.11870185 21495.85177358
0.10200000 993826.37571517 23031.92734054
0.10300000 984117.31436812 21493.12315685
0.10400000 974417.36360520 16881.78161867
0.10500000 964728.70672692 15339.18715866
0.10600001 955048.91210407 18394.24291264
0.10700001 945385.10697469 16846.76339906
0.10800001 935736.16878089 19889.07320345
0.10900001 926105.39895563 18336.88776236
0.11000001 916493.13832395 16785.57261849
0.11100001 906902.58358527 15235.96412144
0.11200001 897334.35873920 21293.74533533
0.11300001 887790.72078232 21253.71085617
0.11400001 878273.57014233 16665.24177812
0.11500001 868784.95057628 24186.97416296
0.11600001 859325.56742805 16589.28086041
0.11700001 849898.33568976 21060.48175023
0.11800001 840502.16221369 19503.85359277
0.11900001 831140.40458892 19448.68638345
0.12000001 821813.48679081 17899.09858544
0.12100001 812526.60800934 16356.16138974
0.12200001 803277.40227476 19266.60940123
0.12300001 794069.09270278 16246.65440215
0.12400001 784901.58079572 14716.90533334
0.12500001 775776.07896486 14662.16858332
0.12600001 766697.45605786 17526.70467140
0.12700001 757663.47046230 14547.13931843
0.12800001 748676.18794617 21730.32737927
0.12900001 739737.72779330 23079.81819495
0.13000001 730849.07422357 20105.65897957
0.13100001 722010.37737819 15725.38676055
0.13200001 713223.36806612 14228.80686367
0.13300001 704490.26446075 22656.40797315
0.13400001 695810.06507747 15499.16993032
0.13500001 687185.96804319 22429.75105445
0.13600001 678617.63882370 15340.15244891
0.13700001 670106.87074466 15258.33416634
0.13800001 661652.55167398 19313.63889411
0.13900001 653259.12019542 17833.97482235
0.14000001 644924.28642930 20460.22395189
0.14100001 636651.57221796 16272.81495337
0.14200001 628439.98677689 22916.06519866
0.14300001 620291.65037456 18757.62039208
0.14400001 612203.80176259 13315.43331642
0.14500001 604182.64536276 21170.56089217
0.14600001 596225.36073001 18405.47775400
0.14700001 588334.38655231 16979.33119693
0.14800001 580507.02215074 12974.33255718
0.14900001 572747.48060953 18041.54649041
0.15000001 565054.91090216 20477.59093729
0.15100001 557430.05339574 13980.34639883
0.15200001 549874.42459636 13881.58050397
0.15300001 542387.20721146 12529.14507782
0.15400001 534967.61760381 19900.79631400
0.15500001 527619.05623229 12346.28649849
0.15600001 520338.91145359 15930.17652598
0.15700001 513131.85380650 18241.83826378
0.15800001 505992.48534395 21722.25842108
0.15900001 498926.26696212 13171.65406951
0.16000001 491928.71136271 16632.11051625
0.16100001 485005.31149726 12964.19258829
0.16200001 478152.92399050 15198.09140648
0.16300001 471372.06788744 12755.32875919
0.16400001 464663.63500478 11500.42550930
0.16500001 458026.75140721 14826.32664302
0.16600001 451462.71879566 12440.05580375
0.16700001 444970.43020971 14577.23198193
0.16800001 438550.66731341 12228.98593544
0.16900001 432204.42584913 14327.57739342
0.17000001 425929.01561556 14202.60369634
0.17100001 419727.07412050 14077.64673077
0.17200001 413597.17675459 12879.41669234
0.17300001 407539.36817579 13827.81141522
0.17400001 401555.11935441 10540.82238085
0.17500001 395641.40696036 10444.93363704
0.17600001 389798.72655515 11384.07234670
0.17700001 384030.71572885 17431.15501022
0.17800001 378332.25620598 12189.86587071
0.17900001 372705.21359951 13081.95361525
0.18000001 367150.34997170 10964.94571983
0.18100001 361667.16792548 22709.08254674
0.18200001 356252.34596368 17602.42924557
0.18300001 350908.58147638 13559.10822877
0.18400001 345635.19469495 12468.79023765
0.18500001 340431.58112700 9498.04156215
0.18600001 335297.63962759 13167.13893024
0.18700001 330232.11771022 11175.05539128
0.18800001 325233.69919983 10142.41338874
0.18900001 320307.00726720 9128.75013843
0.19000001 315444.01271035 12652.45994763
0.19100001 310651.39725124 9841.43672993
0.19200001 305924.03856015 9742.15146828
0.19300001 301265.00079579 11396.85551864
0.19400001 296669.96514142 11280.87595757
0.19500001 292141.65395372 12024.55104496
0.19600001 287677.04034448 11051.11402707
0.19700001 283278.68544567 9254.71509087
0.19800001 278942.98997951 10824.38323770
0.19900001 274671.17213346 9888.16266412
0.20000001 270461.08692211 8154.40215609
0.20100001 266314.82078125 8876.27339615
0.20200001 262228.98619792 13574.28411210
0.20300001 258204.96206619 10271.39387647
0.20400001 254241.93921315 8599.73400036
0.20500001 250338.06387399 11603.16980901
0.20600001 246493.06592701 9949.69307645
0.20700001 242707.79859147 10601.47714360
0.20800001 238979.53249548 10488.81217703
0.20900001 235311.57091796 8153.54631774
0.21000001 231697.34590349 11733.15415121
0.21100001 228140.80077878 7980.36558850
0.21200001 224638.85026403 8612.65392628
0.21300001 221191.84103210 7100.25843280
0.21400001 217799.33065104 10536.04311835
0.21500001 214461.42922762 9033.11582613
0.21600001 211175.06468896 9623.24815285
0.21700001 207941.49569846 8839.59340007
0.21800001 204759.66102600 8744.26173755
0.21900001 201628.18553697 7319.10348105
0.22000001 198546.24852191 7898.17013965
0.22100001 195515.61645415 9114.93847008
0.22200001 192532.96740500 8372.29648349
0.22300001 189598.21443576 6370.50030627
0.22400001 186710.74350818 6931.63668051
0.22500001 183871.99523876 8103.23921335
0.22600001 181077.64373016 7398.83287269
0.22700001 178329.63975342 7318.64876157
0.22800001 175626.26220640 6636.03863129
0.22900001 172966.03347376 8354.25981186
0.23000001 170350.14174922 6492.89595983
0.23100001 167778.25499163 7006.42025980
0.23200001 165246.65378630 5775.37082297
0.23300001 162757.70085057 6284.07512704
0.23400001 160308.76718789 5650.88431063
0.23500001 157899.73551486 6148.61599175
0.23600001 155530.55242016 6634.93368006
0.23700001 153200.57226124 7656.96496378
0.23800001 150908.37958683 7574.09192971
0.23900001 148653.83840067 6956.99996621
0.24000001 146435.71714268 7411.11199514
0.24100001 144255.19071367 6807.40277178
0.24200001 142110.20455193 5697.90892103
0.24300001 139999.60652045 6661.18159334
0.24400001 137923.68487193 5575.56522469
0.24500001 135881.12672536 5515.41519469
0.24600001 133872.20960039 4959.96560033
0.24700001 131896.30380546 5887.85128041
0.24800001 129952.15643016 6309.82725396
0.24900001 128038.39177640 6722.01588626
0.25000001 126156.92740764 5699.77024992
0.25100001 124304.88750888 5638.46996415
0.25200001 122484.43242234 6042.76975944
0.25300001 120691.54476217 5518.01768759
0.25400001 118928.65264462 4549.02117888
0.25500001 117192.17436899 5850.23362129
0.25600001 115484.69487716 6232.70927741
0.25700001 113803.36364227 4844.60941947
0.25800001 112148.84618657 5664.07774464
0.25900001 110521.15971302 4741.35797602
0.26000001 108918.26924144 4690.56548682
0.26100001 107340.01104527 4218.46263368
0.26200001 105787.90496818 5007.99965816
0.26300001 104258.20642211 4541.48768664
0.26400001 102753.41730704 6126.67279684
0.26500001 101271.64301579 5252.96037179
0.26600001 99812.27773608  4796.97829499
0.26700001 98375.57136593  4350.16797165
0.26800001 96960.97061260  4694.85041923
0.26900001 95567.22459002  6579.80372439
0.27000001 94195.33977103  4211.94481718
0.27100001 92843.48069258  4166.81561067
0.27200001 91512.78111087  4496.93827660
0.27300001 90201.75416365  5931.66763451
0.27400001 88908.95043389  4034.24381686
0.27500001 87637.24574720  4716.63678933
0.27600001 86382.17189194  3948.09735317
0.27700001 85147.53910679  3550.65254879
0.27800001 83929.87831421  5619.94491790
0.27900001 82730.42535591  3474.67802940
0.28000001 81548.06229873  4124.70118629
0.28100001 80383.13893185  3740.22763152
0.28200001 79235.37357179  4036.25012078
0.28300001 78103.86863005  3659.94745723
0.28400001 76987.98211044  3620.36003010
0.28500001 75888.65113240  4883.43493151
0.28600001 74804.87176373  4186.45484641
0.28700001 73737.12293389  4778.16579228
0.28800001 72682.87476344  3150.80277013
0.28900001 71645.42659699  4986.52192718
0.29000001 70621.57563022  4623.94788326
0.29100001 69612.87843565  4878.47075169
0.29200001 68617.81128424  3618.90353843
0.29300001 67637.16131070  3281.07885049
0.29400001 66669.42312782  3540.14653567
0.29500001 65716.61738102  4084.94512977
0.29600001 64775.75939218  3462.91226103
0.29700001 63848.54090909  3424.83589649
0.29800001 62934.52372919  3104.87487516
0.29900001 62033.59624278  2791.51196307
0.30000001 61144.30934063  3312.79883690
0.30100001 60268.48401310  3276.19494605
0.30200001 59403.93384481  3509.88159738
0.30300001 58552.36373800  3737.98307799
0.30400001 57712.32069778  3432.44043600
0.30500001 56884.71869733  4177.61393891
0.30600001 56067.58098103  3872.86833962
0.30700001 55262.74711633  3063.76684518
0.30800001 54469.16603885  3786.96894814
0.30900001 53687.07822928  2995.73910702
0.31000001 52915.94268362  2468.52884306
0.31100001 52155.35956132  3173.13222594
0.31200001 51406.85463618  3620.32790916
0.31300001 50668.15819285  2386.47036387
0.31400001 49941.63126103  2359.74218881
0.31500001 49224.46272064  2566.56360777
0.31600002 48518.86842218  2537.77953298
0.31700002 47822.90992252  2737.38349357
0.31800002 47137.20357417  3157.72141695
0.31900002 46462.49991621  2676.24012189
0.32000002 45798.03448523  2425.69301137
0.32100002 45143.29760182  3924.75847934
0.32200002 44499.58815517  2156.00514821
0.32300002 43864.18449175  2558.15936069
0.32400002 43239.90224951  2740.32893482
0.32500002 42625.13980255  2918.11720906
0.32600002 42020.55604625  2267.21920883
0.32700002 41425.63056004  2241.95523207
0.32800002 40841.28828357  2620.17297391
0.32900002 40264.51699202  1993.09368548
0.33000002 39698.89362111  2562.36521011
0.33100002 39141.74761327  2144.18503579
0.33200002 38595.53144933  2506.20095334
0.33300002 38057.96722591  2669.38594763
0.33400002 37530.58134387  1885.91180184
0.33500002 37011.93901819  2051.94199634
0.33600002 36502.23530218  3321.33854743
0.33700002 36001.95402854  1825.29915569
0.33800002 35511.65542649  2347.49809314
0.33900002 35029.74630157  2679.77571898
0.34000002 34557.19688160  2121.12084505
0.34100002 34093.74262061  2448.61271097
0.34200002 33640.13865812  2076.94225911
0.34300002 33194.90837041  2055.42882364
0.34400002 32759.37626196  2373.41692258
0.34500002 32332.29988005  1845.85108757
0.34600002 31914.70545211  1993.39259695
0.34700002 31504.93224759  1644.55754121
0.34800002 31105.02327291  2768.19167728
0.34900002 30713.30242409  1773.69329900
0.35000002 30330.76665931  1596.91494025
0.35100002 29957.76899788  2372.65541701
0.35200002 29591.77401925  2350.32676280
0.35300002 29235.74750475  1552.41826603
0.35400002 28887.81676749  1692.10394730
0.35500002 28548.89441634  1676.96213744
0.35600002 28217.82952984  2115.49078005
0.35700002 27895.45659509  1647.78469912
0.35800002 27581.60784180  1633.79661789
0.35900002 27276.84135245  1914.83435364
0.36000002 26980.10066769  1607.06977239
0.36100002 26690.94360000  2029.04562858
0.36200002 26411.70632739  1725.74097317
0.36300002 26139.28276946  1712.64588818
0.36400002 25875.49403004  1700.02003830
0.36500002 25618.93033494  2109.71901301
0.36600002 25371.58122930  1815.71729668
0.36700002 25131.47158888  1664.70875690
0.36800002 24900.23996770  2067.34252125
0.36900002 24676.68415627  1643.46724266
0.37000002 24460.26458942  1361.21378888
0.37100002 24251.55124534  1759.20761067
0.37200002 24051.25426184  1883.93483557
0.37300002 23858.34129768  1873.83421428
0.37400002 23672.78041599  1331.59396148
0.37500002 23494.96880623  1987.67445517
0.37600002 23324.64977506  1450.90990799
0.37700002 23161.39262567  2101.20163854
0.37800002 23005.60384463  1961.80296079
0.37900002 22857.75993941  1954.33856740
0.38000002 22716.29175598  1428.05974889
0.38100002 22581.25415864  1682.07770196
0.38200002 22454.43154833  1806.01001499
0.38300002 22333.43769136  1415.04667916
0.38400002 22219.93254778  1283.20116542
0.38500002 22112.52029904  1408.34648457
0.38600002 22012.69907312  1405.62096590
0.38700002 21918.50679450  1913.48573381
0.38800002 21830.96665681  1655.98805420
0.38900002 21749.75390857  1272.36066393
0.39000002 21675.34648950  1779.76278457
0.39100002 21606.24235337  1397.49182162
0.39200002 21543.95551406  1270.01623772
0.39300002 21487.06278051  1269.88547049
0.39400002 21437.30719959  1778.22471645
0.39500002 21392.04686416  1397.75640833
0.39600002 21352.74933420  1271.55628309
0.39700002 21318.45563233  1909.06779232
0.39800002 21290.75363760  1911.37749837
0.39900002 21267.54949530  1403.65833319
0.40000002 21249.84359835  1917.26722950
0.40100002 21237.06007058  1408.65426122
0.40200002 21229.80943768  1668.34465371
0.40300002 21227.05361616  1414.99546110
0.40400002 21229.28182845  2063.48629149
0.40500002 21235.78789715  1293.25954421
0.40600002 21247.81081985  1426.89680321
0.40700002 21263.72900146  1431.47430420
0.40800002 21283.94475060  1828.07810125
0.40900002 21307.97366848  1834.61661978
0.41000002 21336.92919578  1841.59044615
0.41100002 21369.52661764  1980.95521132
0.41200002 21405.26790354  1458.66205040
0.41300002 21446.15858338  1464.98716225
0.41400002 21489.83765799  1337.74245760
0.41500002 21537.05261663  1747.08579104
0.41600002 21586.99591728  1755.34665619
0.41700002 21641.47597090  2171.07297227
0.41800002 21699.43504022  1363.80955690
0.41900002 21758.68220758  1507.87674844
0.42000002 21821.50661531  1929.23949128
0.42100002 21887.82945100  1524.04963689
0.42200002 21956.46661605  1811.07923464
0.42300002 22027.42301919  1821.22742153
0.42400002 22100.73456754  1831.59846408
0.42500002 22176.79950539  1700.51706665
0.42600002 22253.91476224  1567.89963887
0.42700002 22334.41319325  1720.64327394
0.42800002 22416.03215822  2163.70760660
0.42900002 22500.46132695  1596.40780680
0.43000002 22586.36694087  2044.29216869
0.43100002 22672.38558572  1469.17065557
0.43200002 22761.36423346  1626.18574472
0.43300002 22850.87685179  2528.90666103
0.43400002 22942.17520707  1796.37240384
0.43500002 23034.12719066  2259.64798449
0.43600002 23127.85739735  2274.04668636
0.43700002 23221.59348433  2288.48814633
0.43800002 23315.85300702  1842.41879193
0.43900002 23411.84289122  2317.77255607
0.44000002 23507.66572022  2021.54180941
0.44100002 23604.44305053  1877.96957810
0.44200002 23701.35260204  2047.44144156
0.44300002 23798.64648433  1743.48892407
0.44400002 23895.91787624  1754.55785321
0.44500002 23992.66583342  2407.66413049
0.44600002 24089.38125038  2261.27032514
0.44700002 24186.93054811  1950.43417183
0.44800002 24283.14948843  2289.65827377
0.44900002 24379.55149671  2303.86772562
0.45000002 24475.74361075  2483.67620061
0.45100002 24570.44770560  1665.87643339
0.45200002 24665.10151768  2178.79184582
0.45300002 24758.61033473  1686.06144370
0.45400002 24851.43380648  1865.72148144
0.45500002 24943.69313241  3071.06764401
0.45600002 25034.50035515  1887.72658875
0.45700002 25124.44907747  2071.25968011
0.45800002 25212.87213371  1909.49696155
0.45900002 25300.04097869  2269.41378335
0.46000002 25386.37680192  2808.74886248
0.46100002 25470.38531325  2824.15645738
0.46200002 25553.61344446  1774.69853783
0.46300002 25635.08758092  1962.62239821
0.46400002 25714.33131666  2869.71951095
0.46500002 25793.02225488  1802.93234107
0.46600002 25868.85693053  2174.53621664
0.46700002 25942.96679469  3642.39271061
0.46800002 26015.78902136  2745.31626660
0.46900002 26085.97124494  2574.68548391
0.47000002 26154.21861022  2032.57519563
0.47100002 26220.66960657  2413.35054497
0.47200002 26284.93657438  1864.91633834
0.47300002 26346.83953482  1873.26037971
0.47400002 26406.16584079  2069.58334587
0.47500002 26463.55653731  1889.49802632
0.47600002 26519.09905169  2466.67411521
0.47700002 26571.27591235  1905.16057322
