# SAXS profile: number of points = 501, q_min = 0, q_max = 0.5, delta_q = 0.001
#    q    intensity    error
0.00000000 1664650.74656091 324.60689558
0.00100000 1664569.64796415 749.05635937
0.00200000 1664326.29349498 1048.52559810
0.00300000 1663920.90092673 1497.52886418
0.00400000 1663353.32673574 1372.26654670
0.00500000 1662624.09862136 1945.27027238
0.00600000 1661733.12829364 1919.30184132
0.00700000 1660680.95060318 2590.66239061
0.00800000 1659467.38176084 2464.30916596
0.00900000 1658093.65409315 3481.99682244
0.01000000 1656559.15864475 3279.98727574
0.01100000 1654865.15961495 3276.63315870
0.01200000 1653011.55526191 4190.38447631
0.01300000 1650999.53260854 4507.22892281
0.01400000 1648829.03759333 4451.83859886
0.01500000 1646501.62486324 5137.08529832
0.01600000 1644016.48934917 5869.13912935
0.01700000 1641376.08835750 4874.88720110
0.01800000 1638580.19246901 6070.93988628
0.01900000 1635629.50979370 5888.26650095
0.02000000 1632525.33933848 6170.94606185
0.02100000 1629269.45665578 6451.90734088
0.02200000 1625860.45812932 6170.14071892
0.02300000 1622301.82038149 7592.37286498
0.02400000 1618592.58531798 6069.72247171
0.02500000 1614735.76970090 10075.95166311
0.02600000 1610731.02254672 7175.80703365
0.02700000 1606580.61285574 6747.63888304
0.02800000 1602284.34471146 9060.91838487
0.02900000 1597844.68340907 9347.39182712
0.03000000 1593263.19333596 11113.01128433
0.03100000 1588539.74680795 8387.49024908
0.03200000 1583676.22154964 7839.19765773
0.03300000 1578676.23719677 11271.74885322
0.03400000 1573537.86799508 9087.18160696
0.03500000 1568264.32322681 9315.49051014
0.03600000 1562857.01166958 8673.85681562
0.03700000 1557317.41047874 10652.05158031
0.03800000 1551647.27830454 11800.27809762
0.03900000 1545848.51280197 10202.60065698
0.04000000 1539921.18224349 9470.51570965
0.04100000 1533868.98236823 11596.05004437
0.04200000 1527692.79935993 11824.34281561
0.04300000 1521393.76070558 13053.55907277
0.04400000 1514974.93085013 16361.73001305
0.04500000 1508438.01536578 11449.04506860
0.04600000 1501782.72785390 11646.32559591
0.04700000 1495013.74196357 15069.73921985
0.04800000 1488131.10904408 13125.31699247
0.04900000 1481138.36976908 11108.53829034
0.05000000 1474035.45289535 19169.83195757
0.05100000 1466826.75638708 13729.49907936
0.05200000 1459510.72852030 15084.04408219
0.05300000 1452093.32122760 11761.95645026
0.05400000 1444574.30024009 17876.60779913
0.05500000 1436956.19524043 19312.69216495
0.05600000 1429240.29360056 18330.00762078
0.05700000 1421431.61685155 12366.45564386
0.05800000 1413528.83420356 18764.59615022
0.05900000 1405534.66352794 13914.79381883
0.06000000 1397453.02195160 14065.36532306
0.06100000 1389285.32239458 19380.53115308
0.06200000 1381033.19975030 15660.91721721
0.06300000 1372700.46684867 14495.71760767
0.06400000 1364285.31972143 14631.96073830
0.06500000 1355794.01689921 16106.83367420
0.06600000 1347227.56702412 14893.60145030
0.06700000 1338587.47129439 15018.95213079
0.06800000 1329876.71578437 16517.06958319
0.06900000 1321098.49910951 16645.84186812
0.07000000 1312252.52266021 16770.58802494
0.07100000 1303342.78368323 19706.54381230
0.07200000 1294371.22742687 14173.36560430
0.07300000 1285340.48941129 21400.92015145
0.07400000 1276252.92230424 20100.98446831
0.07500000 1267110.44588246 21667.58964020
0.07600000 1257913.66948459 18887.57463277
0.07700000 1248667.95656354 16070.35735449
0.07800000 1239373.88641488 19092.55561559
0.07900000 1230032.83332431 25092.67097676
0.08000000 1220649.78046589 20763.25373975
0.08100000 1211224.93074403 19367.48755128
0.08200000 1201760.39637423 20946.68469173
0.08300000 1192259.35185157 16524.71539220
0.08400000 1182723.62579906 22619.59040514
0.08500000 1173155.46920008 21187.18876839
0.08600000 1163557.17580194 18221.30622858
0.08700000 1153931.98309577 21324.66404897
0.08800000 1144279.47966097 18331.35812508
0.08900000 1134605.12892100 19912.32094784
0.09000000 1124908.90225867 19961.50940828
0.09100000 1115193.13327019 18467.59915458
0.09200000 1105459.80267325 16963.28146907
0.09300000 1095714.23434354 27809.22857445
0.09400000 1085953.00132785 17022.31409582
0.09500000 1076181.83872746 17046.72112668
0.09600000 1066401.81242240 15516.14710013
0.09700000 1056617.32020992 17085.50287103
0.09800000 1046828.33743364 21763.56215852
0.09900000 1037037.76690506 23333.35085256
0.10000000 1027245.59829509 20231.60300986
0.10100000 1017455.21486290 20237.18517541
0.10200000 1007668.87856592 17125.33339674
0.10300000 997887.84694929 20237.16648810
0.10400000 988115.63270695 23344.23292093
0.10500000 978354.23217972 21778.16623297
0.10600001 968601.38335376 27982.89528178
0.10700001 958864.35185749 15533.60323107
0.10800001 949141.74862262 17070.31515234
0.10900001 939436.91649140 21700.99379232
0.11000001 929750.57563698 17028.38259431
0.11100001 920085.43227560 18548.92318784
0.11200001 910442.28387447 15431.99743817
0.11300001 900823.63918320 16944.49345080
0.11400001 891230.99578400 18448.48248136
0.11500001 881666.93013893 16875.10583747
0.11600001 872131.62609105 18367.09291041
0.11700001 862628.31180972 15268.52183810
0.11800001 853155.75836657 21320.36340573
0.11900001 843717.40562306 19742.98822151
0.12000001 834313.76023920 15142.79546164
0.12100001 824949.96185001 19625.56051694
0.12200001 815623.47285275 21067.55529631
0.12300001 806337.96788032 22496.83036379
0.12400001 797092.78256335 17934.58845271
0.12500001 787889.79414198 25314.90027863
0.12600001 778733.21051253 19285.32886713
0.12700001 769621.23377634 19209.74690034
0.12800001 760555.92187500 20603.46089462
0.12900001 751539.14984270 16120.51552392
0.13000001 742572.06712101 14591.54180670
0.13100001 733654.64003879 15978.99881326
0.13200001 724789.28803652 17351.45637355
0.13300001 715977.45172431 14391.14745810
0.13400001 707218.48858082 20049.64509652
0.13500001 698515.52566362 22799.54783262
0.13600001 689868.26250863 17012.15215560
0.13700001 681278.42060572 23974.18875158
0.13800001 672745.07597617 22442.77679287
0.13900001 664272.70212484 16739.67288296
0.14000001 655858.70174330 16645.69463527
0.14100001 647506.77633135 15171.08448496
0.14200001 639215.87453556 19195.65361767
0.14300001 630988.45371146 19081.09174024
0.14400001 622821.35149468 14901.00153739
0.14500001 614721.10864757 13462.39291443
0.14600001 606684.42728087 14715.13147787
0.14700001 598714.46141500 22595.48483978
0.14800001 590808.09110544 17165.92989693
0.14900001 582969.39700825 18363.53687217
0.15000001 575197.73399647 15633.87514768
0.15100001 567494.01538422 14232.75057741
0.15200001 559859.45675809 14133.65265278
0.15300001 552293.47615338 14033.77789130
0.15400001 544795.00507690 17733.07825210
0.15500001 537367.83809382 15089.28960578
0.15600001 530008.96637363 13729.88292189
0.15700001 522723.51386622 16105.11222233
0.15800001 515505.66224387 17212.73487474
0.15900001 508361.14965265 15860.86861781
0.16000001 501285.59144128 15737.86188616
0.16100001 494284.04841088 18016.65441504
0.16200001 487353.71530826 13107.37879196
0.16300001 480495.13829839 16548.25334420
0.16400001 473709.26634743 15241.59636428
0.16500001 466994.75040307 22093.52268463
0.16600001 460353.79460872 12685.04940934
0.16700001 453784.14050642 17153.04132102
0.16800001 447287.48137395 19275.85491995
0.16900001 440864.58319084 11242.04740219
0.17000001 434512.79554124 12259.77910510
0.17100001 428234.59597406 12153.29840764
0.17200001 422028.35537114 14237.12724076
0.17300001 415894.91490525 17367.77246663
0.17400001 409834.88374116 12909.79944753
0.17500001 403845.78262677 14926.14083081
0.17600001 397927.87375537 12677.98265662
0.17700001 392084.88958562 11515.53375102
0.17800001 386311.78512922 12446.96630476
0.17900001 380610.15651152 15414.71206681
0.18000001 374981.23630378 18325.33388376
0.18100001 369424.04664315 12102.33233970
0.18200001 363935.53602259 13986.04331002
0.18300001 358518.52334002 11874.13405395
0.18400001 353171.87757118 9800.52006558
0.18500001 347895.46553070 11647.54073622
0.18600001 342689.14718704 11534.91723926
0.18700001 337551.16946170 12374.62645710
0.18800001 332480.85000955 12253.58230604
0.18900001 327482.47887699 10266.57619786
0.19000001 322548.30532147 12013.31219931
0.19100001 317684.67594194 11894.11482926
0.19200001 312886.56021064 10869.67961532
0.19300001 308157.31381642 14347.80520926
0.19400001 303492.28549674 11540.29470134
0.19500001 298894.30516387 10544.99158449
0.19600001 294360.36957446 9568.18426518
0.19700001 289893.08143603 10331.78991064
0.19800001 285488.83527405 10226.21056279
0.19900001 281148.86433002 10121.35959422
0.20000001 276870.89828638 13356.25276457
0.20100001 272657.08500755 9913.81207942
0.20200001 268504.13733380 8993.54650506
0.20300001 264413.38828300 10518.36508304
0.20400001 260383.88173256 9608.16569007
0.20500001 256413.98240366 9507.83091693
0.20600001 252503.57189758 8624.25990581
0.20700001 248652.83106167 8533.76556542
0.20800001 244859.90696850 11514.53766949
0.20900001 241127.42105363 7595.51412224
0.21000001 237449.11366184 10521.37072373
0.21100001 233829.01649107 8179.33938352
0.21200001 230263.89868452 9564.01148399
0.21300001 226753.98075451 8006.68343896
0.21400001 223299.06689060 9361.81382198
0.21500001 219899.24917790 8549.68321224
0.21600001 216551.30657694 11277.99257973
0.21700001 213256.67885371 10460.24059233
0.21800001 210014.13064008 6898.96451771
0.21900001 206822.23541577 9555.18772799
0.22000001 203680.45943349 6752.00754947
0.22100001 200590.32580393 8683.55561464
0.22200001 197548.87868174 7929.61236523
0.22300001 194555.59195383 7190.77501863
0.22400001 191609.94606791 7113.51958414
0.22500001 188713.56548358 8316.60722413
0.22600001 185861.95268764 10125.75966125
0.22700001 183057.20294998 6260.55663695
0.22800001 180297.38041350 8670.50143411
0.22900001 177581.35094942 9189.83534623
0.23000001 174910.12886014 6666.69987678
0.23100001 172283.11913780 11391.36037612
0.23200001 169697.10332099 6524.00544572
0.23300001 167154.12697834 7627.24317475
0.23400001 164651.38527260 6384.35776590
0.23500001 162189.28260571 6315.65096337
0.23600001 159767.52513826 6247.70936603
0.23700001 157385.10030458 6180.51318129
0.23800001 155041.13018259 7781.51469192
0.23900001 152735.35941270 7148.01515861
0.24000001 150466.30957799 5983.29308338
0.24100001 148235.42410813 5380.94614965
0.24200001 146040.46506816 6920.12776459
0.24300001 143880.48430851 6845.83376723
0.24400001 141755.44605513 7814.26933343
0.24500001 139664.30584113 8245.78100692
0.24600001 137607.22870124 6118.01767747
0.24700001 135583.77793235 5548.08845545
0.24800001 133592.54973950 6486.58655946
0.24900001 131631.88474453 7897.91345830
0.25000001 129704.22034441 6348.37336509
0.25100001 127806.43552713 5314.19184063
0.25200001 125940.67582165 6213.28353561
0.25300001 124102.82175227 5673.98127895
0.25400001 122295.52988508 8887.82805489
0.25500001 120515.02769336 5090.55501061
0.25600001 118764.19003230 6867.53961354
0.25700001 117039.83783382 6341.21871386
0.25800001 115342.65260724 5825.38094555
0.25900001 113673.01800413 5763.22228550
0.26000001 112028.28586854 5263.08911913
0.26100001 110409.02076834 4772.98219365
0.26200001 108816.00175627 4292.79147241
0.26300001 107246.14759151 4246.94764558
0.26400001 105701.35017742 5041.95464204
0.26500001 104180.19180434 5403.82680459
0.26600001 102681.88677503 4523.65073593
0.26700001 101206.67922179 5289.06130641
0.26800001 99754.08268103  5232.60065464
0.26900001 98322.64873631  6371.30793961
0.27000001 96913.52721583  3939.53506775
0.27100001 95525.00490073  5066.64649970
0.27200001 94158.04081810  4626.92634476
0.27300001 92811.07581831  4195.98893632
0.27400001 91482.84157505  3773.66739356
0.27500001 90176.06186560  4106.61805171
0.27600001 88886.51027148  4062.55814422
0.27700001 87617.73366900  3653.65966691
0.27800001 86366.37337560  4698.76276588
0.27900001 85133.54368957  3575.60900419
0.28000001 83918.33007986  4952.02089238
0.28100001 82720.94707911  4198.91547247
0.28200001 81541.08181331  4153.70290416
0.28300001 80377.99737212  4108.92342014
0.28400001 79230.87769410  4403.25623626
0.28500001 78100.77626849  3685.57580655
0.28600001 76986.63175344  3977.12958463
0.28700001 75888.84128460  4589.75733814
0.28800001 74804.96921310  3242.79556888
0.28900001 73738.38425488  4811.42980037
0.29000001 72685.64191790  3490.00126188
0.29100001 71648.51230327  3765.84598492
0.29200001 70625.45766196  3414.38791229
0.29300001 69617.19702350  3070.11853406
0.29400001 68622.16505017  4554.79642081
0.29500001 67642.49464022  4204.65766587
0.29600001 66675.16469159  4158.53021867
0.29700001 65721.67163493  3525.31063338
0.29800001 64781.96141352  2905.47110694
0.29900001 63855.68013972  4022.90803924
0.30000001 62941.25375092  3410.15728966
0.30100001 62040.80665871  3091.49354216
0.30200001 61151.93346162  3613.16215963
0.30300001 60276.32159332  3848.04055269
0.30400001 59412.69991834  2989.94426494
0.30500001 58561.92468836  3225.59096454
0.30600001 57721.73455116  2923.89460211
0.30700001 56894.38865460  3154.22505634
0.30800001 56078.57340386  2599.24200033
0.30900001 55274.56949028  3084.32112358
0.31000001 54481.89745031  3558.21289094
0.31100001 53700.13010530  3267.11607029
0.31200001 52930.52094901  2733.59688384
0.31300001 52171.27745667  3440.17419837
0.31400001 51424.44388446  3401.72712402
0.31500001 50687.11811256  3603.85426844
0.31600002 49961.94642842  3088.39786470
0.31700002 49246.62184654  3288.68956262
0.31800002 48541.80045220  2554.99778778
0.31900002 47848.27972520  3215.40454978
0.32000002 47165.39205410  3179.41922891
0.32100002 46492.37218784  2470.13985130
0.32200002 45830.77480778  2886.65148795
0.32300002 45177.81480526  2415.20609385
0.32400002 44536.29122974  3256.71645038
0.32500002 43904.37147087  2361.61625324
0.32600002 43282.85531336  2547.62898438
0.32700002 42671.45440637  2729.26635307
0.32800002 42070.88039712  2906.67726428
0.32900002 41478.12468905  2463.80072320
0.33000002 40896.65646518  3045.77863447
0.33100002 40323.99994371  2409.76235075
0.33200002 39762.51541377  3177.82038235
0.33300002 39209.94484481  3143.06932760
0.33400002 38667.62655642  2137.35315912
0.33500002 38134.66663794  2306.38474748
0.33600002 37610.58995463  2661.70157714
0.33700002 37096.23639196  2633.09098380
0.33800002 36592.05503716  2604.98852146
0.33900002 36096.52934573  2945.47693410
0.34000002 35610.53568960  2914.36637886
0.34100002 35133.95673443  2703.55809875
0.34200002 34667.30676231  1961.99631913
0.34300002 34209.21727082  1765.19569477
0.34400002 33761.08015690  2620.70397130
0.34500002 33321.61602377  1729.39195354
0.34600002 32891.93595634  1883.22788237
0.34700002 32470.18063332  2033.93221120
0.34800002 32058.43458091  1846.08504278
0.34900002 31655.09461161  1828.08180040
0.35000002 31261.14942238  1810.48955455
0.35100002 30876.86856012  1793.32861091
0.35200002 30499.80541679  1614.96477331
0.35300002 30132.87705564  1920.06701693
0.35400002 29774.10288978  2536.75368636
0.35500002 29424.61059031  1728.40170794
0.35600002 29083.17314243  1713.14439510
0.35700002 28750.47975208  1852.68100298
0.35800002 28426.59476169  2449.23552068
0.35900002 28111.85717834  1821.64843144
0.36000002 27805.25462596  1957.35099211
0.36100002 27506.53610889  1941.68647590
0.36200002 27217.76299047  1482.00726503
0.36300002 26935.82676382  1764.83545316
0.36400002 26662.82666389  1605.76881189
0.36500002 26397.17916522  1594.12572530
0.36600002 26140.79534798  1582.95593728
0.36700002 25891.85615089  2143.84579084
0.36800002 25651.89763530  1561.81586151
0.36900002 25419.60598486  1692.94583879
0.37000002 25194.67656007  1822.70896208
0.37100002 24977.57953212  2369.37330665
0.37200002 24768.97021131  1662.98873876
0.37300002 24567.95373463  1653.91472376
0.37400002 24374.21451687  2056.57444728
0.37500002 24188.42667687  1500.65006212
0.37600002 24010.18191205  1629.33102174
0.37700002 23839.26719620  1486.85516546
0.37800002 23675.68614888  1615.15538559
0.37900002 23520.23396543  1608.78407945
0.38000002 23371.27275671  1335.66830132
0.38100002 23228.71589901  1464.10603247
0.38200002 23094.53219443  2122.84949988
0.38300002 22966.38619363  1984.29586113
0.38400002 22845.62506430  1451.26840096
0.38500002 22731.03372731  1579.35229819
0.38600002 22624.16457214  1444.66609719
0.38700002 22522.98769796  1441.92174073
0.38800002 22428.48060013  1701.31247652
0.38900002 22340.46881739  2352.45147792
0.39000002 22259.16619315  1436.05017499
0.39100002 22183.34105031  1826.13272178
0.39200002 22114.49972059  1564.37978435
0.39300002 22050.92236595  1563.85148828
0.39400002 21994.59538737  1433.49782229
0.39500002 21942.86659351  1564.08760489
0.39600002 21896.99610840  1564.75941604
0.39700002 21856.35184585  1435.30669372
0.39800002 21822.30730280  1436.67166935
0.39900002 21792.70629140  2222.85614704
0.40000002 21768.72255896  1833.14421354
0.40100002 21749.62571588  2098.40398849
0.40200002 21736.11533941  1839.52752833
0.40300002 21727.30265873  2106.67936560
0.40400002 21723.37244616  1583.63392636
0.40500002 21723.74182983  1455.27353413
0.40600002 21729.72063196  3051.17886710
0.40700002 21739.48365311  1330.45646261
0.40800002 21753.68607639  1468.04757442
0.40900002 21771.78974780  1606.75815952
0.41000002 21794.74742978  1746.74011552
0.41100002 21821.48604169  1618.28148153
0.41200002 21851.17758998  2165.88882534
0.41300002 21886.28265884  1495.05203927
0.41400002 21924.01129134  2047.15465133
0.41500002 21965.41960503  1644.77069796
0.41600002 22009.43698589  1927.36648818
0.41700002 22058.02664756  1797.94983724
0.41800002 22110.26661661  1945.48245178
0.41900002 22163.70030108  1675.57582216
0.42000002 22220.73393460  1683.88729735
0.42100002 22281.36418057  2679.77979698
0.42200002 22344.17877885  2268.38113712
0.42300002 22409.32330502  1995.32624163
0.42400002 22476.89879430  2006.06331245
0.42500002 22547.32816017  1873.00663902
0.42600002 22618.69747180  1738.47317006
0.42700002 22693.46043764  1602.61225205
0.42800002 22769.33465958  1904.76878121
0.42900002 22848.02776331  1768.43743268
0.43000002 22928.25116773  1778.77380988
0.43100002 23008.61918891  1789.15031291
0.43200002 23091.83063247  2099.74025891
0.43300002 23175.66502775  1508.73586480
0.43400002 23261.34933159  2124.92436214
0.43500002 23347.57497123  2290.39721322
0.43600002 23435.64004646  2765.17130012
0.43700002 23523.72006821  1700.05932989
0.43800002 23612.27921903  2487.78985641
0.43900002 23702.62668773  2190.12280974
0.44000002 23792.77800578  2203.44927554
0.44100002 23883.86815134  1741.85058682
0.44200002 23975.13416402  2071.09206291
0.44300002 24066.72958867  2724.83525316
0.44400002 24158.34142078  1935.08323951
0.44500002 24249.43253755  2433.43067047
0.44600002 24340.48300415  2284.84124788
0.44700002 24432.39093091  3119.52782190
0.44800002 24522.89649029  2477.42573534
0.44900002 24613.67877420  1993.70807520
0.45000002 24704.23019521  2005.48950229
0.45100002 24793.30728356  1680.98631349
0.45200002 24882.28986422  2536.12751460
0.45300002 24970.07532691  1700.46221035
0.45400002 25057.26269039  2052.18991160
0.45500002 25143.98984867  2063.81878459
0.45600002 25229.07487431  2075.34379752
0.45700002 25313.41052161  2434.64393936
0.45800002 25396.19905506  2447.93974293
0.45900002 25477.67643511  2285.34768454
0.46000002 25558.41313940  1767.36435235
0.46100002 25636.77840147  2487.28035839
0.46200002 25714.37023890  2321.62202705
0.46300002 25790.25564805  2513.00262945
0.46400002 25863.88928937  2706.00954515
0.46500002 25936.98966546  1812.99566354
0.46600002 26007.25120440  2732.71204982
0.46700002 26075.75306595  2196.62154239
0.46800002 26143.01399830  1839.16112195
0.46900002 26207.58654527  1847.63493901
0.47000002 26270.26982646  2598.39251169
0.47100002 26331.16213879  2609.94491490
0.47200002 26389.92170751  2246.83804067
0.47300002 26446.33549975  1880.33454316
0.47400002 26500.05246976  2076.94171076
0.47500002 26551.90880944  2464.54829251
0.47600002 26602.04052635  3045.40174380
0.47700002 26648.68083679  2483.92365853
