# SAXS profile: number of points = 501, q_min = 0, q_max = 0.5, delta_q = 0.001
#    q    intensity    error
0.00000000 1664650.74656090 299.63713438
0.00100000 1664569.63177427 549.30799153
0.00200000 1664326.23274981 1273.20960837
0.00300000 1663920.76047781 1098.18774104
0.00400000 1663353.08852432 1247.51486380
0.00500000 1662623.72803534 1795.63369735
0.00600000 1661732.60047564 2791.71088246
0.00700000 1660680.21564234 2192.09797575
0.00800000 1659466.41579536 2240.27975591
0.00900000 1658092.43805517 2984.56651608
0.01000000 1656557.66935495 4099.98040869
0.01100000 1654863.35994841 3574.50501312
0.01200000 1653009.41354098 3545.70534750
0.01300000 1650997.03946715 4853.93151011
0.01400000 1648826.15133580 4080.84490546
0.01500000 1646498.27261003 3951.59603022
0.01600000 1644012.74239454 5030.67921662
0.01700000 1641371.81219680 4431.70409173
0.01800000 1638575.40400777 7004.91016734
0.01900000 1635624.19444688 8341.68376808
0.02000000 1632519.41527980 6170.92366890
0.02100000 1629262.90333372 6989.53817220
0.02200000 1625853.32910032 6731.03308828
0.02300000 1622293.99880362 7008.31039384
0.02400000 1618584.11990552 8497.56701697
0.02500000 1614726.54390594 8186.66395149
0.02600000 1610721.07223476 9132.78889729
0.02700000 1606569.90297430 10121.39085231
0.02800000 1602272.86787013 8363.86475385
0.02900000 1597832.33363770 7909.27041465
0.03000000 1593249.97287871 8149.47398587
0.03100000 1588525.79297579 9912.40140427
0.03200000 1583661.27025307 7839.12364881
0.03300000 1578660.34020175 8856.28491681
0.03400000 1573521.01051223 11565.37996090
0.03500000 1568246.50560123 12702.79728196
0.03600000 1562838.20850333 10408.50294965
0.03700000 1557297.61498421 14202.55490549
0.03800000 1551626.36534536 9984.71612309
0.03900000 1545826.62434400 11129.95221071
0.04000000 1539898.06249765 13258.52293249
0.04100000 1533844.80433941 14494.83407308
0.04200000 1527667.49580572 9853.45580508
0.04300000 1521367.15802907 11045.12607998
0.04400000 1514947.26994192 16361.43127523
0.04500000 1508409.11001838 15612.03501410
0.04600000 1501752.61666218 13763.56337153
0.04700000 1494982.38098123 10763.87364367
0.04800000 1488098.27717545 13125.02741537
0.04900000 1481104.22369991 12219.11041429
0.05000000 1474000.16067271 13531.32210508
0.05100000 1466790.17655514 11440.96391010
0.05200000 1459472.68831903 13923.37009541
0.05300000 1452053.84311281 12937.80034527
0.05400000 1444533.45984629 19067.84255918
0.05500000 1436914.00659150 14484.09386211
0.05600000 1429196.56298775 13441.59430214
0.05700000 1421386.37340934 13602.66822848
0.05800000 1413482.21468788 16262.11363930
0.05900000 1405486.59582096 15179.25594383
0.06000000 1397403.43579949 17900.73884889
0.06100000 1389234.11707284 14211.86568180
0.06200000 1380980.52322753 14355.29320997
0.06300000 1372646.01370190 14495.14258242
0.06400000 1364229.40254339 18621.73221559
0.06500000 1355736.39419665 16106.14911647
0.06600000 1347168.59436930 14892.94950757
0.06700000 1338526.69368843 15018.27020602
0.06800000 1329814.45273019 16516.29627602
0.06900000 1321034.36506038 13870.86148255
0.07000000 1312186.86948023 15372.26989582
0.07100000 1303275.44950455 16890.45061669
0.07200000 1294302.21844983 19841.65393835
0.07300000 1285269.81740081 22826.39302658
0.07400000 1276180.51537446 17228.43776495
0.07500000 1267036.13271519 17333.05510799
0.07600000 1257837.68578719 15980.82854712
0.07700000 1248590.41346738 16069.35937479
0.07800000 1239294.39723795 20559.89501436
0.07900000 1229951.74198011 16235.36375564
0.08000000 1220566.85967744 20761.84325707
0.08100000 1211140.26417146 14897.02594825
0.08200000 1201673.85976381 19449.09233293
0.08300000 1192171.21738764 21029.90126169
0.08400000 1182633.67134822 19602.15402270
0.08500000 1173063.81894829 18159.02876980
0.08600000 1163463.56629273 21256.48035419
0.08700000 1153836.53519882 18276.77157578
0.08800000 1144182.12532812 18329.79850859
0.08900000 1134506.13462661 18379.00024421
0.09000000 1124807.81760304 19959.71566098
0.09100000 1115090.37057122 18465.89740421
0.09200000 1105355.27362917 21587.58950831
0.09300000 1095607.99131640 16992.88074385
0.09400000 1085844.86064672 18567.94798971
0.09500000 1076071.80690159 15495.43474771
0.09600000 1066290.13732380 18617.42667284
0.09700000 1056503.87086102 26402.03297405
0.09800000 1046713.13894107 17098.05992851
0.09900000 1036920.55809399 21775.33274390
0.10000000 1027126.60184755 18673.16249973
0.10100000 1017334.45763673 17121.73972729
0.10200000 1007546.33795760 24906.54664582
0.10300000 997763.60121494 15565.11291115
0.10400000 987989.47137967 20229.08537818
0.10500000 978226.29249366 20219.93841718
0.10600001 968471.54139752 24870.35035333
0.10700001 958732.86544225 15531.47315104
0.10800001 949008.40771025 17067.91701591
0.10900001 939302.04941439 23247.72681718
0.11000001 929613.77444518 20121.49109498
0.11100001 919946.94660158 17000.62037347
0.11200001 910302.11348958 23144.43232505
0.11300001 900681.59234685 16941.82154968
0.11400001 891087.48502735 15371.25984047
0.11500001 881521.62778770 23007.71556865
0.11600001 871984.55143740 15303.32959838
0.11700001 862479.62471707 19845.65709937
0.11800001 853005.56126486 16748.76498427
0.11900001 843565.34310908 22776.26533674
0.12000001 834160.14380155 18168.00878780
0.12100001 824794.84025211 21131.24480271
0.12200001 815466.60156833 24072.57521239
0.12300001 806179.49778212 16494.43330175
0.12400001 796932.83840794 17930.98970904
0.12500001 787728.44761257 20843.29570597
0.12600001 778570.17920646 17798.11513537
0.12700001 769456.67995105 26592.42411231
0.12800001 760389.97544055 19127.61073368
0.12900001 751371.70258686 17582.09866921
0.13000001 742403.14235432 16047.04467836
0.13100001 733484.27584530 17427.58721558
0.13200001 724617.61700247 21684.18321100
0.13300001 715804.22120524 15826.43207695
0.13400001 707043.75245274 20044.69132705
0.13500001 698339.47888577 14246.12604095
0.13600001 689691.02204749 14173.15117135
0.13700001 681099.97266714 16918.52411882
0.13800001 672565.39579962 18229.88591279
0.13900001 664091.52111127 16735.10712120
0.14000001 655676.50132610 18027.82625416
0.14100001 647323.32730707 13787.98752192
0.14200001 639031.27185026 15077.94357046
0.14300001 630802.67428996 19075.47377027
0.14400001 622634.44051044 14896.52969188
0.14500001 614533.00893735 14804.10088364
0.14600001 606495.33029167 17385.18946295
0.14700001 598524.24212020 17273.41044249
0.14800001 590616.84663149 17160.37328848
0.14900001 582777.36372086 14423.74043261
0.15000001 575004.64177581 13023.85575073
0.15100001 567299.87322845 14227.88149191
0.15200001 559664.41784173 16697.58869422
0.15300001 552097.63361376 17854.83831362
0.15400001 544598.31926120 13928.10267239
0.15500001 537170.45703123 15083.74714528
0.15600001 529810.74687510 13724.74804554
0.15700001 522524.49177218 14860.59724737
0.15800001 515305.87125810 14748.05473150
0.15900001 508160.68380003 14635.02838422
0.16000001 501084.36626538 12101.18801651
0.16100001 494082.34423578 14407.44183801
0.16200001 487151.48646080 14293.02528748
0.16300001 480292.22929662 12996.70833831
0.16400001 473505.93126396 16406.98129286
0.16500001 466790.92639330 16272.33246231
0.16600001 460149.28305371 14984.76211012
0.16700001 453579.19351310 16002.27470269
0.16800001 447082.18932132 11333.53403442
0.16900001 440658.94925372 12360.48411020
0.17000001 434306.97477755 11139.97442907
0.17100001 428028.36319631 15460.38520871
0.17200001 421822.00538826 15324.79417944
0.17300001 415688.23996547 10849.46357546
0.17400001 409627.91148065 15053.82645785
0.17500001 403638.73828510 11721.66951339
0.17600001 397720.79090457 12671.38499668
0.17700001 391877.64645157 11509.44701988
0.17800001 386104.55744300 10366.90785700
0.17900001 380402.83584271 12325.05246346
0.18000001 374774.00651176 12210.13770890
0.18100001 369216.73948033 11087.57921033
0.18200001 363728.26822650 10982.77557790
0.18300001 358311.41757936 12856.21427007
0.18400001 352964.78817519 10774.25066803
0.18500001 347688.69537647 12610.66957706
0.18600001 342482.44095527 9606.63292265
0.18700001 337344.85095360 10464.43777097
0.18800001 332274.84494815 10361.99152927
0.18900001 327276.87902584 12125.60894081
0.19000001 322343.02625274 9235.12813849
0.19100001 317479.71047979 10972.09931261
0.19200001 312682.01493238 13578.21714003
0.19300001 307953.25462993 12546.01618646
0.19400001 303288.76239784 8871.19671934
0.19500001 298691.14433885 10537.82407024
0.19600001 294157.68237511 10430.83190994
0.19700001 289691.05481689 12905.73710199
0.19800001 285287.57458766 9367.41795428
0.19900001 280948.31245153 10114.13972625
0.20000001 276670.94259205 10009.95517606
0.20100001 272457.74325101 10732.11101388
0.20200001 268305.57287666 8986.89558826
0.20300001 264215.61823788 10510.49779028
0.20400001 260186.77268408 8800.81800202
0.20500001 256217.81778680 11875.69641575
0.20600001 252308.38371079 8617.59325298
0.20700001 248458.44641358 8527.09428398
0.20800001 244666.47135347 9204.35308741
0.20900001 240935.00292025 9866.28883598
0.21000001 237257.54507257 7509.20165652
0.21100001 233638.51914412 8915.64631201
0.21200001 230074.43005848 9556.14190424
0.21300001 226565.66563251 8000.03403169
0.21400001 223111.78734157 12232.10431929
0.21500001 219713.15781189 9966.18930952
0.21600001 216366.34382363 7042.72482443
0.21700001 213072.86367230 8360.97956580
0.21800001 209831.54375042 9650.15315335
0.21900001 206640.78137693 8864.88994022
0.22000001 203500.27682422 8769.84484440
0.22100001 200411.50478428 7341.07376736
0.22200001 197371.24029257 8582.68878995
0.22300001 194379.46152761 7184.26523777
0.22400001 191435.07749318 7753.12100509
0.22500001 188540.08134125 7669.81087165
0.22600001 185689.85153706 10116.38359012
0.22700001 182886.66739992 6880.19675294
0.22800001 180128.12279393 10518.58222798
0.22900001 177413.61924434 6120.77015339
0.23000001 174743.83276188 6054.87409155
0.23100001 172118.32738860 7187.66169167
0.23200001 169533.87475482 6517.73012320
0.23300001 166992.32728909 6447.57406157
0.23400001 164491.28743328 6378.14997188
0.23500001 162030.65464642 8030.23962408
0.23600001 159610.53513910 6241.57027182
0.23700001 157229.82939711 11226.21034993
0.23800001 154887.39396131 7773.79867061
0.23900001 152583.22192057 6591.59549875
0.24000001 150315.85088582 5977.31009320
0.24100001 148086.55721265 5375.54228109
0.24200001 145893.30105751 5849.59218260
0.24300001 143734.96779141 6312.84008401
0.24400001 141611.71269842 5204.23068785
0.24500001 139522.23012023 6692.88169547
0.24600001 137466.80388936 9167.66158506
0.24700001 135445.12069000 6550.12634643
0.24800001 133455.64004998 7476.85258751
0.24900001 131496.88927241 5917.36029719
0.25000001 129570.76381266 5366.17343717
0.25100001 127674.81322982 5791.32980209
0.25200001 125810.81375572 7161.78091187
0.25300001 123974.84882213 6612.81874903
0.25400001 122169.21089645 7009.45880681
0.25500001 120390.54581199 6009.89633127
0.25600001 118641.44114500 5488.35332704
0.25700001 116918.94205649 5882.19225317
0.25800001 115223.53220145 4924.07788161
0.25900001 113555.60816251 4871.53582067
0.26000001 111912.82307320 4819.52595369
0.26100001 110295.30409937 6068.44791868
0.26200001 108704.16551357 6003.73134539
0.26300001 107136.06035702 5091.10582906
0.26400001 105593.06506439 4197.32453492
0.26500001 104073.67779451 4567.79393454
0.26600001 102577.17553180 4519.03768189
0.26700001 101103.73032359 4877.24418160
0.26800001 99652.99784293  4423.09851856
0.26900001 98223.29146234  3978.04349247
0.27000001 96815.89109866  4329.12277534
0.27100001 95429.23769436  4282.86439040
0.27200001 94063.98633687  5392.68859189
0.27300001 92718.83402811  4191.81868478
0.27400001 91392.37962788  4523.92300567
0.27500001 90087.49860242  4848.50940424
0.27600001 88799.42574087  4427.53957698
0.27700001 87532.47318883  4745.13559614
0.27800001 86282.82488689  5416.40458862
0.27900001 85051.87014184  5358.26807253
0.28000001 83838.28441451  3887.16224085
0.28100001 82642.56311605  3845.35864379
0.28200001 81464.36319610  4495.61109575
0.28300001 80302.97757907  3420.90700678
0.28400001 79157.54779376  4060.78239402
0.28500001 78029.14936008  4016.94079918
0.28600001 76916.56147467  3311.25812821
0.28700001 75820.39788915  3275.44134385
0.28800001 74738.15929920  5183.83897436
0.28900001 73673.10171661  3204.78007637
0.29000001 72622.07066077  3486.94888783
0.29100001 71586.46868326  4389.68246744
0.29200001 70564.98272504  3721.59736508
0.29300001 69558.18236252  4294.52238235
0.29400001 68564.70662160  3337.38725279
0.29500001 67586.46395067  3300.92305561
0.29600001 66620.60813996  3858.33270307
0.29700001 65668.68887572  3522.46863804
0.29800001 64730.41331708  4064.42284458
0.29900001 63805.51399834  3158.37309243
0.30000001 62892.54711038  2839.59863646
0.30100001 61993.56428126  3089.13945438
0.30200001 61105.98142330  3332.72038460
0.30300001 60231.78004900  3570.54009034
0.30400001 59369.55853142  2987.77317454
0.30500001 58519.99443175  3491.88823306
0.30600001 57681.18334577  2921.84048071
0.30700001 56855.08531163  3152.04607890
0.30800001 56040.48006579  3376.71928623
0.30900001 55237.60229385  2568.54862827
0.31000001 54446.24276967  3301.89254909
0.31100001 53665.72028884  3265.02257696
0.31200001 52897.28696833  2980.23328890
0.31300001 52139.23741580  3683.63729783
0.31400001 51393.51478522  2428.34368858
0.31500001 50657.16694278  2881.37979213
0.31600002 49933.14483486  2611.75326425
0.31700002 49218.91414634  3286.83924232
0.31800002 48515.21071618  2553.59823696
0.31900002 47822.73162674  2525.04034945
0.32000002 47140.84022746  2269.83156443
0.32100002 46468.79640981  2693.33156744
0.32200002 45808.13862039  2441.34486337
0.32300002 45156.10200749  2633.50399378
0.32400002 44515.42242301  2821.16502964
0.32500002 43884.52865070  2789.73961842
0.32600002 43263.84770153  2546.51019629
0.32700002 42653.31071860  2308.39728540
0.32800002 42053.48396268  2282.87348501
0.32900002 41461.61680433  2873.29018060
0.33000002 40880.95383902  2435.68734507
0.33100002 40309.07433740  2408.87039647
0.33200002 39748.32968365  2382.51499406
0.33300002 39196.50486330  2356.49398397
0.33400002 38654.85843084  2136.64740095
0.33500002 38122.50974729  2497.78695693
0.33600002 37599.17073707  2470.82962200
0.33700002 37085.42584161  2068.25429713
0.33800002 36582.04842679  1860.19725060
0.33900002 36087.03361350  1840.43880145
0.34000002 35601.65831614  2367.33238184
0.34100002 35125.55813197  1801.94121751
0.34200002 34659.54674144  2139.88051716
0.34300002 34201.94549430  2117.78456530
0.34400002 33754.40698015  1746.79064395
0.34500002 33315.38617796  2593.60293679
0.34600002 32886.21137978  1882.90012172
0.34700002 32464.96083107  2033.60524277
0.34800002 32053.59149648  1678.00559431
0.34900002 31650.71316489  1661.66251986
0.35000002 31257.20173518  2303.96844902
0.35100002 30873.28802660  1956.13162201
0.35200002 30496.65065576  1937.75727444
0.35300002 30130.09377857  1919.88966650
0.35400002 29771.60864905  1902.40588278
0.35500002 29422.46639267  2670.97162563
0.35600002 29081.36135336  1868.76836908
0.35700002 28748.93179828  1852.58125283
0.35800002 28425.42617548  1683.78019926
0.35900002 28110.92495970  1821.58802367
0.36000002 27804.59611040  2107.86653097
0.36100002 27506.10443236  1941.65600385
0.36200002 27217.64044302  1926.60077002
0.36300002 26935.92617626  2058.98229444
0.36400002 26663.20013496  1605.79130419
0.36500002 26397.74803799  1594.16007953
0.36600002 26141.58057739  1583.00348685
0.36700002 25892.80026574  1572.21090661
0.36800002 25653.08579587  2271.83738570
0.36900002 25420.94833684  1551.94896948
0.37000002 25196.23629107  1542.38767762
0.37100002 24979.23405253  1811.99372400
0.37200002 24770.82926053  2078.89194417
0.37300002 24569.88345955  1929.71873832
0.37400002 24376.40666530  2056.75940982
0.37500002 24190.67804477  2046.53145953
0.37600002 24012.58244068  2036.86740202
0.37700002 23841.83732446  1757.38191244
0.37800002 23678.34471600  1884.55954522
0.37900002 23523.04451023  1608.97632072
0.38000002 23374.20405294  1603.00298989
0.38100002 23231.78181297  2129.88985751
0.38200002 23097.66079816  2255.83314872
0.38300002 22969.72312898  1587.66733789
0.38400002 22849.04768244  1451.48582279
0.38500002 22734.58470253  1316.33251664
0.38600002 22627.91503206  1444.90558282
0.38700002 22526.78178267  1442.16463805
0.38800002 22432.40031414  2356.07511661
0.38900002 22344.45217903  1437.86556584
0.39000002 22263.32777370  1828.04193010
0.39100002 22187.71159822  1435.10125416
0.39200002 22118.95256754  1434.30354719
0.39300002 22055.47652529  1564.17446928
0.39400002 21999.36654627  1303.46252962
0.39500002 21947.70879294  1694.80215329
0.39600002 21902.04833374  1565.12044808
0.39700002 21861.51142880  1435.64552355
0.39800002 21827.62359515  1959.57500110
0.39900002 21798.19212289  1569.46990721
0.40000002 21774.36356257  1702.64643944
0.40100002 21755.59311624  1705.42102518
0.40200002 21742.23848233  1971.47756779
0.40300002 21733.60799776  1712.17371919
0.40400002 21729.87487827  1980.13494210
0.40500002 21730.39081333  1323.38086323
0.40600002 21736.66853866  1327.02367716
0.40700002 21746.68088346  1597.07631975
0.40800002 21761.09042248  1602.05155281
0.40900002 21779.48344452  1473.38212483
0.41000002 21802.73012341  1344.13837580
0.41100002 21829.67962731  1483.98169138
0.41200002 21859.73521803  1760.47385920
0.41300002 21895.06174867  1767.58841872
0.41400002 21933.17535771  1365.34023071
0.41500002 21974.88239075  1371.23272616
0.41600002 22019.20220111  1515.03127923
0.41700002 22068.21738358  1660.41275462
0.41800002 22120.79415018  1529.32117604
0.41900002 22174.63496149  1536.70227565
0.42000002 22232.09421908  1825.14386140
0.42100002 22293.00715026  1552.26216143
0.42200002 22356.35852009  1702.21321838
0.42300002 22421.92246066  1426.03433607
0.42400002 22489.88268954  1433.73008940
0.42500002 22560.84034954  1585.80154331
0.42600002 22632.66361465  1594.58439053
0.42700002 22707.93627937  1895.20445168
0.42800002 22784.38081237  1906.02746718
0.42900002 22863.55102202  1474.69911080
0.43000002 22944.38077524  1631.68971615
0.43100002 23025.30692897  2088.85594358
0.43200002 23109.10549930  2251.40470996
0.43300002 23193.51135622  2264.84649126
0.43400002 23279.83072851  2278.51354053
0.43500002 23366.60791685  1833.81147622
0.43600002 23455.32695037  1691.24642990
0.43700002 23544.13983225  1546.85006028
0.43800002 23633.37055052  2334.38628675
0.43900002 23724.33730336  2035.54823709
0.44000002 23815.26476648  1890.45580675
0.44100002 23907.06029724  1902.04580739
0.44200002 23999.02758116  1913.68255001
0.44300002 24091.38002101  1764.93458398
0.44400002 24183.74741905  1937.11826007
0.44500002 24275.63928830  1948.84841442
0.44600002 24367.51396603  2123.99445551
0.44700002 24460.18262764  1643.72435048
0.44800002 24551.59576225  1984.26006354
0.44900002 24643.21534443  2328.78396041
0.45000002 24734.60133774  1840.62544578
0.45100002 24824.56866203  1851.41641856
0.45200002 24914.46443984  2200.81932060
0.45300002 25003.17520485  1872.98794336
0.45400002 25091.29270283  2568.72121219
0.45500002 25178.90793401  2755.57981489
0.45600002 25264.91901891  2424.67439316
0.45700002 25350.27164120  2612.34561643
0.45800002 25434.01618503  1751.13209733
0.45900002 25516.53104812  2288.83294349
0.46000002 25598.23865596  1947.13011565
0.46100002 25677.61830750  2135.35083966
0.46200002 25756.24507817  2325.40269709
0.46300002 25833.15641391  1797.98777162
0.46400002 25907.88375959  2349.19747124
0.46500002 25982.06348799  2179.37558867
0.46600002 26053.36041437  1825.03798353
0.46700002 26122.93980422  2567.36264564
0.46800002 26191.25590658  2211.06592843
0.46900002 26256.92229268  2591.55835312
0.47000002 26320.75130423  2045.51728456
0.47100002 26382.75902120  2054.68936996
0.47200002 26442.65306733  2063.71695645
0.47300002 26500.27824262  3203.08878300
0.47400002 26555.06930695  3405.68780004
0.47500002 26608.14272057  2469.76792438
0.47600002 26659.43850150  2479.72778975
0.47700002 26707.20575183  2297.88809180
