# SAXS profile: number of points = 501, q_min = 0, q_max = 0.5, delta_q = 0.001
#    q    intensity    error
0.00000000 1664650.74656091 274.66737318
0.00100000 1664569.62607355 699.11925955
0.00200000 1664326.20939203 1348.10427230
0.00300000 1663920.70684500 998.35245967
0.00400000 1663352.99340706 1247.51479246
0.00500000 1662623.58331137 1795.63354105
0.00600000 1661732.38448380 1919.30098222
0.00700000 1660679.93115253 2590.66080027
0.00800000 1659466.04469602 2240.27925492
0.00900000 1658091.96346290 3730.70707727
0.01000000 1656557.07420994 2733.31929047
0.01100000 1654862.66324730 3574.50350825
0.01200000 1653008.56845304 3545.70353479
0.01300000 1650996.03089678 3813.80099958
0.01400000 1648824.99893574 5564.78461810
0.01500000 1646496.96024667 3951.59288055
0.01600000 1644011.23874766 5869.12038470
0.01700000 1641370.13859608 4431.69957301
0.01800000 1638573.51783811 5136.92820957
0.01900000 1635622.09778601 5397.55316625
0.02000000 1632517.10023837 5656.67200821
0.02100000 1629260.35324285 6451.87129136
0.02200000 1625850.52549262 6170.10302457
0.02300000 1622290.90902731 6424.27229217
0.02400000 1618580.78198408 7283.61385104
0.02500000 1614722.93150232 8186.64563661
0.02600000 1610717.16645546 7175.74530477
0.02700000 1606565.69493279 7422.33385054
0.02800000 1602268.34037150 10454.80140038
0.02900000 1597827.49064813 10066.31365327
0.03000000 1593244.78208540 11853.74172358
0.03100000 1588520.29853243 11437.34667570
0.03200000 1583655.37173011 9406.91334134
0.03300000 1578654.10035672 10466.47716787
0.03400000 1573514.38606595 9913.14108961
0.03500000 1568239.47969857 10162.19229772
0.03600000 1562830.80689515 8673.71137911
0.03700000 1557289.77129043 11539.51773894
0.03800000 1551618.13050296 12707.75307693
0.03900000 1545817.94308850 14839.85294088
0.04000000 1539888.99059344 11364.38127719
0.04100000 1533835.25597724 11595.79507285
0.04200000 1527657.49379502 13794.74780895
0.04300000 1521356.68250900 16065.52731302
0.04400000 1514936.30779749 16361.31288406
0.04500000 1508397.71472546 13530.32812977
0.04600000 1501740.71895924 10587.27256083
0.04700000 1494969.96946187 13992.91956494
0.04800000 1488085.32561293 15312.39871301
0.04900000 1481090.77655987 15551.45387776
0.05000000 1473986.18522804 16913.99226311
0.05100000 1466775.64437443 16017.19078271
0.05200000 1459457.66867440 16243.76460933
0.05300000 1452038.18550763 14113.81182109
0.05400000 1444517.26952653 14300.72163521
0.05500000 1436897.25349726 19311.89998789
0.05600000 1429179.23435485 12219.48302395
0.05700000 1421368.49938174 17312.26913058
0.05800000 1413463.70747265 15010.98527426
0.05900000 1405467.58076536 16443.97146298
0.06000000 1397383.74347526 12786.06185015
0.06100000 1389213.76354863 12919.68860476
0.06200000 1380959.63729920 14355.07610073
0.06300000 1372624.42706817 17130.35365075
0.06400000 1364207.18522123 14631.12274575
0.06500000 1355713.55992059 17448.03433236
0.06600000 1347145.12143934 16246.57092471
0.06700000 1338502.55184996 16383.27200136
0.06800000 1329789.60594643 16515.98767895
0.06900000 1321008.92395014 18031.77265615
0.07000000 1312160.66822290 16769.41412517
0.07100000 1303248.57915544 15482.59384554
0.07200000 1294274.70024532 25510.15553690
0.07300000 1285241.61461640 17119.41910883
0.07400000 1276151.54887269 17228.04671716
0.07500000 1267006.54893496 18777.03793534
0.07600000 1257807.38224740 23244.28151364
0.07700000 1248559.38415420 21912.21821934
0.07800000 1239262.72339370 24964.94873353
0.07900000 1229919.31847089 14759.03251390
0.08000000 1220533.65393555 17795.38150918
0.08100000 1211106.46332634 14896.61019784
0.08200000 1201639.29274240 14960.40989666
0.08300000 1192136.00731251 18025.09727652
0.08400000 1182597.58418933 27140.61583109
0.08500000 1173026.98361418 16645.25367890
0.08600000 1163426.07947352 16700.98215498
0.08700000 1153798.36518365 19799.18087628
0.08800000 1144143.10341688 18329.17337755
0.08900000 1134466.37181649 22972.94510832
0.09000000 1124767.33084709 19958.99722347
0.09100000 1115049.11568677 20003.98207523
0.09200000 1105313.37411191 16961.03452269
0.09300000 1095565.31329088 23171.20746497
0.09400000 1085801.41778720 24756.27348903
0.09500000 1076027.61296260 23242.19753244
0.09600000 1066245.20228829 17065.25526482
0.09700000 1056458.05585161 15529.93415112
0.09800000 1046666.68072918 17097.30103359
0.09900000 1036873.25408588 20219.02940542
0.10000000 1027078.62040008 21784.33856314
0.10100000 1017285.66149072 20233.81275868
0.10200000 1007496.85355035 18678.99254341
0.10300000 997713.39993096 23346.49465662
0.10400000 987938.50530043 18672.03862861
0.10500000 978174.57459959 17108.27411468
0.10600001 968419.11859581 21760.37861875
0.10700001 958679.74530819 15530.61260483
0.10800001 948954.51648618 26376.19202704
0.10900001 939247.45893427 20146.85894237
0.11000001 929558.54044933 17024.86546968
0.11100001 919890.80454315 15454.16624380
0.11200001 910245.34473095 16971.52525148
0.11300001 900624.11008132 21560.94221045
0.11400001 891029.28705482 19981.33270301
0.11500001 881462.67333612 23006.17685739
0.11600001 871924.96871415 18362.74070585
0.11700001 862419.30585112 25950.19813518
0.11800001 852944.49283048 16747.56590551
0.11900001 843503.68977434 18219.68055730
0.12000001 834097.76342470 16652.76263120
0.12100001 824731.73988302 21129.62817118
0.12200001 815402.83981160 24070.69296524
0.12300001 806115.06990074 20991.23740920
0.12400001 796867.74698637 17929.52515199
0.12500001 787662.72846477 19352.87415030
0.12600001 778503.78708771 20762.69698004
0.12700001 769389.69972405 22158.42439630
0.12800001 760322.37929859 16183.46260608
0.12900001 751303.45824559 23440.66900207
0.13000001 742334.24624539 17504.24235153
0.13100001 733414.77704581 20330.25857803
0.13200001 724547.54258716 21682.08623402
0.13300001 715733.49889122 15824.86840652
0.13400001 706972.51837329 17179.43300641
0.13500001 698267.64692940 21366.99100345
0.13600001 689618.75815442 17005.99937793
0.13700001 681027.09039143 22555.61829734
0.13800001 672492.00832490 19630.04264867
0.13900001 664017.65015015 13944.37131074
0.14000001 655601.99280227 26345.36732322
0.14100001 647248.43896710 17922.31012027
0.14200001 638955.74702375 15076.16156210
0.14300001 630726.71576953 17710.80701418
0.14400001 622558.01860261 18956.89256064
0.14500001 614456.11741802 17493.56648810
0.14600001 606418.01558710 17382.97323683
0.14700001 598446.50402424 17271.16692093
0.14800001 590538.77892846 15838.25079809
0.14900001 582698.74859578 19666.08369297
0.15000001 574925.64645665 16928.68645866
0.15100001 567220.51967559 14225.89130471
0.15200001 559584.70131564 14126.71645131
0.15300001 552017.47654618 15301.92517194
0.15400001 544517.85926088 18990.06123788
0.15500001 537089.77829191 21365.43238875
0.15600001 529729.64489868 12475.13372613
0.15700001 522443.13488694 12381.90288121
0.15800001 515224.28932487 13516.90986842
0.15900001 508078.72704632 13413.27902714
0.16000001 501002.18110818 13309.12356936
0.16100001 493999.94866321 20407.13884258
0.16200001 487068.82582919 14290.60002443
0.16300001 480209.34534645 14175.78054383
0.16400001 473422.95292304 17575.82795702
0.16500001 466707.75500244 15107.33074267
0.16600001 460065.91845386 12677.11698152
0.16700001 453495.80038952 13713.71365127
0.16800001 446998.61225167 14730.83996229
0.16900001 440575.24909856 15728.53713549
0.17000001 434223.15733578 14479.17186506
0.17100001 427944.52043467 13249.16297830
0.17200001 421738.13546005 14227.33667160
0.17300001 415604.30721155 16270.90939572
0.17400001 409543.94822955 15050.74080822
0.17500001 403554.81083828 12784.61701114
0.17600001 397636.87695957 10557.25958189
0.17700001 391793.81759437 10460.89542384
0.17800001 386020.66527602 10364.65535221
0.17900001 380319.05770575 10268.61504308
0.18000001 374690.32458664 18311.11702748
0.18100001 369133.19407467 13100.53767653
0.18200001 363644.82363515 12976.66614441
0.18300001 358228.14720730 11864.51679598
0.18400001 352881.71538509 14688.70209681
0.18500001 347605.78761281 10668.02212582
0.18600001 342399.80585692 10564.74650883
0.18700001 337262.36227068 11412.95887844
0.18800001 332192.61835384 12242.95952786
0.18900001 327194.90791272 10257.56084771
0.19000001 322261.33984984 12002.62416982
0.19100001 317398.35808977 11883.39508837
0.19200001 312600.99585466 11764.73903489
0.19300001 307872.49808245 10750.90814105
0.19400001 303208.41022517 8868.84641817
0.19500001 298611.13611598 11412.91816167
0.19600001 294078.16805129 11297.01335955
0.19700001 289611.87041488 9461.62025359
0.19800001 285208.84408714 9364.83283817
0.19900001 280870.08109281 9268.71311410
0.20000001 276593.22640942 8339.28617037
0.20100001 272380.52875279 9078.44345240
0.20200001 268228.87285678 8984.32652097
0.20300001 264139.43700040 9699.20058508
0.20400001 260111.15681469 10397.94398513
0.20500001 256142.81485952 10289.25735925
0.20600001 252233.93736885 10181.42336315
0.20700001 248384.59822944 9299.51979729
0.20800001 244593.37274162 9201.60311750
0.20900001 240862.50349307 12139.47074990
0.21000001 237185.77888959 10509.70235942
0.21100001 233567.44874116 9655.67878742
0.21200001 230004.07624587 11022.94587519
0.21300001 226495.98518882 8724.62576193
0.21400001 223042.93962716 7193.13514304
0.21500001 219645.06568690 8539.80055765
0.21600001 216299.03900655 7040.53405253
0.21700001 213006.40883571 9054.90286772
0.21800001 209765.88310026 9647.13341990
0.21900001 206575.96623239 8180.40864958
0.22000001 203436.34175336 8092.69805759
0.22100001 200348.47643783 8673.08595509
0.22200001 197309.13121734 10559.98520207
0.22300001 194318.26906915 7834.91297935
0.22400001 191374.82420549 10334.24099576
0.22500001 188480.85518766 8306.35168090
0.22600001 185631.53541532 8216.98030373
0.22700001 182829.36209463 6252.76447932
0.22800001 180071.78842789 7422.55947001
0.22900001 177358.38470994 6730.75101805
0.23000001 174689.69492622 7263.59785854
0.23100001 172065.24534953 5987.87082135
0.23200001 169481.78820392 8292.74428901
0.23300001 166941.34236698 5859.64139421
0.23400001 164441.49689856 6955.87564779
0.23500001 161981.94870944 6307.57738107
0.23600001 159562.96495651 7941.44914149
0.23700001 157183.38297060 5611.44703746
0.23800001 154842.18661590 6106.20191801
0.23900001 152539.22278597 6040.55350804
0.24000001 150273.09667186 6518.84724197
0.24100001 148044.98562713 7523.64652545
0.24200001 145853.04303204 6379.61240399
0.24300001 143695.86810827 6837.04972800
0.24400001 141573.88761628 5202.84061601
0.24500001 139485.69647465 6691.12917641
0.24600001 137431.51928173 6110.20563631
0.24700001 135411.16388252 6044.75464167
0.24800001 133422.97652221 4983.34840885
0.24900001 131465.60937303 5422.95664318
0.25000001 129540.78529323 5852.65295643
0.25100001 127646.24126700 5307.53096298
0.25200001 125783.55226804 8114.92625849
0.25300001 123948.92872145 4722.45440771
0.25400001 122144.63046053 5139.23556977
0.25500001 120367.41968357 6470.95278834
0.25600001 118619.72526324 4572.79062525
0.25700001 116898.59754045 4976.37353275
0.25800001 115204.59977224 4475.69891292
0.25900001 113538.18413236 4427.98939067
0.26000001 111896.80403545 4380.76008527
0.26100001 110280.71208500 5634.24184701
0.26200001 108691.02007399 4716.64703929
0.26300001 107124.31120506 5938.97209423
0.26400001 105582.83484449 4616.60967202
0.26500001 104064.88727293 4567.40811853
0.26600001 102569.90401994 8215.84970077
0.26700001 101097.90560670 5689.79039679
0.26800001 99648.61478657  5227.06833598
0.26900001 98220.44087828  5171.30645696
0.27000001 96814.52791431  3935.51074595
0.27100001 95429.35405691  4282.86961275
0.27200001 94065.66171650  4622.38683550
0.27300001 92721.99260778  3810.87407653
0.27400001 91396.97961555  4524.15070507
0.27500001 90093.57475161  4475.84900548
0.27600001 88807.07457271  5903.89459700
0.27700001 87541.64480693  5110.68146570
0.27800001 86293.50557830  5417.07506905
0.27900001 85063.98780388  4644.49395391
0.28000001 83851.93147111  3534.35907878
0.28100001 82657.73659894  3496.42242362
0.28200001 81481.02510748  3804.75664747
0.28300001 80321.11544446  4106.01561586
0.28400001 79177.23429451  4738.75769682
0.28500001 78050.27583941  5357.37118719
0.28600001 76939.19512363  3643.45575753
0.28700001 75844.48485253  3604.13009078
0.28800001 74763.78606750  4213.31336326
0.28900001 73700.17270222  4808.93649644
0.29000001 72650.54876041  3488.31626385
0.29100001 71616.50851470  4077.84418785
0.29200001 70596.48082796  3723.25857511
0.29300001 69591.12447187  3682.76248138
0.29400001 68599.04858457  4249.71126098
0.29500001 67622.32835139  4803.89043348
0.29600001 66657.87230159  3860.49085709
0.29700001 65707.33196625  2937.11787793
0.29800001 64770.55235896  3776.44723406
0.29900001 63847.01111477  4309.67345426
0.30000001 62935.35883724  3125.68474462
0.30100001 62037.76052478  2810.31068481
0.30200001 61151.60485164  3335.20868650
0.30300001 60278.70500468  2748.70907834
0.30400001 59417.84010960  3805.71283919
0.30500001 58569.65887100  3226.01696334
0.30600001 57732.12988500  3190.27764848
0.30700001 56907.33296745  2629.11890757
0.30800001 56094.04527024  3119.95094564
0.30900001 55292.43937378  3085.31826313
0.31000001 54502.40831507  4068.05994924
0.31100001 53723.02633091  3771.35662699
0.31200001 52955.87420419  4475.30114088
0.31300001 52199.04071562  2704.43242752
0.31400001 51454.48113550  2674.34678364
0.31500001 50719.42297530  2884.92091543
0.31600002 49996.45545626  3090.53104036
0.31700002 49283.44701227  2350.82053379
0.31800002 48580.79424055  2557.05022592
0.31900002 47889.40785357  3677.90669730
0.32000002 47208.56991727  2727.71129898
0.32100002 46537.66825597  2922.10032815
0.32200002 45878.02964523  4001.02315481
0.32300002 45227.05371442  2417.83840606
0.32400002 44587.42070035  2391.00054827
0.32500002 43957.42135881  2149.51800623
0.32600002 43337.69911258  2763.42851477
0.32700002 42728.14446433  2732.89224935
0.32800002 42129.27042461  2286.98755330
0.32900002 41538.25096360  2672.98657608
0.33000002 40958.51838046  2440.30864067
0.33100002 40387.42386886  2815.81132548
0.33200002 39827.55090789  2188.32488826
0.33300002 39276.49459075  2361.30296662
0.33400002 38735.68581824  2530.40879591
0.33500002 38204.06535359  2118.03348350
0.33600002 37681.45458925  2666.71666757
0.33700002 37168.38497085  1884.43720726
0.33800002 36665.63882102  2050.89260458
0.33900002 36171.34619319  2582.63424050
0.34000002 35686.53792106  2007.90315122
0.34100002 35211.10630022  1986.96282262
0.34200002 34745.62750796  1966.42888194
0.34300002 34288.58949615  2123.14956215
0.34400002 33841.48577267  2101.55636601
0.34500002 33402.97777437  2253.69901717
0.34600002 32974.27391191  2402.83545376
0.34700002 32553.44499036  1699.28990898
0.34800002 32142.51750827  1850.92695838
0.34900002 31739.99986260  1666.35007171
0.35000002 31346.79936188  2310.57269040
0.35100002 30963.26129298  2125.31835581
0.35200002 30586.83410645  2591.31670823
0.35300002 30220.52094778  1765.18071216
0.35400002 29862.29827175  1908.20094994
0.35500002 29513.33950221  1891.21488488
0.35600002 29172.44622027  1874.62148290
0.35700002 28840.15966031  3252.30495894
0.35800002 28516.71037281  1535.62492631
0.35900002 28202.27981142  1827.50781834
0.36000002 27896.01425498  1661.62616780
0.36100002 27597.54743551  1498.54689673
0.36200002 27309.00169643  1784.37025536
0.36300002 27027.27725700  1770.82728976
0.36400002 26754.42060017  1464.80459724
0.36500002 26488.90974753  1599.66533543
0.36600002 26232.59733049  1444.10455145
0.36700002 25983.69147919  2008.01977263
0.36800002 25743.74717224  2137.37471022
0.36900002 25511.36147371  2123.82094329
0.37000002 25286.36621836  1688.62361605
0.37100002 25069.07043158  1398.85419635
0.37200002 24860.33452605  1808.21651741
0.37300002 24659.03753102  1660.04648523
0.37400002 24465.13448437  2064.24581990
0.37500002 24279.01593521  1780.13753270
0.37600002 24100.46883181  1771.74605010
0.37700002 23929.24786255  1492.46725989
0.37800002 23765.29685097  1891.48006597
0.37900002 23609.38129741  2018.60219655
0.38000002 23459.98762500  1608.88602754
0.38100002 23316.96218777  1736.88059565
0.38200002 23182.20823886  1331.81792642
0.38300002 23053.56840123  1991.82840423
0.38400002 22932.22534054  1721.63689900
0.38500002 22817.01154706  1717.43654051
0.38600002 22709.51840114  1845.60264790
0.38700002 22607.71454180  1973.65357300
0.38800002 22512.44134576  1313.60101476
0.38900002 22423.69398379  1574.14339224
0.39000002 22341.64720688  1441.37143784
0.39100002 22265.17877546  1701.95034623
0.39200002 22195.47703238  1570.10811966
0.39300002 22131.03807916  1438.73885369
0.39400002 22073.90693745  1961.81857201
0.39500002 22021.23187779  1308.06123551
0.39600002 21974.58367437  1439.44517179
0.39700002 21932.97410177  1702.21820069
0.39800002 21897.98078205  1572.71305428
0.39900002 21867.41898321  1574.45424139
0.40000002 21842.43853225  2102.11638394
0.40100002 21822.43675580  1447.48229859
0.40200002 21807.88189161  1318.28652281
0.40300002 21798.06544327  1320.96282845
0.40400002 21793.06421481  1985.89307067
0.40500002 21792.30868765  2388.87299153
0.40600002 21797.23613423  1463.79346195
0.40700002 21805.95426907  1734.88180385
0.40800002 21818.98541117  1606.31378208
0.40900002 21836.02186850  1477.20694940
0.41000002 21857.84710646  1751.79723935
0.41100002 21883.40580021  1622.87345104
0.41200002 21911.98094416  1357.44728381
0.41300002 21945.89587214  2044.26029735
0.41400002 21982.50356543  1505.25200297
0.41500002 22022.70103886  1649.05993193
0.41600002 22065.55072590  1794.26034230
0.41700002 22112.98785614  1663.78128513
0.41800002 22163.99895389  1671.60888031
0.41900002 22216.23992742  1399.62318175
0.42000002 22272.09306271  1547.13101791
0.42100002 22331.45171801  1979.01334503
0.42200002 22393.08565883  1420.84135238
0.42300002 22457.02890548  1428.26710607
0.42400002 22523.35615884  1579.45042548
0.42500002 22592.62756084  1443.66896955
0.42600002 22662.73337701  2032.16739821
0.42700002 22736.26271690  2043.53538983
0.42800002 22810.99936992  1761.46545482
0.42900002 22888.42602578  1476.30354862
0.43000002 22967.43459450  2227.26707535
0.43100002 23046.62211109  2538.81601207
0.43200002 23128.67275259  1952.86957641
0.43300002 23211.26576451  1813.26416745
0.43400002 23295.76692927  1824.05863700
0.43500002 23380.79862934  1987.83559367
0.43600002 23467.66339551  1538.30540847
0.43700002 23554.65409403  1702.29493205
0.43800002 23642.00777300  2335.23942844
0.43900002 23731.18937369  1879.51028747
0.44000002 23820.19953150  2048.41815579
0.44100002 23910.15281789  2219.34048973
0.44200002 24000.26420059  1913.78115805
0.44300002 24090.72439417  2246.21924896
0.44400002 24181.21342758  1775.50568006
0.44500002 24271.22821860  2922.74144060
0.44600002 24361.19947367  1796.76035233
0.44700002 24452.01110257  1807.49274636
0.44800002 24541.52104405  1652.87152065
0.44900002 24631.24568937  2660.17466052
0.45000002 24720.79271820  2174.07021864
0.45100002 24808.82809113  1850.24248672
0.45200002 24896.79990660  1860.91139721
0.45300002 24983.63040457  2211.80090454
0.45400002 25069.84635220  2224.32222302
0.45500002 25155.57915419  2064.77003483
0.45600002 25239.72303310  1730.18309592
0.45700002 25323.15500647  2261.61108081
0.45800002 25405.02607672  2098.96335394
0.45900002 25485.66596036  2637.76655191
0.46000002 25565.49383451  1944.63938069
0.46100002 25643.04357058  1777.06300366
0.46200002 25719.79932996  3036.60825181
0.46300002 25794.85835220  1795.32222640
0.46400002 25867.72592641  2345.55615955
0.46500002 25940.08336040  2901.13906053
0.46600002 26009.51556367  2186.35998191
0.46700002 26077.31804746  2379.81615781
0.46800002 26143.84763320  2942.75162907
0.46900002 26207.69423519  2401.93529050
0.47000002 26269.74964382  2227.14948036
0.47100002 26329.96886496  2609.82663759
0.47200002 26388.09283877  2995.57644104
0.47300002 26443.96330488  2632.23223213
0.47400002 26497.04382579  2643.08024690
0.47500002 26548.36922508  2085.10901777
0.47600002 26597.96094918  2474.00945495
0.47700002 26644.08292666  2101.41892003
