# SAXS profile: number of points = 501, q_min = 0, q_max = 0.5, delta_q = 0.001
#    q    intensity    error
0.00000000 1646666.22097351 321.09991309
0.00100000 1646585.55231721 493.97567743
0.00200000 1646343.48369767 963.11096846
0.00300000 1645940.23619877 1086.32059459
0.00400000 1645375.69112397 1357.43499676
0.00500000 1644650.33199026 2516.31510754
0.00600000 1643764.09073712 2416.33331176
0.00700000 1642717.49089345 2168.38717810
0.00800000 1641510.36214385 2659.24689895
0.00900000 1640143.93705298 2460.21601075
0.01000000 1638617.60715112 3244.46300225
0.01100000 1636932.63180828 3535.77463865
0.01200000 1635088.90124384 4463.79289611
0.01300000 1633087.59424734 3772.43250909
0.01400000 1630928.67335773 4036.54864550
0.01500000 1628613.65881213 4690.40754624
0.01600000 1626141.87898929 4975.99437215
0.01700000 1623515.53065292 5260.19055528
0.01800000 1620734.62079642 6004.82204025
0.01900000 1617799.71476121 6309.41917227
0.02000000 1614712.15366256 7629.51527118
0.02100000 1611473.71590746 5849.64985396
0.02200000 1608083.08908890 7212.25298223
0.02300000 1604543.53406755 6353.99268413
0.02400000 1600854.34364023 6603.52446862
0.02500000 1597018.27124623 6851.20869655
0.02600000 1593035.17421388 8387.33057586
0.02700000 1588907.21652556 8008.09273807
0.02800000 1584634.25782734 8271.79120520
0.02900000 1580218.61270350 9244.27930876
0.03000000 1575662.01488271 8792.19444718
0.03100000 1570964.46658188 8294.69276522
0.03200000 1566127.24942108 9302.79629003
0.03300000 1561154.57294465 9554.26642688
0.03400000 1556044.36961631 11436.92664438
0.03500000 1550799.78502823 10886.61499362
0.03600000 1545422.14074083 10292.51193299
0.03700000 1539913.07893579 10533.00594705
0.03800000 1534274.17845889 10770.60523124
0.03900000 1528507.51288452 11005.25460242
0.04000000 1522612.95367508 15918.91916834
0.04100000 1516594.40002350 11465.45419579
0.04200000 1510452.61892570 12665.14579726
0.04300000 1504188.50332989 10920.40904108
0.04400000 1497805.74240212 14154.26492305
0.04500000 1491305.51877537 13377.01112498
0.04600000 1484687.61892397 15700.57229999
0.04700000 1477956.73472567 18090.19127438
0.04800000 1471112.78292563 12975.21534912
0.04900000 1464159.61111000 12079.31735392
0.05000000 1457097.16446128 15605.51135807
0.05100000 1449929.57680798 11309.45122594
0.05200000 1442655.32215538 11469.11034561
0.05300000 1435280.27532846 13950.92492656
0.05400000 1427804.56258253 14135.26582875
0.05500000 1420230.39667998 19087.89742182
0.05600000 1412558.96661818 27777.97337478
0.05700000 1404795.48136353 17110.40976170
0.05800000 1396938.90270045 14835.49183938
0.05900000 1388991.38497506 16251.19996323
0.06000000 1380956.96722554 15162.90820853
0.06100000 1372837.07652341 16597.60103080
0.06200000 1364633.75871362 23212.42132075
0.06300000 1356350.14635123 18229.34681928
0.06400000 1347985.12152169 14457.14110443
0.06500000 1339544.18220700 13261.48802419
0.06600000 1331029.31364552 14714.52975082
0.06700000 1322440.72922033 25628.90253170
0.06800000 1313782.57867398 19036.71045608
0.06900000 1305057.32591247 13703.10256365
0.07000000 1296265.10961504 17946.79128304
0.07100000 1287409.60176542 15294.42678533
0.07200000 1278493.10278188 19599.30018381
0.07300000 1269517.73471218 16909.97701869
0.07400000 1260486.22263177 17016.56480300
0.07500000 1251400.21613567 18545.75207242
0.07600000 1242260.70114806 20087.35647927
0.07700000 1233072.97821133 14426.95452153
0.07800000 1223837.00840756 18853.20999866
0.07900000 1214554.90414770 16032.12548672
0.08000000 1205231.20073633 14643.55977589
0.08100000 1195866.32308825 17650.98775694
0.08200000 1186462.05386854 23634.32522211
0.08300000 1177022.35575612 17796.57885426
0.08400000 1167547.92432247 29772.47346770
0.08500000 1158041.93707109 19420.36419637
0.08600000 1148506.04604823 17985.60552557
0.08700000 1138943.70885247 19544.27496166
0.08800000 1129354.40270284 19599.94657940
0.08900000 1119744.29766599 22674.82309277
0.09000000 1110112.10748714 16668.33407692
0.09100000 1100461.22271792 16705.00214568
0.09200000 1090793.24959150 27389.81978420
0.09300000 1081113.66243799 18292.44402805
0.09400000 1071418.45116199 15267.71364660
0.09500000 1061713.84766018 15288.68012492
0.09600000 1052000.90645347 18367.93669011
0.09700000 1042283.69781035 21450.19950937
0.09800000 1032562.66047332 16866.91185187
0.09900000 1022840.02283510 18411.12127677
0.10000000 1013116.59874975 15348.71719287
0.10100000 1003395.06325665 16887.13970884
0.10200000 993678.32205890 15352.33079793
0.10300000 983967.09256993 19954.85357601
0.10400000 974264.70743574 16879.13685040
0.10500000 964573.63660772 21471.41016110
0.10600001 954891.59038305 22989.01612019
0.10700001 945225.64988256 21437.71874815
0.10800001 935574.29397592 29063.61681014
0.10900001 925941.56656007 15278.03656731
0.11000001 916327.00315311 18308.21438476
0.11100001 906733.98570241 18279.75801225
0.11200001 897163.67795935 15206.92505731
0.11300001 887617.60647858 18213.91414247
0.11400001 878098.51823488 18176.64018330
0.11500001 868607.50053316 15113.77122095
0.11600001 859145.89342112 15078.01113959
0.11700001 849716.43307394 18047.97788846
0.11800001 840318.22732888 16499.64917071
0.11900001 830954.18293914 14957.17599741
0.12000001 821625.23276574 16403.74854487
0.12100001 812336.20357645 17838.90387090
0.12200001 803084.72811611 16298.60532496
0.12300001 793874.28074243 16242.66854925
0.12400001 784704.78547740 19127.18004724
0.12500001 775577.48997564 16124.25677638
0.12600001 766496.57179137 16061.93641878
0.12700001 757460.58498723 17451.89270055
0.12800001 748471.33917544 17379.50531474
0.12900001 739530.84187941 20189.19293487
0.13000001 730640.19323836 15792.78852124
0.13100001 721799.43639775 17149.95541722
0.13200001 713010.79553333 19914.39245802
0.13300001 704275.34134951 16987.12203417
0.13400001 695593.49027309 16902.92261053
0.13500001 686967.44090066 19619.79103716
0.13600001 678397.51763845 13941.06964480
0.13700001 669885.00971666 15253.28239049
0.13800001 661429.15096155 15169.87829265
0.13900001 653033.66388647 16456.44910600
0.14000001 644697.19045998 16362.41546554
0.14100001 636422.82302374 18978.12947763
0.14200001 628209.56960077 20212.64385524
0.14300001 620059.48571587 17411.27118015
0.14400001 611970.13593201 21296.56173499
0.14500001 603947.30477007 21162.31455741
0.14600001 595988.49362537 18398.16566614
0.14700001 588096.09738608 15666.88077347
0.14800001 580267.41660165 14265.87511020
0.14900001 572506.44470320 15457.67473629
0.15000001 564812.50542557 15351.60462180
0.15100001 557186.16680628 19055.76780392
0.15200001 549629.24065403 15136.79000187
0.15300001 542140.75548854 16280.48765558
0.15400001 534719.83833069 12432.23682788
0.15500001 527370.43210563 19744.74990985
0.15600001 520088.91935488 12248.09462886
0.15700001 512880.75540187 14586.32937206
0.15800001 505740.31570375 15680.47922849
0.15900001 498672.90221479 17952.22532709
0.16000001 491674.42936611 15436.11943857
0.16100001 484750.19488619 18847.08846684
0.16200001 477896.95217400 14021.49723868
0.16300001 471115.12264688 22019.92187203
0.16400001 464406.02115636 17241.07434937
0.16500001 457768.18248255 14817.95676654
0.16600001 451203.31329452 19214.49400382
0.16700001 444710.24976224 12327.36870544
0.16800001 438290.05336896 11110.65337751
0.16900001 431943.21021900 14318.91809487
0.17000001 425667.28694977 15285.71299615
0.17100001 419464.85581791 11904.41317025
0.17200001 413334.60206795 11798.63677320
0.17300001 407276.33611311 12755.89544945
0.17400001 401291.61148768 18961.02953825
0.17500001 395377.68451220 17744.55131894
0.17600001 389534.71621694 18615.86496722
0.17700001 383766.48948199 12295.87890374
0.17800001 378067.97297546 12181.35066462
0.17900001 372440.78822634 12067.08210850
0.18000001 366885.82662362 12949.23586234
0.18100001 361402.45759748 13812.80258184
0.18200001 355987.75382533 12703.42359534
0.18300001 350644.03981037 9677.77595594
0.18400001 345370.72920351 10542.44200697
0.18500001 340167.38456319 14236.00571651
0.18600001 335033.63258230 14096.54075687
0.18700001 329968.33528453 12096.63974303
0.18800001 324970.42929585 11055.49452697
0.18900001 320044.09469354 13681.88569458
0.19000001 315181.62277027 9932.94931092
0.19100001 310389.38873225 9833.13629965
0.19200001 305662.57075976 12388.50457827
0.19300001 301004.09754894 17518.43930514
0.19400001 296409.76784824 10403.98334310
0.19500001 291881.91323666 8581.32865467
0.19600001 287418.10605168 11890.48760926
0.19700001 283020.54153756 9246.28152899
0.19800001 278685.89770559 10814.40677154
0.19900001 274415.14607890 8232.45477143
0.20000001 270205.83873988 10590.71834994
0.20100001 266060.47252124 10480.12250793
0.20200001 261975.79373103 9572.59595537
0.20300001 257952.82409779 11840.03518570
0.20400001 253990.97654441 8591.24518769
0.20500001 250088.34739972 7727.73029992
0.20600001 246244.73307080 9939.66912023
0.20700001 242460.45814382 11347.14997750
0.20800001 238733.86673337 8981.16849105
0.20900001 235067.23602593 8145.08011333
0.21000001 231454.31300420 8790.63522345
0.21100001 227899.39021907 10870.80142735
0.21200001 224399.00584675 10037.36800604
0.21300001 220953.51118877 7801.86884891
0.21400001 217562.69058439 9121.31623397
0.21500001 214226.58405835 6940.94165164
0.21600001 210941.95504257 7552.77705738
0.21700001 207710.15065305 8150.54669698
0.21800001 204530.07286581 8062.57585357
0.21900001 201400.42748916 10633.94307422
0.22000001 198320.44071399 7231.75521257
0.22100001 195291.89475691 9754.83060435
0.22200001 192311.20177524 6432.81000355
0.22300001 189378.61612890 7635.74616338
0.22400001 186493.26542821 8182.39240758
0.22500001 183656.73806903 6848.56008644
0.22600001 180864.46314347 8005.96583963
0.22700001 178118.85399121 6700.83160403
0.22800001 175417.53824839 7230.71126854
0.22900001 172759.72893762 7748.27420928
0.23000001 170146.30568362 5895.56977075
0.23100001 167576.74977889 5831.67116810
0.23200001 165047.59352557 9806.30323310
0.23300001 162561.06006633 6847.07217382
0.23400001 160114.74538123 8466.06756244
0.23500001 157708.12894798 8932.58884609
0.23600001 155341.72535253 6626.87831697
0.23700001 153014.32788084 5462.61176372
0.23800001 150724.81310710 7564.87872765
0.23900001 148472.98007748 6414.03304273
0.24000001 146257.60992838 6344.65541880
0.24100001 144079.74785151 5753.10460384
0.24200001 141937.67102679 5690.99118901
0.24300001 139829.78121444 7164.87832835
0.24400001 137756.82312119 6581.33253594
0.24500001 135717.05574540 6009.55151268
0.24600001 133710.94983527 6440.18820347
0.24700001 131738.03199807 6370.85152881
0.24800001 129796.98078203 6302.29270001
0.24900001 127886.31914358 6714.03207266
0.25000001 126007.69304894 5693.02784128
0.25100001 124158.79078729 4693.20251379
0.25200001 122341.33457789 4642.85386688
0.25300001 120551.58840989 8267.42832429
0.25400001 118791.66965212 5452.53789500
0.25500001 117058.47207546 4495.04554037
0.25600001 115354.16533104 4891.59361230
0.25700001 113675.94053022 5719.03683866
0.25800001 112024.60508650 5657.80294759
0.25900001 110400.18512212 6458.41113522
0.26000001 108800.47944528 4259.53897182
0.26100001 107225.52284766 7163.73752041
0.26200001 105676.72646295 7087.20999558
0.26300001 104150.15318733 5361.65013978
0.26400001 102648.68931857 6528.45694958
0.26500001 101170.11059816 4844.02512465
0.26600001 99714.06152326  3993.54835298
0.26700001 98280.64671468  4741.05862186
0.26800001 96869.42507965  4690.41778431
0.26900001 95478.94135066  6573.72542307
0.27000001 94110.25985156  5355.81514160
0.27100001 92761.83346735  4163.15128303
0.27200001 91434.50851105  7114.06227136
0.27300001 90126.71633444  4074.62903831
0.27400001 88837.33038120  4397.44806198
0.27500001 87568.95319258  3625.35483374
0.27600001 86317.07197173  3945.12196117
0.27700001 85085.81494860  4257.69438153
0.27800001 83871.50139205  3510.02249938
0.27900001 82675.39304141  4861.31334091
0.28000001 81496.36598828  5152.60798347
0.28100001 80334.68921241  5097.23627177
0.28200001 79190.21935725  5378.59995331
0.28300001 78062.02618085  5320.70795632
0.28400001 76949.49828097  4276.46856937
0.28500001 75853.44216377  5206.58051656
0.28600001 74772.92053134  3540.87181936
0.28700001 73708.34834753  3184.20079933
0.28800001 72657.37878849  3464.66727152
0.28900001 71622.99237185  4050.28041034
0.29000001 70602.47596380  3698.15786603
0.29100001 69596.99322500  3353.18329230
0.29200001 68605.18730793  3316.71793740
0.29300001 67627.61614206  3578.85361565
0.29400001 66662.97427428  3834.78777665
0.29500001 65713.32771410  3792.97345521
0.29600001 64775.55535742  3751.47646611
0.29700001 63851.44687073  3995.82373432
0.29800001 62940.56757240  2822.88458925
0.29900001 62042.58589302  3629.49144656
0.30000001 61156.27605755  3589.56779313
0.30100001 60283.53339340  3003.92861120
0.30200001 59421.85519827  3510.94048060
0.30300001 58573.17700174  4006.40549659
0.30400001 57736.14217933  3169.71435570
0.30500001 56911.47616612  3395.90794360
0.30600001 56097.10155361  2841.59881373
0.30700001 55295.11205453  4598.34173616
0.30800001 54504.28733188  2526.27383744
0.30900001 53724.79513205  2748.02340111
0.31000001 52956.52143600  3952.67494712
0.31100001 52198.73737927  2687.19112751
0.31200001 51452.77618987  3140.42034343
0.31300001 50716.80778919  2627.63793597
0.31400001 49992.80622079  3543.24030866
0.31500001 49278.12551752  3503.67489018
0.31600002 48575.08197515  2309.74525728
0.31700002 47881.67665144  4111.12095195
0.31800002 47198.34937630  2710.12934951
0.31900002 46526.00802132  2679.89818892
0.32000002 45863.92779920  2870.85269652
0.32100002 45211.52833931  3057.20369106
0.32200002 44570.06085986  2375.36150600
0.32300002 43936.96569834  2135.33663405
0.32400002 43314.85758398  2111.59940721
0.32500002 42702.27547320  2505.76964342
0.32600002 42099.75962357  2890.99063025
0.32700002 41506.94939260  2450.57040818
0.32800002 40924.64079507  2019.63111887
0.32900002 40349.87732040  2396.78282633
0.33000002 39786.23477577  2963.07997524
0.33100002 39230.93028187  2149.07046261
0.33200002 38686.62640599  2512.11620463
0.33300002 38150.81824641  2102.49169312
0.33400002 37625.21592886  2079.73390895
0.33500002 37108.27392053  2618.35993183
0.33600002 36600.27312514  2590.20145173
0.33700002 36101.57900855  2562.49019938
0.33800002 35612.99664030  2354.19725440
0.33900002 35132.63778246  1970.94107294
0.34000002 34661.51274037  2127.52375276
0.34100002 34199.48795403  1929.87719664
0.34200002 33747.31620361  2430.81930127
0.34300002 33303.43123685  2577.68569981
0.34400002 32869.20294375  2041.17759948
0.34500002 32443.34191777  1852.19047781
0.34600002 32027.00712976  1833.70638006
0.34700002 31618.46698625  1980.58086582
0.34800002 31219.56124428  1961.21293025
0.34900002 30828.93093546  1780.37084584
0.35000002 30447.44289694  1603.05794445
0.35100002 30075.41629761  2064.37667244
0.35200002 29710.36901313  2045.11334788
0.35300002 29355.18550801  1558.76042430
0.35400002 29008.04513706  2162.54986739
0.35500002 28669.96232425  1837.17127275
0.35600002 28339.64830511  2428.14118179
0.35700002 28017.93342728  2256.84464446
0.35800002 27704.77972837  2088.66344265
0.35900002 27400.55093189  1627.59280245
0.36000002 27104.28900081  2348.31571026
0.36100002 26815.73488568  1892.92281524
0.36200002 26536.89824595  2311.89468469
0.36300002 26264.83161298  1864.27783619
0.36400002 26001.48186617  1850.65555949
0.36500002 25745.23954810  1837.43783358
0.36600002 25498.11896477  1965.14012170
0.36700002 25258.29898490  1394.25817001
0.36800002 25027.25507034  1385.25863376
0.36900002 24803.74055753  1927.25073261
0.37000002 24587.48928888  2462.92891873
0.37100002 24378.75845716  1904.46870089
0.37200002 24178.46418869  1893.89918961
0.37300002 23985.55563847  2422.06152311
0.37400002 23799.85194909  1472.61590911
0.37500002 23621.92170189  1731.95938123
0.37600002 23451.42213341  1591.41358136
0.37700002 23288.11146240  1716.56677721
0.37800002 23132.00704869  1446.56012932
0.37900002 22983.88860117  1310.08171233
0.38000002 22842.09869374  1435.96860241
0.38100002 22706.62551502  1561.30764438
0.38200002 22579.42094760  1426.90657438
0.38300002 22458.04364159  1552.30005005
0.38400002 22344.03578204  1677.47856581
0.38500002 22236.09583139  1416.21701059
0.38600002 22135.73050391  1541.97505995
0.38700002 22040.99912874  1539.34345208
0.38800002 21952.79344196  1409.04011383
0.38900002 21870.92639447  1919.17388204
0.39000002 21795.75384219  1917.48153511
0.39100002 21726.12750637  1277.49635790
0.39200002 21662.99621320  1532.44042472
0.39300002 21605.29532096  1659.93491815
0.39400002 21554.71594825  1787.96377262
0.39500002 21508.67477639  1533.13841070
0.39600002 21468.50492520  1406.29448175
0.39700002 21433.27972273  1663.43691809
0.39800002 21404.65524255  1409.17554466
0.39900002 21380.43722439  1282.82629424
0.40000002 21361.78388224  1413.40249753
0.40100002 21348.01415766  1544.74237764
0.40200002 21339.68362804  1547.98072372
0.40300002 21335.96590785  1939.43939291
0.40400002 21337.04449663  2203.58337480
0.40500002 21342.36252222  1559.69992702
0.40600002 21353.35442998  1433.98458469
0.40700002 21368.08846658  1307.72707612
0.40800002 21387.08435506  1574.51722482
0.40900002 21409.96426780  2238.41187026
0.41000002 21437.69491384  1585.96074487
0.41100002 21469.05645867  1592.14530241
0.41200002 21503.49806980  2131.42682967
0.41300002 21543.14209314  1337.82918737
0.41400002 21585.55176352  1746.81085923
0.41500002 21631.52267763  1349.80707904
0.41600002 21680.10061803  1762.91746529
0.41700002 21733.27531331  1771.47935473
0.41800002 21789.88283601  1917.29188159
0.41900002 21847.83957358  1789.33814586
0.42000002 21909.28103808  1936.99962836
0.42100002 21974.20600140  1669.16076696
0.42200002 22041.49626518  1398.53300430
0.42300002 22110.98684683  2109.38824514
0.42400002 22182.91185087  1414.16069750
0.42500002 22257.65328841  1848.94334628
0.42600002 22333.24978963  1859.57813185
0.42700002 22412.36101037  1438.87364505
0.42800002 22492.56993091  1736.87633237
0.42900002 22575.54332375  1892.95939740
0.43000002 22659.99676591  1611.46574637
0.43100002 22744.66275619  1768.62505973
0.43200002 22832.16534966  1631.24413071
0.43300002 22920.20172107  2238.15780412
0.43400002 23010.09684947  1651.54977964
0.43500002 23100.54752877  2417.24140796
0.43600002 23192.79710019  2280.43188294
0.43700002 23285.22016720  1988.79074873
0.43800002 23377.95745347  1539.43857126
0.43900002 23472.48688586  1704.10262867
0.44000002 23566.94365760  1714.84873651
0.44100002 23662.23981005  2196.32920325
0.44200002 23757.72955948  1736.57132445
0.44300002 23853.58694026  1906.37875861
0.44400002 23949.39010020  1758.48405144
0.44500002 24044.78927404  1769.45612653
0.44600002 24140.12254666  1780.45482281
0.44700002 24236.18399017  2280.14029785
0.44800002 24331.08332285  2294.17795524
0.44900002 24426.10850090  1648.76240195
0.45000002 24520.95006930  2322.37929113
0.45100002 24614.26810471  2002.61694791
0.45200002 24707.57506451  2014.65576624
0.45300002 24799.78801998  1857.75220862
0.45400002 24891.17964446  2038.58770950
0.45500002 24982.18894175  2221.41634598
0.45600002 25071.62354862  2062.39185085
0.45700002 25160.34981066  2247.07094809
0.45800002 25247.45619863  2085.94492999
0.45900002 25333.38430225  1922.80395967
0.46000002 25418.50323016  2636.53437251
0.46100002 25501.30407336  2297.41259285
0.46200002 25583.27732553  2309.78630281
0.46300002 25663.55278789  2322.03836630
0.46400002 25741.59923028  2154.57195769
0.46500002 25819.16755284  2165.71187698
0.46600002 25893.77979185  2176.63123247
0.46700002 25966.81976955  2552.01916791
0.46800002 26038.45993360  2381.34746609
0.46900002 26107.52382662  3128.98687892
0.47000002 26174.72449022  2773.86655932
0.47100002 26240.13466915  2600.92227168
0.47200002 26303.36915904  2426.09136937
0.47300002 26364.31725923  1874.50304598
0.47400002 26422.52946928  2070.86584531
0.47500002 26478.94124991  2457.77544331
0.47600002 26533.60522485  2278.17545259
0.47700002 26584.79316227  1906.12976008
