# SAXS profile: number of points = 501, q_min = 0, q_max = 0.5, delta_q = 0.001
#    q    intensity    error
0.00000000 1682732.95097188 403.85590823
0.00100000 1682651.32622203 504.79540985
0.00200000 1682406.39952596 832.79119414
0.00300000 1681998.38173647 1211.03887799
0.00400000 1681427.13762758 1513.28448137
0.00500000 1680693.18562019 2420.19828309
0.00600000 1679796.46374754 2116.54363049
0.00700000 1678737.45887381 3021.72755156
0.00800000 1677516.02728847 2717.57607894
0.00900000 1676133.39803309 2765.62022498
0.01000000 1674588.97513782 2763.07192829
0.01100000 1672883.98731242 3011.19130827
0.01200000 1671018.37471481 3584.33457091
0.01300000 1668993.31646558 4205.86334299
0.01400000 1666808.72659332 4125.35178120
0.01500000 1664466.12734397 5592.60643691
0.01600000 1661964.89262164 5085.61279877
0.01700000 1659307.29041705 6272.18183914
0.01800000 1656493.22554914 5665.20708630
0.01900000 1653523.34871219 5952.68432396
0.02000000 1650398.88679026 8837.88643855
0.02100000 1647121.75208362 5979.05223114
0.02200000 1643690.55388166 6237.80593538
0.02300000 1640108.60535332 6494.83037283
0.02400000 1636375.12600056 7363.68840277
0.02500000 1632493.03521258 9550.08469215
0.02600000 1628462.03000428 7254.79867549
0.02700000 1624284.39648354 7504.19425545
0.02800000 1619959.92136068 8456.19117730
0.02900000 1615491.07988526 7996.68121259
0.03000000 1610879.37619977 8239.64838800
0.03100000 1606124.82602960 10022.21937558
0.03200000 1601229.21119471 12681.73593676
0.03300000 1596196.18301583 8954.66099953
0.03400000 1591023.70631315 10023.44981226
0.03500000 1585715.24417410 11131.72152814
0.03600000 1580272.07732887 10524.61252139
0.03700000 1574695.69321638 8975.76586644
0.03800000 1568987.75881793 10096.43669525
0.03900000 1563150.38942496 13130.46387924
0.04000000 1557183.36261535 10534.34593624
0.04100000 1551090.77921578 11726.24683458
0.04200000 1544873.21308571 10960.87595535
0.04300000 1538531.86815759 13200.60404154
0.04400000 1532069.94253773 16546.35614785
0.04500000 1525488.89460388 16841.39817896
0.04600000 1518788.73799998 17131.93776105
0.04700000 1511974.02493460 14152.07753157
0.04800000 1505044.67053091 16593.11826465
0.04900000 1498004.46831570 14605.54424593
0.05000000 1490853.41166284 15967.04078243
0.05100000 1483595.59568102 13886.45542246
0.05200000 1476229.49256490 12909.62751409
0.05300000 1468761.31953715 19035.14758858
0.05400000 1461190.71157411 13260.30632591
0.05500000 1453520.34269965 12209.57144824
0.05600000 1445751.25380103 13597.29117650
0.05700000 1437888.60568363 18764.44718007
0.05800000 1429931.10879489 16451.35817484
0.05900000 1421881.58516572 12796.93486418
0.06000000 1413743.73040358 20697.20918006
0.06100000 1405519.06676868 18299.85910451
0.06200000 1397209.33080786 14523.99167265
0.06300000 1388817.95463894 17332.44888428
0.06400000 1380343.81460253 16150.02338613
0.06500000 1371792.69574974 17654.97282016
0.06600000 1363165.78318222 21919.70681916
0.06700000 1354464.50034188 16578.64626005
0.06800000 1345692.02789992 16713.49576886
0.06900000 1336851.04684722 14036.93664909
0.07000000 1327942.00582892 28285.16604871
0.07100000 1318968.52457039 15669.34680581
0.07200000 1309932.41560125 18646.88880963
0.07300000 1300836.75851333 15883.21756567
0.07400000 1291683.57833874 20344.01731224
0.07500000 1282474.55797816 17544.25277548
0.07600000 1273210.95855496 19117.26343893
0.07700000 1263898.04203273 19223.89012070
0.07800000 1254535.78958289 19326.12474485
0.07900000 1245126.22291934 14941.51537584
0.08000000 1235674.14433473 16514.78571376
0.08100000 1226179.64006946 18098.41233657
0.08200000 1216644.98591316 16661.95386395
0.08300000 1207073.27215648 15209.12394297
0.08400000 1197466.50753806 21374.77816286
0.08500000 1187826.72127732 18387.55850858
0.08600000 1178156.20667786 18449.92706283
0.08700000 1168458.43642266 15423.65208504
0.08800000 1158732.84026882 24750.53463052
0.08900000 1148985.02891031 20164.68820451
0.09000000 1139214.70738900 27990.50667542
0.09100000 1129424.78012129 17144.66896772
0.09200000 1119616.77114016 21866.11656778
0.09300000 1109795.87285442 21907.37155962
0.09400000 1099959.14818764 21944.18603766
0.09500000 1090112.12223014 17267.37682774
0.09600000 1080255.88589399 17289.49626647
0.09700000 1070394.96115958 18881.76800254
0.09800000 1060528.97246036 17323.74157966
0.09900000 1050661.05168816 17335.90816803
0.10000000 1040791.31768517 15767.98920445
0.10100000 1030923.01755964 17350.43520155
0.10200000 1021058.53073985 22085.49705872
0.10300000 1011198.97396212 17352.17520945
0.10400000 1001348.15554484 15771.23419179
0.10500000 991507.66673751 23647.45896429
0.10600001 981675.35492185 17331.47920665
0.10700001 971859.05853656 20467.35273593
0.10800001 962056.69812435 17302.59053006
0.10900001 952272.03547174 18854.98718976
0.11000001 942505.47825645 18831.26034194
0.11100001 932760.11059008 21938.51883380
0.11200001 923036.47738115 17210.01593097
0.11300001 913337.19933798 17179.87352839
0.11400001 903663.77883392 15588.20091885
0.11500001 894018.85651534 18667.11460304
0.11600001 884402.32941090 15521.26161208
0.11700001 874817.87892918 15484.27718628
0.11800001 865264.05444075 16989.46050912
0.11900001 855744.04602901 16943.73290945
0.12000001 846259.07729690 21503.44416703
0.12100001 836813.82255655 22970.54051128
0.12200001 827405.53182150 21371.88589381
0.12300001 818038.52226765 21301.72412347
0.12400001 808711.39818977 21228.67520272
0.12500001 799426.88376924 22663.75322279
0.12600001 790188.45663569 18063.70896992
0.12700001 780994.64376964 31489.70552079
0.12800001 771847.53449045 20909.35069479
0.12900001 762749.01371036 17848.32776205
0.13000001 753700.05267571 17772.24807979
0.13100001 744700.71198241 19168.59722999
0.13200001 735753.93518606 19081.77920857
0.13300001 726860.25094935 20453.84842597
0.13400001 718019.57822273 21809.84571675
0.13500001 709235.14199920 17362.07709473
0.13600001 700506.46294534 21593.11273842
0.13700001 691835.38227396 15753.09239719
0.13800001 683220.62275669 19943.21091870
0.13900001 674667.08787869 17001.61141631
0.14000001 666172.26040206 15498.49836917
0.14100001 657739.33007341 15410.83323044
0.14200001 649367.68219998 16714.72492818
0.14300001 641059.71374178 22155.02475192
0.14400001 632812.07103826 13763.66319431
0.14500001 624631.59698210 19151.20566687
0.14600001 616514.73100465 14953.56550594
0.14700001 608464.88260154 14858.71313411
0.14800001 600478.78890676 17446.91203481
0.14900001 592560.73430806 14665.87886607
0.15000001 584709.52733264 18541.13998654
0.15100001 576926.73548149 14469.32320861
0.15200001 569213.33919116 19595.17012629
0.15300001 561568.86891919 15566.68978102
0.15400001 553991.87826693 15456.37413305
0.15500001 546486.48189747 12787.78427989
0.15600001 539049.84883255 15233.54944695
0.15700001 531686.82639049 16381.27189424
0.15800001 524391.43351384 23762.79893125
0.15900001 517169.96861191 17376.91176556
0.16000001 510017.51923160 13548.61603792
0.16100001 502939.45704960 14665.71525985
0.16200001 495932.85572517 12125.55889488
0.16300001 488998.35809045 14435.23221229
0.16400001 482137.04591671 13126.18169476
0.16500001 475347.38909297 16570.61076610
0.16600001 468631.55254839 16434.90932381
0.16700001 461987.17579883 11642.07737981
0.16800001 455416.17901334 12699.28075140
0.16900001 448919.62837251 12592.19617043
0.17000001 442494.49703412 15889.97813881
0.17100001 436143.03205317 19129.23428916
0.17200001 429863.93491154 13385.96356527
0.17300001 423658.21948580 13268.97606092
0.17400001 417525.98037916 13152.06900306
0.17500001 411465.24348247 10862.68294096
0.17600001 405476.21579727 13995.01224921
0.17700001 399562.23024085 13868.80566669
0.17800001 393718.72486821 13742.75274062
0.17900001 387946.86385565 14664.39214640
0.18000001 382248.63295426 12453.66104990
0.18100001 376622.07866711 15422.67484993
0.18200001 371064.61874537 12222.86911886
0.18300001 365579.33915249 15134.98535588
0.18400001 360164.48788963 14991.84751663
0.18500001 354820.62479990 12869.34466947
0.18600001 349547.15942083 11765.75794196
0.18700001 344342.49288835 11652.55050986
0.18800001 339205.86179096 13463.08129056
0.18900001 334141.73957777 11427.64803349
0.19000001 329142.43030638 12258.91039598
0.19100001 324213.68691149 10271.09008667
0.19200001 319351.06005859 11094.25635065
0.19300001 314557.91812545 12815.09018998
0.19400001 309829.44429111 13593.76751063
0.19500001 305168.20834975 11663.52947429
0.19600001 300571.62795490 9770.08122837
0.19700001 296042.23608753 9671.70031004
0.19800001 291576.49240339 8703.55870956
0.19900001 287175.29599314 9476.78521565
0.20000001 282836.59712424 8527.52380632
0.20100001 278562.56514473 9284.49073508
0.20200001 274349.80828204 11695.53287983
0.20300001 270199.83456178 10748.54992689
0.20400001 266111.33118146 10637.80096678
0.20500001 262083.13188150 11337.71682109
0.20600001 258115.06025848 10418.81489981
0.20700001 254206.80929972 9517.50339007
0.20800001 250356.95540147 9418.42910741
0.20900001 246568.21324686 8543.58899287
0.21000001 242833.87593629 11528.53880506
0.21100001 239158.39773583 8365.76114828
0.21200001 235538.31491376 11288.17427588
0.21300001 231974.06671032 10424.91505080
0.21400001 228465.17279543 7368.00217099
0.21500001 225011.88060780 8748.46233164
0.21600001 221611.00398267 7934.78237274
0.21700001 218263.81297965 8564.67242626
0.21800001 214969.23676681 10592.60964251
0.21900001 211725.70567383 7685.64347935
0.22000001 208532.92764905 7604.15356627
0.22100001 205392.24632566 9575.38697646
0.22200001 202300.80774312 8120.35480678
0.22300001 199258.00455927 8034.08312372
0.22400001 196263.11431692 7948.65650570
0.22500001 193318.26102164 7864.18723024
0.22600001 190418.42728114 9725.62163329
0.22700001 187566.11465038 10263.61827903
0.22800001 184758.89376370 7615.76196109
0.22900001 181996.35699861 8162.53699740
0.23000001 179278.88833481 9318.02066187
0.23100001 176606.20721921 7989.66519245
0.23200001 173974.94923393 9728.67962127
0.23300001 171387.15600157 6617.25840618
0.23400001 168839.94469413 6546.76916515
0.23500001 166334.03578234 6477.04765970
0.23600001 163869.01148220 9320.86981396
0.23700001 161443.56141453 6339.88895661
0.23800001 159057.03706904 6272.41455349
0.23900001 156709.16609613 6205.68327093
0.24000001 154398.70794046 7814.11897848
0.24100001 152126.58486842 8835.51246709
0.24200001 149890.99085279 7102.58493753
0.24300001 147690.80591577 5946.03212743
0.24400001 145525.91325826 7487.30859131
0.24500001 143395.43632676 6349.55022091
0.24600001 141299.32315692 6805.68222180
0.24700001 139237.53391778 7251.49110948
0.24800001 137208.33316756 5124.73148624
0.24900001 135210.07767292 7098.52941364
0.25000001 133245.14116222 5518.34778230
0.25100001 131310.54706174 4963.53891375
0.25200001 129408.54583569 7366.58182021
0.25300001 127534.84413644 7774.52446637
0.25400001 125691.94452189 5769.26052651
0.25500001 123876.31567150 7135.27612026
0.25600001 122090.75023755 6589.23810207
0.25700001 120332.24815963 5122.54404652
0.25800001 118601.07469928 6450.71275810
0.25900001 116897.96917492 6382.62941894
0.26000001 115220.17566685 4961.95709987
0.26100001 113568.26319961 4463.23295493
0.26200001 111942.80330630 6182.60131915
0.26300001 110341.03993039 4369.50538800
0.26400001 108764.59414938 4755.73210421
0.26500001 107212.24719966 5561.09952539
0.26600001 105683.09569169 6348.91227411
0.26700001 104177.39649111 6281.89730567
0.26800001 102694.80127202 4558.10897015
0.26900001 101233.56154858 6559.93509877
0.27000001 99794.89202347  4462.32880800
0.27100001 98377.40152185  5619.31744085
0.27200001 96981.66674659  4765.67932946
0.27300001 95606.50834603  4322.37044688
0.27400001 94250.04520895  4665.37745863
0.27500001 92915.78004472  4231.38482349
0.27600001 91598.89524820  6089.49484429
0.27700001 90303.01127977  4142.19932344
0.27800001 89024.90645806  5588.53876739
0.27900001 87765.67404673  4054.77433286
0.28000001 86524.37555091  5470.50390312
0.28100001 85301.05580767  3608.23483144
0.28200001 84095.79686236  3926.85342034
0.28300001 82907.43580559  3531.85693248
0.28400001 81735.44634491  3494.19049663
0.28500001 80580.87190521  5185.37935253
0.28600001 79442.34412404  5129.98961462
0.28700001 78320.49778048  8120.26959423
0.28800001 77212.83298441  4016.61176197
0.28900001 76122.77967911  3642.47518006
0.29000001 75046.81823971  4258.53190259
0.29100001 73986.69895462  3888.74108113
0.29200001 72940.98775958  4167.48353291
0.29300001 71910.24147419  3171.24179913
0.29400001 70893.06641168  3764.42200465
0.29500001 69891.31935990  4034.12714442
0.29600001 68902.31031685  3683.51768391
0.29700001 67927.47700727  3643.63003915
0.29800001 66966.54929888  3303.79486606
0.29900001 66019.26938144  3862.12744164
0.30000001 65084.02730536  3232.39836914
0.30100001 64163.15817707  2906.59120302
0.30200001 63253.83653801  3449.86440810
0.30300001 62358.20131242  3696.59434880
0.30400001 61474.74503286  3374.96366208
0.30500001 60604.23623080  4172.60186203
0.30600001 59744.59110154  3851.73397067
0.30700001 58897.91856431  3265.30075980
0.30800001 58063.01334692  4036.83119406
0.30900001 57240.08114491  3726.32945895
0.31000001 56428.92599567  3948.61428349
0.31100001 55628.62267349  3384.44556369
0.31200001 54840.62793807  4119.62816575
0.31300001 54063.18499943  3055.65136084
0.31400001 53298.36421809  2518.34782854
0.31500001 52543.09475772  3486.75993321
0.31600002 51800.36531881  3202.03973379
0.31700002 51067.66354574  3897.48426635
0.31800002 50345.49297318  2649.93514811
0.31900002 49634.82997142  3811.95512230
0.32000002 48935.04757062  3298.71171293
0.32100002 48245.13426010  3495.36014265
0.32200002 47566.82101912  2535.07384625
0.32300002 46897.35977961  2279.21179321
0.32400002 46239.49667080  2930.42824027
0.32500002 45591.27945155  2452.35503782
0.32600002 44953.55123222  2425.46897159
0.32700002 44326.15978350  2617.01659754
0.32800002 43709.63088080  2588.48446333
0.32900002 43101.24035917  2986.91609833
0.33000002 42504.14727495  2110.33101213
0.33100002 41915.90618127  2087.41222668
0.33200002 41339.10468639  2064.88837687
0.33300002 40771.30515475  4493.81346696
0.33400002 40213.72350941  3031.10955306
0.33500002 39665.66129497  3198.63907830
0.33600002 39126.76485992  2571.21547453
0.33700002 38597.48983390  2348.27139270
0.33800002 38078.66361649  2323.56016392
0.33900002 37568.50483437  2682.39137221
0.34000002 37067.97034025  2085.62944997
0.34100002 36577.06339002  1876.40344077
0.34200002 36096.00456795  2414.28137986
0.34300002 35623.68264683  2022.00032279
0.34400002 35161.30679724  1819.59771293
0.34500002 34707.87465800  1981.47265807
0.34600002 34264.27185109  1783.45543431
0.34700002 33828.49946373  2119.01730677
0.34800002 33402.96899368  1923.51006060
0.34900002 32985.91844834  2943.99336095
0.35000002 32578.35032716  1715.25022596
0.35100002 32180.39153862  1869.03722909
0.35200002 31789.84104000  2019.92659535
0.35300002 31409.51093224  1834.62962045
0.35400002 31037.29859674  1983.28347427
0.35500002 30674.38859527  2129.41615714
0.35600002 30319.84289011  2273.07872913
0.35700002 29973.86954273  3219.19374137
0.35800002 29637.05684847  2074.74226295
0.35900002 29309.24955739  1582.69955106
0.36000002 28989.68395555  1883.74975266
0.36100002 28678.04075128  1868.66122386
0.36200002 28376.48765765  1699.60980876
0.36300002 28081.77092946  2913.20305421
0.36400002 27795.98404425  1521.83019851
0.36500002 27517.85186166  2115.02219427
0.36600002 27248.72774666  1800.05104021
0.36700002 26987.28859321  2234.54760136
0.36800002 26734.83371922  2663.59160962
0.36900002 26490.05417467  2205.29711450
0.37000002 26252.72281119  2337.54254984
0.37100002 26023.25448551  1887.72696980
0.37200002 25802.49632180  1588.01471135
0.37300002 25589.11661770  1579.10446128
0.37400002 25383.23151500  2141.71026053
0.37500002 25185.26090239  1562.49366040
0.37600002 24995.01578389  2402.89595621
0.37700002 24812.11954852  1828.90141856
0.37800002 24636.42227772  1680.69680740
0.37900002 24469.07700152  1813.15869171
0.38000002 24308.19941755  1528.13502878
0.38100002 24153.80026532  2076.01923115
0.38200002 24007.76900994  1655.09567395
0.38300002 23868.01957891  1787.23739074
0.38400002 23735.57313683  1507.80235495
0.38500002 23609.32261968  1640.37581333
0.38600002 23490.89958093  1636.37614233
0.38700002 23378.17039603  1632.73149781
0.38800002 23272.07798708  1901.09614083
0.38900002 23172.56053593  1897.83279780
0.39000002 23079.93593925  2030.45746045
0.39100002 22992.76372604  1487.17202826
0.39200002 22912.64324708  1890.98053677
0.39300002 22837.76379024  1619.65428474
0.39400002 22770.25415252  1888.79267144
0.39500002 22707.19517952  1618.56894908
0.39600002 22650.31743670  1618.59176071
0.39700002 22598.57910904  1618.96228408
0.39800002 22553.51195686  1484.81053003
0.39900002 22512.94531330  1485.85446108
0.40000002 22478.05155138  1757.67132434
0.40100002 22448.04534282  1624.34063797
0.40200002 22423.68982809  2033.26817150
0.40300002 22404.13406639  1764.99776538
0.40400002 22389.43960775  1768.20607680
0.40500002 22379.22240044  1908.05259227
0.40600002 22374.50512482  1912.34904363
0.40700002 22373.79570715  1780.05927080
0.40800002 22377.32061654  1647.41842185
0.40900002 22385.03846934  1652.01591731
0.41000002 22397.64731489  1656.97802687
0.41100002 22414.01724619  1385.18633145
0.41200002 22433.43102779  1806.67645343
0.41300002 22458.23420133  1952.51897398
0.41400002 22485.78693234  1539.71433315
0.41500002 22517.03037749  1686.07531456
0.41600002 22550.86251923  1551.61216916
0.41700002 22589.51650933  1982.90785315
0.41800002 22631.77867929  1706.88882887
0.41900002 22675.29007173  1571.39767643
0.42000002 22722.47554178  1721.90927815
0.42100002 22773.40572411  1729.86798077
0.42200002 22826.42765552  1593.17059371
0.42300002 22881.96576456  1455.29309159
0.42400002 22939.89274784  1901.14370156
0.42500002 23000.79322872  2057.65105975
0.42600002 23062.70960191  1624.88328200
0.42700002 23127.93715225  1633.29499909
0.42800002 23194.52286395  1791.08114043
0.42900002 23264.00836127  2100.74005457
0.43000002 23335.01492478  1659.46966501
0.43100002 23406.22420292  1820.06808027
0.43200002 23480.31104498  1830.05552957
0.43300002 23555.15869899  1533.44090397
0.43400002 23631.84400623  1696.17568393
0.43500002 23709.24123841  1705.64289552
0.43600002 23788.42317815  1715.26433455
0.43700002 23867.82933104  2038.55139977
0.43800002 23947.74532506  2207.74274614
0.43900002 24029.42476891  1744.53632090
0.44000002 24111.11575304  1913.94045918
0.44100002 24193.69685175  2085.25483047
0.44200002 24276.57335770  1774.49621368
0.44300002 24359.78722609  2109.07047798
0.44400002 24443.12461317  1957.89437430
0.44500002 24526.18967645  1804.88238383
0.44600002 24609.06605440  1815.04175286
0.44700002 24693.01839697  2157.18218939
0.44800002 24775.50427987  2336.08240926
0.44900002 24858.49745434  1677.94865769
0.45000002 24941.27652286  1687.27743674
0.45100002 25022.69861917  2205.50076082
0.45200002 25104.06590339  2046.98563077
0.45300002 25184.30207775  1715.05105278
0.45400002 25264.02014448  2241.55029355
0.45500002 25343.34108717  2600.22691878
0.45600002 25421.10080799  2613.92481447
0.45700002 25498.25666646  2452.42244241
0.45800002 25573.91595947  2465.06987616
0.45900002 25648.32777692  2123.68164058
0.46000002 25721.99994110  1778.67638023
0.46100002 25793.51295105  1966.23958545
0.46200002 25864.20065117  1975.89570239
0.46300002 25933.43209158  2346.45704686
0.46400002 26000.45177234  1994.88475678
0.46500002 26066.98237445  2004.29036977
0.46600002 26130.75264223  2196.55117121
0.46700002 26192.79510429  2206.48116416
0.46800002 26253.77430757  2955.12497612
0.46900002 26312.05283010  2225.99977493
0.47000002 26368.62551172  1862.94348070
0.47100002 26423.46959690  2619.09443058
0.47200002 26476.21875312  3005.58049531
0.47300002 26526.83103173  2074.66355332
0.47400002 26574.71291788  2840.17257772
0.47500002 26620.80957860  2851.08884100
0.47600002 26665.25877806  3052.63896960
0.47700002 26706.43530655  3063.76240358
