# SAXS profile: number of points = 501, q_min = 0, q_max = 0.5, delta_q = 0.001
#    q    intensity    error
0.00000000 1664650.74656090 399.51617917
0.00100000 1664569.56556954 649.18214599
0.00200000 1664325.96160620 973.63071837
0.00300000 1663920.15205475 1497.52819020
0.00400000 1663352.00872413 1372.26545934
0.00500000 1662622.02872324 1795.63186209
0.00600000 1661730.16250705 2268.26176417
0.00700000 1660676.90576161 2989.21855460
0.00800000 1659462.10198407 2688.32871872
0.00900000 1658086.96878603 3233.26972735
0.01000000 1656550.93530143 4099.96374191
0.01100000 1654855.21466432 4468.10927413
0.01200000 1652999.72959555 3868.01953684
0.01300000 1650985.66319724 3467.07004563
0.01400000 1648812.96680976 3709.82933978
0.01500000 1646483.14714457 4741.87167493
0.01600000 1643995.55623879 4611.40774140
0.01700000 1641352.43910173 4874.81696281
0.01800000 1638553.72337252 5136.86615392
0.01900000 1635600.10886687 5888.16065761
0.02000000 1632492.72514547 5142.35231683
0.02100000 1629233.54140325 6451.76511647
0.02200000 1625821.11446759 6730.89971970
0.02300000 1622258.89678932 8176.18521198
0.02400000 1618545.91504255 7283.45694980
0.02500000 1614685.19240899 8816.18155319
0.02600000 1610676.40895999 7827.88770558
0.02700000 1606521.85976408 8096.87054406
0.02800000 1602221.29793386 12545.39333815
0.02900000 1597777.14900022 8627.99700075
0.03000000 1593191.03793225 9630.84026698
0.03100000 1588462.95143057 9149.54702124
0.03200000 1583594.45499558 8622.67220460
0.03300000 1578589.49139807 8855.88745500
0.03400000 1573445.98890383 9912.71018747
0.03500000 1568167.24038002 9314.91383800
0.03600000 1562754.55886508 16479.24758480
0.03700000 1557209.43813657 9763.70362866
0.03800000 1551533.64896290 9984.11949314
0.03900000 1545729.18719904 10201.81310796
0.04000000 1539795.98431400 13257.64403929
0.04100000 1533737.83228406 11595.05854969
0.04200000 1527555.55186224 13793.82727325
0.04300000 1521250.23591456 14056.35283232
0.04400000 1514825.20816267 13292.59181896
0.04500000 1508281.83374400 12488.57416368
0.04600000 1501620.05425025 11645.06406205
0.04700000 1494844.46833658 11839.16873984
0.04800000 1487955.11001620 13123.76468097
0.04900000 1480955.55244561 12217.88387639
0.05000000 1473845.80163229 11274.92090752
0.05100000 1466630.17350910 18303.54541805
0.05200000 1459307.00085207 20882.68415535
0.05300000 1451882.38347932 12936.27263986
0.05400000 1444356.16471148 14299.12669747
0.05500000 1436730.86777068 19309.66376362
0.05600000 1429007.49979051 15883.41910136
0.05700000 1421191.35005721 16073.67491944
0.05800000 1413281.14237801 18761.30804108
0.05900000 1405279.41220250 12647.51530054
0.06000000 1397190.16045226 14062.71962195
0.06100000 1389014.76951258 15501.40555216
0.06200000 1380754.86094984 15657.76085507
0.06300000 1372414.17694044 15810.21205757
0.06400000 1363991.24114954 14628.80674547
0.06500000 1355492.03994035 17445.18337008
0.06600000 1346917.71161422 17597.48072560
0.06700000 1338269.54714093 13650.35001966
0.06800000 1329550.91555307 16513.02314413
0.06900000 1320764.46465395 16641.63303378
0.07000000 1311910.48724630 22354.95574953
0.07100000 1302992.72187024 19701.25087744
0.07200000 1294012.96891561 17003.33120810
0.07300000 1284974.18297606 18542.17832915
0.07400000 1275878.44190429 17224.35977291
0.07500000 1266727.59122141 17328.83426015
0.07600000 1257522.71013027 23239.02077267
0.07700000 1248268.92254385 17525.69649427
0.07800000 1238966.47378942 20554.45476409
0.07900000 1229617.37153874 14755.40915055
0.08000000 1220226.12824970 19273.47259984
0.08100000 1210793.16283360 14892.75660159
0.08200000 1201320.38539032 20939.01529992
0.08300000 1191811.20549386 15016.82189399
0.08400000 1182267.51233574 15073.91148983
0.08500000 1172691.29572741 21178.80579508
0.08600000 1163084.87615658 19731.73585043
0.08700000 1153451.53211228 19793.22922049
0.08800000 1143790.91135581 19850.49219883
0.08900000 1134108.58033483 16841.51320901
0.09000000 1124404.26210522 18417.74267847
0.09100000 1114680.76061529 15382.59521918
0.09200000 1104939.62444308 16955.29933375
0.09300000 1095186.13070693 24707.40026980
0.09400000 1085417.29047932 18560.63653950
0.09500000 1075638.39494756 15489.19361528
0.09600000 1065850.69165242 17058.94112180
0.09700000 1056058.68278045 17076.46970337
0.09800000 1046262.05899711 18644.39076794
0.09900000 1036464.06069865 17101.65780569
0.10000000 1026664.54979789 17109.36552699
0.10100000 1016866.82769919 17113.86951507
0.10200000 1007073.40720994 15559.28487324
0.10300000 997285.22548742 17113.41527439
0.10400000 987505.94124539 23329.82895948
0.10500000 977737.49163093 20209.83490287
0.10600001 967977.63300275 18643.25008886
0.10700001 958233.91575208 17075.72918225
0.10800001 948504.53643975 18609.65988075
0.10900001 938793.33035442 15490.09067990
0.11000001 929100.34395135 17016.47360043
0.11100001 919428.70512542 26258.88505448
0.11200001 909779.43285874 16962.83832421
0.11300001 900154.54812998 21549.70089681
0.11400001 890555.94013027 15362.09069056
0.11500001 880985.91926480 19927.90243213
0.11600001 871444.72484562 16823.24120538
0.11700001 861935.62274393 15256.26124106
0.11800001 852457.59151350 18259.64247022
0.11900001 843013.62327829 15174.24593374
0.12000001 833604.79485981 16642.92051334
0.12100001 824235.79954475 16591.86742645
0.12200001 814904.17895445 16538.48109103
0.12300001 805613.71872997 28470.39016128
0.12400001 796363.75561081 17918.18534550
0.12500001 787156.22434531 22315.88001172
0.12600001 777995.10761745 16302.88824837
0.12700001 768878.78143283 22143.70994882
0.12800001 759809.20684173 17642.77061436
0.12900001 750788.52863936 16104.41469835
0.13000001 741817.29835160 17492.05271962
0.13100001 732896.21027470 17413.61477696
0.13200001 724027.24530246 17333.21306963
0.13300001 715211.86552374 18688.48692717
0.13400001 706449.41277488 15736.16141145
0.13500001 697743.38698032 15657.36234205
0.13600001 689093.21198852 16993.03940887
0.13700001 680500.62128154 21129.54528712
0.13800001 671964.57323743 18213.60061648
0.13900001 663489.50789268 16719.93638738
0.14000001 655073.46854984 13854.80451323
0.14100001 646719.32692973 20662.68346992
0.14200001 638426.51685145 17802.52426206
0.14300001 630197.15537668 14973.48511801
0.14400001 622028.44743096 17587.85518073
0.14500001 613926.69983245 16133.99443267
0.14600001 605888.82763408 18703.78899140
0.14700001 597917.76169416 17255.90741657
0.14800001 590010.30768016 15824.07719854
0.14900001 582171.00936855 18338.38766033
0.15000001 574398.58430721 13010.12854841
0.15100001 566694.32333744 15504.75741810
0.15200001 559059.72616877 17962.58984940
0.15300001 551493.62576164 16561.35436314
0.15400001 543995.35491271 15177.47111830
0.15500001 536568.38065055 13811.27076974
0.15600001 529210.11594786 13709.18870063
0.15700001 521925.36350500 12369.63169888
0.15800001 514708.16053418 17186.10629140
0.15900001 507564.84003276 17054.17943007
0.16000001 500490.30846782 18130.26228004
0.16100001 493490.13886184 13190.99203445
0.16200001 486561.30503239 17844.63670444
0.16300001 479704.47644109 14160.87681305
0.16400001 472920.61026733 11704.78565669
0.16500001 466208.33257049 18573.74084650
0.16600001 459569.43934982 12663.43649916
0.16700001 453002.35815307 12557.22596089
0.16800001 446508.23993424 13582.78130013
0.16900001 440088.27620098 12344.47673032
0.17000001 433739.47202032 17800.66877226
0.17100001 427464.31449884 14337.15378531
0.17200001 421261.55686922 14211.25929208
0.17300001 415131.60895109 19502.88390954
0.17400001 409075.16262056 15033.51293628
0.17500001 403089.91621892 14898.20400706
0.17600001 397176.25893373 15817.54525908
0.17700001 391337.37601697 16717.93349304
0.17800001 385568.59846241 10352.51735769
0.17900001 379871.50374137 12307.83730256
0.18000001 374247.52806596 13209.06712702
0.18100001 368695.04835557 11071.91282512
0.18200001 363211.59672946 9970.15880119
0.18300001 357799.77528103 13825.38396996
0.18400001 352458.45775985 12714.93946435
0.18500001 347187.59893386 15498.45514859
0.18600001 341986.89898805 11511.27956377
0.18700001 336854.85388985 13299.03025988
0.18800001 331790.50099346 12228.13949185
0.18900001 326798.36055481 9313.75371586
0.19000001 321870.72004556 15676.71416052
0.19100001 317013.32738099 10955.98111196
0.19200001 312221.79113809 10846.58553665
0.19300001 307499.32468482 10737.87692539
0.19400001 302841.32284546 9743.92002299
0.19500001 298250.15403898 9645.41043742
0.19600001 293723.37348372 8679.52609661
0.19700001 289263.35341682 9450.23420272
0.19800001 284866.70258904 9353.59862155
0.19900001 280534.27274990 9257.63143826
0.20000001 276263.98524571 9995.23145858
0.20100001 272058.13338196 10716.37038040
0.20200001 267913.14467304 12236.93346130
0.20300001 263830.43828951 9687.85415188
0.20400001 259809.03997495 7989.12835684
0.20500001 255847.49832794 9486.82568641
0.20600001 251945.64945944 10169.78662114
0.20700001 248103.43187833 10837.15841671
0.20800001 244319.05058507 7659.40259790
0.20900001 240595.40270836 8336.63109793
0.21000001 236925.93936807 8248.57696903
0.21100001 233314.86132461 8161.35423495
0.21200001 229758.77394538 9543.03112696
0.21300001 226258.14578321 11620.61891680
0.21400001 222812.38544749 10059.97967856
0.21500001 219422.06052690 7820.20260690
0.21600001 216083.52254625 9846.92658798
0.21700001 212798.25895158 10437.75509507
0.21800001 209565.29723576 7572.64237365
0.21900001 206383.12476505 9534.90081497
0.22000001 203251.04160968 6737.77234794
0.22100001 200170.78813034 7998.82507190
0.22200001 197139.21043870 9891.46035147
0.22300001 194155.92770218 8480.73132305
0.22400001 191220.23256864 8389.78810067
0.22500001 188334.08598593 9576.78872524
0.22600001 185492.50156304 8210.82596996
0.22700001 182697.99226502 8747.58028331
0.22800001 179948.34224234 8653.71618767
0.22900001 177242.62923136 10395.28069602
0.23000001 174581.76734465 6049.25852457
0.23100001 171965.12265374 8976.57982705
0.23200001 169389.46532640 7696.21072109
0.23300001 166856.87625507 8199.34728696
0.23400001 164364.64414529 6952.62477617
0.23500001 161912.95880561 6304.89091409
0.23600001 159501.76457384 9072.46079806
0.23700001 157129.95925305 6170.49379172
0.23800001 154796.40482832 6659.34165069
0.23900001 152501.13145014 8235.06148782
0.24000001 150242.74956225 8146.91348036
0.24100001 148022.33324584 6447.85314118
0.24200001 145838.02727390 5847.37598014
0.24300001 143688.47571145 5784.89830578
0.24400001 141574.05116540 5202.84662644
0.24500001 139493.47211152 6176.77123729
0.24600001 137446.85894904 5601.64700146
0.24700001 135433.90907158 6549.58415254
0.24800001 133453.25887637 5482.92740032
0.24900001 131503.20330423 6903.91850008
0.25000001 129585.89229992 7318.36361386
0.25100001 127698.52704897 5309.70500589
0.25200001 125843.07962206 7163.61764639
0.25300001 124015.77742954 5670.00161233
0.25400001 122218.64405637 5609.83602760
0.25500001 120448.52774755 5087.74605277
0.25600001 118707.83035669 5033.80578444
0.25700001 116993.72580660 4980.42314323
0.25800001 115306.70404524 4927.63223052
0.25900001 113647.08041112 5318.68361489
0.26000001 112012.54058260 5262.34940556
0.26100001 110403.14036119 6508.26543224
0.26200001 108820.09533693 5151.54355701
0.26300001 107260.06351534 5521.74833105
0.26400001 105724.99768390 4202.56885679
0.26500001 104213.56670876 4158.12150844
0.26600001 102724.89314670 4936.95859825
0.26700001 101259.23230464 4884.74559752
0.26800001 99816.16934134  4430.34088586
0.26900001 98394.16567395  3984.96389837
0.27000001 96994.19485998  3942.81420764
0.27100001 95614.92051298  5851.63341231
0.27200001 94257.06019265  5017.77483681
0.27300001 92919.28861397  4964.67782559
0.27400001 91599.83562727  4534.19207813
0.27500001 90302.10105856  6729.31288935
0.27600001 89021.26528493  4438.60049717
0.27700001 87761.04046622  5123.48978490
0.27800001 86518.21392534  4344.94490896
0.27900001 85293.88767411  4298.81214223
0.28000001 84087.00372353  6379.68127444
0.28100001 82897.71907693  4207.88841950
0.28200001 81725.98475846  5550.82914751
0.28300001 80570.75860704  3775.54592702
0.28400001 79431.60492226  4074.84152538
0.28500001 78309.33088522  3359.47045398
0.28600001 77202.72068142  3323.57728265
0.28700001 76112.35062744  4932.08055411
0.28800001 75035.90291897  4879.20981825
0.28900001 73976.45828455  3217.97608770
0.29000001 72930.82777831  3501.77386153
0.29100001 71900.69899141  3464.17584138
0.29200001 70884.44330910  4049.98286017
0.29300001 69882.79706040  4314.56409474
0.29400001 68894.38642439  3658.29209231
0.29500001 67921.05808311  3618.83414597
0.29600001 66959.96792672  4772.90673975
0.29700001 66012.81803449  3540.92772699
0.29800001 65078.99445042  2918.79303927
0.29900001 64158.56594421  3175.84916458
0.30000001 63249.82157999  3426.87549543
0.30100001 62354.94086192  3107.14685024
0.30200001 61471.45048793  3352.65306833
0.30300001 60601.07123167  3039.74987689
0.30400001 59742.60147679  3553.19139105
0.30500001 58896.67916308  3514.36501204
0.30600001 58061.39371545  2941.10003790
0.30700001 57238.65969930  2644.42620330
0.30800001 56427.28054799  3138.48549267
0.30900001 55627.56829295  2586.68204809
0.31000001 54839.19803416  4604.84767694
0.31100001 54061.45266242  3542.10654614
0.31200001 53295.69060548  2752.45607164
0.31300001 52540.13169214  3217.03241582
0.31400001 51796.84486673  2936.88124300
0.31500001 51062.89458513  3146.49571331
0.31600002 50340.97348531  3111.82742333
0.31700002 49628.78373708  2367.29309635
0.31800002 48926.86246975  2809.38057603
0.31900002 48236.17014395  2315.33627654
0.32000002 47555.87170219  3663.70452941
0.32100002 46885.34029840  2943.93065673
0.32200002 46226.01672897  2687.58073988
0.32300002 45575.18320643  2879.44021133
0.32400002 44935.59817131  2190.61051458
0.32500002 44305.55098380  3033.15816398
0.32600002 43685.70316147  2357.06222569
0.32700002 43075.76061215  2543.19302697
0.32800002 42476.45139148  2515.45557052
0.32900002 41884.96014558  2695.29731300
0.33000002 41304.64771593  2050.77585621
0.33100002 40732.76237037  3245.58665936
0.33200002 40172.10416977  2207.25636813
0.33300002 39620.12446713  3572.94299364
0.33400002 39078.20076482  2160.04764957
0.33500002 38545.39243586  2136.95665784
0.33600002 38021.60102378  2498.58962960
0.33700002 37507.09947307  2472.09304334
0.33800002 37002.84391552  1881.59470221
0.33900002 36506.99740189  2606.59973794
0.34000002 36020.50375507  2579.42839606
0.34100002 35543.36276331  2005.71205572
0.34200002 35076.01326042  2165.59316126
0.34300002 34617.04555314  2143.48756216
0.34400002 34167.80791180  1945.00255749
0.34500002 33727.22098879  2100.53142266
0.34600002 33296.22835557  2426.29627518
0.34700002 32872.96955048  1887.56600099
0.34800002 32459.66604544  1699.26359796
0.34900002 32054.63123573  2187.72868545
0.35000002 31658.85719426  2166.89058329
0.35100002 31272.54839458  2972.14314019
0.35200002 30893.35345443  2290.12440004
0.35300002 30524.22707633  1945.00384143
0.35400002 30163.12644358  1927.42387103
0.35500002 29811.00698005  1751.09863295
0.35600002 29467.06585067  2051.34988636
0.35700002 29131.56322848  2190.11102725
0.35800002 28804.95679482  1551.14699687
0.35900002 28487.22233677  2615.12713438
0.36000002 28177.53285336  1830.97617154
0.36100002 27875.58834024  1816.37342229
0.36200002 27583.55145658  1802.30933754
0.36300002 27298.23693886  1639.53218821
0.36400002 27021.65382905  1627.37917894
0.36500002 26752.54091036  1909.32893521
0.36600002 26492.33746288  1895.92422034
0.36700002 26239.63804812  1593.27089775
0.36800002 25995.73998198  1582.75070378
0.36900002 25759.46046222  1858.54516039
0.37000002 25530.40806737  2131.15091437
0.37100002 25309.08026087  1694.69609455
0.37200002 25096.34951107  1684.96898599
0.37300002 24890.82158381  1536.01267270
0.37400002 24692.64785126  1944.54611040
0.37500002 24502.34432269  1658.31874232
0.37600002 24319.60773975  1375.27388283
0.37700002 24143.96219712  1779.65153785
0.37800002 23975.61722137  1499.31529396
0.37900002 23815.31876261  1493.22055715
0.38000002 23661.48504926  1893.15550848
0.38100002 23513.98456465  2021.02706907
0.38200002 23374.69573179  2148.60213345
0.38300002 23241.56207113  1472.58544259
0.38400002 23115.66604505  1601.91573281
0.38500002 22995.86456775  1597.75274586
0.38600002 22883.79882398  1594.08550160
0.38700002 22777.32803663  1590.76866544
0.38800002 22677.42948475  1984.84210969
0.38900002 22583.96828826  1585.39464894
0.39000002 22497.30952841  1451.41399299
0.39100002 22416.04172981  1449.86964777
0.39200002 22341.62778368  1712.15072632
0.39300002 22272.51421532  1842.82791348
0.39400002 22210.64316775  1973.97100506
0.39500002 22153.16459255  1579.07764697
0.39600002 22101.80335881  2237.47616904
0.39700002 22055.45164089  1448.38157788
0.39800002 22015.67818755  1976.45760293
0.39900002 21980.42788194  1318.82573540
0.40000002 21950.70721631  1980.50265243
0.40100002 21925.85466295  2115.40655811
0.40200002 21906.62273180  1721.53202894
0.40300002 21892.05991226  2387.98600837
0.40400002 21882.28731112  2259.89332913
0.40500002 21876.95559774  1465.53732493
0.40600002 21877.11103357  1869.83676863
0.40700002 21881.16741258  1874.77851274
0.40800002 21889.47054081  2282.96243822
0.40900002 21901.81547939  1481.65788738
0.41000002 21919.06515396  1486.44147385
0.41100002 21940.01610077  1627.07167113
0.41200002 21964.02387895  1768.87274690
0.41300002 21993.32097406  1638.94235664
0.41400002 22025.37548049  1508.18765749
0.41500002 22061.07823211  1514.27248160
0.41600002 22099.33546610  1797.00754857
0.41700002 22142.35444721  2221.32110340
0.41800002 22188.86514157  1394.57024023
0.41900002 22236.72667866  1961.27938599
0.42000002 22288.20930603  1548.25053281
0.42100002 22343.27531868  1414.32939469
0.42200002 22400.57524538  1705.57988000
0.42300002 22460.31606363  1714.17140320
0.42400002 22522.41282631  2440.86660571
0.42500002 22587.41740274  1876.33685256
0.42600002 22653.42346007  1596.04702551
0.42700002 22722.78469450  2042.32398512
0.42800002 22793.49039332  1906.78952921
0.42900002 22866.99408371  1474.92118829
0.43000002 22941.93734074  1631.51595130
0.43100002 23017.19231650  1938.96837262
0.43200002 23095.37014371  1500.04436192
0.43300002 23174.15197776  1961.22857482
0.43400002 23254.85581906  1820.85529692
0.43500002 23336.15628998  1526.18469369
0.43600002 23419.35231108  1842.16634009
0.43700002 23502.68876553  2316.19008760
0.43800002 23586.48599628  2485.07228233
0.43900002 23672.17464718  2031.07268098
0.44000002 23757.76517263  2200.20673690
0.44100002 23844.27170918  1738.96281816
0.44200002 23931.02267335  1908.25983841
0.44300002 24018.17690351  1599.61065758
0.44400002 24105.40641173  2574.45752678
0.44500002 24192.33675059  2589.54784850
0.44600002 24279.13575467  2279.08258130
0.44700002 24366.96058571  2456.18974344
0.44800002 24453.40277831  1811.63043069
0.44900002 24540.15178520  1822.10635640
0.45000002 24626.89546680  1999.21146874
0.45100002 24712.15179453  1675.48397107
0.45200002 24797.36264145  1853.47895848
0.45300002 24881.55922109  2033.32111591
0.45400002 24965.13900020  1874.25789927
0.45500002 25048.28058832  1884.63272078
0.45600002 25129.96575852  1894.92515783
0.45700002 25210.98214071  1905.19401067
0.45800002 25290.53027790  2089.50371059
0.45900002 25368.87521858  2275.58821496
0.46000002 25446.41621919  2991.35360042
0.46100002 25521.83954788  1945.52992094
0.46200002 25596.47070475  1955.44247217
0.46300002 25669.53089113  2501.23920858
0.46400002 25740.46589217  2334.01685539
0.46500002 25810.92135816  1804.18348845
0.46600002 25878.56211325  2537.91070673
0.46700002 25944.55579578  2914.09264510
0.46800002 26009.43016011  2195.71619818
0.46900002 26071.69738045  2389.47117817
0.47000002 26132.12980166  2215.48206959
0.47100002 26190.87698213  2225.17701387
0.47200002 26247.58402539  2234.71940984
0.47300002 26302.09152758  1870.07879625
0.47400002 26353.90216042  2253.25874151
0.47500002 26403.99714488  2073.77003405
0.47600002 26452.40051688  2271.20321603
0.47700002 26497.50926298  2659.82010589
