# SAXS profile: number of points = 501, q_min = 0, q_max = 0.5, delta_q = 0.001
#    q    intensity    error
0.00000000 1664650.74656090 349.57665678
0.00100000 1664569.62466945 549.30798919
0.00200000 1664326.20151848 823.84149584
0.00300000 1663920.68907374 1098.18769391
0.00400000 1663352.95324279 1746.52066727
0.00500000 1662623.51269467 1496.36122065
0.00600000 1661732.30195148 2093.78278570
0.00700000 1660679.80248523 2391.37901497
0.00800000 1659465.88238404 2688.33484296
0.00900000 1658091.76447211 3730.70662954
0.01000000 1656556.84417919 3279.98269310
0.01100000 1654862.35466540 2978.75236809
0.01200000 1653008.20771856 4190.37599029
0.01300000 1650995.62755983 4160.50916495
0.01400000 1648824.52109580 4451.82640431
0.01500000 1646496.37793707 4346.75063131
0.01600000 1644010.56919635 6707.56342217
0.01700000 1641369.40031439 6647.54636947
0.01800000 1638572.70347055 5603.91889803
0.01900000 1635621.19324047 5397.55018124
0.02000000 1632516.10785234 6170.91116683
0.02100000 1629259.26719975 7527.17815573
0.02200000 1625849.31783731 6170.09844151
0.02300000 1622289.66049412 8760.36456543
0.02400000 1618579.39448543 9104.50950912
0.02500000 1614721.44041528 6927.15529575
0.02600000 1610715.53691130 9785.09733429
0.02700000 1606563.98301767 8771.83974904
0.02800000 1602266.50927520 6969.85963498
0.02900000 1597825.54175853 12942.38748248
0.03000000 1593242.73717279 13335.44232310
0.03100000 1588518.01395314 9149.86418138
0.03200000 1583653.06524090 9406.89964080
0.03300000 1578651.65458177 8856.23619048
0.03400000 1573511.83342777 11565.31250932
0.03500000 1568236.84136329 9315.32726786
0.03600000 1562828.00144228 13010.54371327
0.03700000 1557286.81949749 11539.49586615
0.03800000 1551615.08074440 10892.33837092
0.03900000 1545814.70846979 9274.88868034
0.04000000 1539885.63514441 12311.38622348
0.04100000 1533831.81135771 13528.39720344
0.04200000 1527653.87506642 10838.70474643
0.04300000 1521353.06117112 13053.20987075
0.04400000 1514932.48273869 14316.11262675
0.04500000 1508393.66988893 16652.66688934
0.04600000 1501736.56341750 13763.41624354
0.04700000 1494965.71534650 13992.87974642
0.04800000 1488081.05090557 14218.61510297
0.04900000 1481086.39657783 12218.96334053
0.05000000 1473981.68491105 11275.96041465
0.05100000 1466770.97384684 17161.22119345
0.05200000 1459452.90166965 12762.91621987
0.05300000 1452033.35678423 11761.47073825
0.05400000 1444512.34128937 21451.00926849
0.05500000 1436892.19747493 19311.83203495
0.05600000 1429174.12650556 13441.38328702
0.05700000 1421363.32409982 19785.37839502
0.05800000 1413458.44400974 13760.01859492
0.05900000 1405462.09293036 13914.07536988
0.06000000 1397378.34442652 20457.61991816
0.06100000 1389208.40648404 18087.49429768
0.06200000 1380954.04773266 15660.01963329
0.06300000 1372618.95403827 17130.28534733
0.06400000 1364201.57518124 15961.15917607
0.06500000 1355708.05294832 16105.81242242
0.06600000 1347139.35072104 21662.00177313
0.06700000 1338496.90275752 13652.66904706
0.06800000 1329783.92895745 19268.57003254
0.06900000 1321003.27953425 20805.80262677
0.07000000 1312154.98455464 13974.45123991
0.07100000 1303243.04193916 15482.52806340
0.07200000 1294269.01807094 18423.92033534
0.07300000 1285236.01567249 15692.73248665
0.07400000 1276146.08005246 15792.30848074
0.07500000 1267001.09277713 18776.95707508
0.07600000 1257802.05252272 23244.18302032
0.07700000 1248554.06750028 16068.89160217
0.07800000 1239257.49171076 20559.28275163
0.07900000 1229914.10903182 16234.86700070
0.08000000 1220528.74888379 17795.30999352
0.08100000 1211101.51462125 17875.85919451
0.08200000 1201634.50087734 16456.38526173
0.08300000 1192131.16610392 16522.93873765
0.08400000 1182593.17927599 16585.87011786
0.08500000 1173022.71139560 24211.18989980
0.08600000 1163421.91929791 19737.45378759
0.08700000 1153794.32227802 24368.13723078
0.08800000 1144139.41269616 16801.68806451
0.08900000 1134462.80037791 19909.82308179
0.09000000 1124764.04007156 24564.84778911
0.09100000 1115046.11046138 20003.92816149
0.09200000 1105310.46867385 21586.71446749
0.09300000 1095562.62912062 16992.17717616
0.09400000 1085799.06615879 17019.90116193
0.09500000 1076025.66203822 20143.20134014
0.09600000 1066243.45379784 20167.99587664
0.09700000 1056456.72591829 26400.85482188
0.09800000 1046665.50643998 15542.98350143
0.09900000 1036872.66467616 15553.09070149
0.10000000 1027078.29736215 21784.33171151
0.10100000 1017285.75791879 21790.26195946
0.10200000 1007497.27053354 18679.00027428
0.10300000 997714.14094858 18677.20959715
0.10400000 987939.76090553 23340.07794943
0.10500000 978176.27103532 20218.90447359
0.10600001 968421.25338720 15543.16184823
0.10700001 958682.23069066 31061.30573605
0.10800001 948957.59017264 21721.64026131
0.10900001 939250.90942376 15497.64073490
0.11000001 929562.41614130 20120.37944444
0.11100001 919895.44146819 15454.24414415
0.11200001 910250.24963590 20057.36519497
0.11300001 900629.72125170 15400.76895848
0.11400001 891035.26640735 18444.43088308
0.11500001 881469.42695956 21472.59625184
0.11600001 871932.17447879 22953.61557407
0.11700001 862427.13745338 16791.45715701
0.11800001 852952.97362406 16747.73242590
0.11900001 843512.77128110 22774.84589732
0.12000001 834107.48279825 22708.57728887
0.12100001 824742.17937185 21129.89563090
0.12200001 815413.84002199 18053.26326860
0.12300001 806126.79707864 22490.93869814
0.12400001 796880.05704842 20918.10248313
0.12500001 787675.65333555 14887.07054953
0.12600001 778517.53419197 17796.91167028
0.12700001 769404.16292740 14772.56062438
0.12800001 760337.52620815 20597.54455573
0.12900001 751319.46839119 20511.02245381
0.13000001 742350.87638797 16045.91494945
0.13100001 733432.32733177 17426.35291884
0.13200001 724565.68918572 18791.61203487
0.13300001 715752.64980998 25895.93209094
0.13400001 706992.25016095 22906.54998516
0.13500001 698288.29853410 17094.09835407
0.13600001 689639.99875184 22675.36422812
0.13700001 681049.18066426 15507.49057495
0.13800001 672514.83982232 16826.32208581
0.13900001 664041.36977346 19522.81719200
0.14000001 655626.69295844 20799.75781504
0.14100001 647273.85522593 23437.78740313
0.14200001 638982.11126134 19188.63370622
0.14300001 630753.87580529 23161.28341203
0.14400001 622586.09272737 13541.24815556
0.14500001 614485.18235412 17494.39396687
0.14600001 606447.91244831 17383.83023040
0.14700001 598477.26051367 15943.43497224
0.14800001 590570.24989949 13199.24570798
0.14900001 582731.26464852 18356.03570248
0.15000001 574959.06352274 18231.95276454
0.15100001 567254.79493760 14226.75092832
0.15200001 559619.94214120 14127.60610599
0.15300001 552053.68892107 21679.14938695
0.15400001 544554.99569550 12660.90424740
0.15500001 537127.48406974 12568.78372039
0.15600001 529768.50591780 13723.65379349
0.15700001 522482.94928396 17335.98507545
0.15800001 515264.92610627 13517.97597443
0.15900001 508120.45020774 14633.86965671
0.16000001 501044.76812656 15730.30123784
0.16100001 494043.36376276 13205.77973675
0.16200001 487113.11562835 11909.91623933
0.16300001 480254.66724628 14177.11844638
0.16400001 473469.03123976 11718.35907640
0.16500001 466754.74036359 16271.07101725
0.16600001 460113.92221673 12678.43972527
0.16700001 453544.66047250 14858.12377860
0.16800001 447048.35807622 14732.47933602
0.16900001 440625.91721606 13483.15370346
0.17000001 434274.73399865 12253.06219836
0.17100001 427996.88290864 14355.01613062
0.17200001 421791.26860016 10945.48393705
0.17300001 415658.37707880 15188.15781571
0.17400001 409598.93479720 16127.95881930
0.17500001 403610.61516515 13851.91696666
0.17600001 397693.40134561 17949.89251749
0.17700001 391851.18562542 12554.91258041
0.17800001 386078.86382236 14512.70517655
0.17900001 380378.05087030 13351.27021618
0.18000001 374750.15252094 14244.25397015
0.18100001 369193.79447454 14110.58749135
0.18200001 363706.24771554 10982.11066854
0.18300001 358290.29751492 14833.21901783
0.18400001 352944.64809786 10773.63589214
0.18500001 347669.40504707 11639.97223087
0.18600001 342464.18969566 11527.34516975
0.18700001 337327.40813158 10463.89669461
0.18800001 332258.30327602 9419.52334291
0.18900001 327261.26574630 12125.03046878
0.19000001 322328.39831003 12928.59266708
0.19100001 317466.05564049 10057.32511790
0.19200001 312669.25149845 11767.30783617
0.19300001 307941.45748169 14337.75493784
0.19400001 303277.93177399 8870.87992357
0.19500001 298681.25211416 8781.22922711
0.19600001 294148.77250390 8692.09663825
0.19700001 289683.07155897 8603.58763189
0.19800001 285280.51591138 11070.31094311
0.19900001 280942.16099051 14328.05088766
0.20000001 276665.76166659 14180.50428441
0.20100001 272453.62454941 9906.41425682
0.20200001 268302.32659442 14705.65121568
0.20300001 264213.36211768 9701.91511552
0.20400001 260185.43604115 10400.91329735
0.20500001 256217.40166725 11875.67712860
0.20600001 252308.90060066 9401.03008075
0.20700001 248459.97692426 9302.34197576
0.20800001 244668.78310713 13039.62341208
0.20900001 240938.28929992 8348.51211889
0.21000001 237261.76728986 7509.33528971
0.21100001 233643.70236843 9658.83111252
0.21200001 230080.51873175 12496.82396570
0.21300001 226572.61529010 11636.77007143
0.21400001 223119.64269427 10793.41322561
0.21500001 219721.86055587 9966.58406601
0.21600001 216375.93022666 10564.55529279
0.21700001 213083.32885646 6967.82518304
0.21800001 209842.87128176 6893.33864753
0.21900001 206652.93308280 9547.36595984
0.22000001 203513.32779212 7421.11384883
0.22100001 200425.31451045 7341.57961765
0.22200001 197385.95231247 9243.58458387
0.22300001 194394.87174795 7184.83479954
0.22400001 191451.41044318 7753.78248960
0.22500001 188557.18970313 10227.34245312
0.22600001 185707.73636009 8220.35333871
0.22700001 182905.21507305 6255.35865131
0.22800001 180147.49561728 8044.48679721
0.22900001 177433.73850415 9182.19640182
0.23000001 174764.71028338 6661.15724747
0.23100001 172139.94032542 6589.51722729
0.23200001 169556.13760657 5925.98728961
0.23300001 167015.35382997 7034.68703602
0.23400001 164514.93157612 7538.89709603
0.23500001 162055.00852083 6884.09708756
0.23600001 159635.53118102 7377.55642247
0.23700001 157255.47602731 7298.22698762
0.23800001 154913.61273478 6664.38393507
0.23900001 152610.03019057 7142.14975074
0.24000001 150343.22447234 8152.36173262
0.24100001 148114.50311524 6451.86806088
0.24200001 145921.79595945 5850.73468575
0.24300001 143764.07087605 7892.64786444
0.24400001 141641.24563479 6766.91083030
0.24500001 139552.39578907 6179.38037785
0.24600001 137497.46256543 6113.13747484
0.24700001 135476.18272477 6047.65708292
0.24800001 133487.16451356 5982.89499653
0.24900001 131528.84851952 6412.03166866
0.25000001 129603.19200185 7319.34061457
0.25100001 127707.53832447 5310.07969475
0.25200001 125843.92932245 7163.66601559
0.25300001 124008.41193765 5197.19279019
0.25400001 122203.07484367 4674.26783392
0.25500001 120424.75668302 5549.17305050
0.25600001 118675.97173462 5489.95071219
0.25700001 116953.74902892 5883.94339203
0.25800001 115258.62146579 5373.35718697
0.25900001 113590.97863515 4873.05321402
0.26000001 111948.42704339 6135.89357657
0.26100001 110331.10955491 6070.41793494
0.26200001 108740.14645843 6434.69847115
0.26300001 107172.28012479 5092.82699251
0.26400001 105629.44665481 4618.64777353
0.26500001 104110.19314792 6230.99535475
0.26600001 102613.88084907 4109.68612247
0.26700001 101140.42013695 5692.18311466
0.26800001 99689.85837752  4022.48597588
0.26900001 98260.24738508  4775.44824890
0.27000001 96852.82610249  5118.18783759
0.27100001 95466.17586838  3895.02015975
0.27200001 94101.02949155  5780.15601006
0.27300001 92755.84314977  4574.71840064
0.27400001 91429.34044650  4525.75256628
0.27500001 90124.43722964  3731.15187789
0.27600001 88836.40892981  3691.15296572
0.27700001 87569.29215265  4016.80362114
0.27800001 86319.58938240  6863.70247458
0.27900001 85088.45886542  4288.45852978
0.28000001 83874.78204103  4242.38667642
0.28100001 82678.96826777  3847.05257558
0.28200001 81500.58462427  4497.60997536
0.28300001 80338.97460736  4106.92857631
0.28400001 79193.39045463  3724.06936239
0.28500001 78064.80085982  3348.98011540
0.28600001 76951.99170635  3644.06173973
0.28700001 75855.56748024  3932.35280430
0.28800001 74773.07173634  3565.55409452
0.28900001 73707.77670504  4488.80381381
0.29000001 72656.43006518  3488.59865471
0.29100001 71620.50222121  5332.86284782
0.29200001 70598.69543411  4343.93793568
0.29300001 69591.53365094  3375.88545721
0.29400001 68597.75567456  3035.45083229
0.29500001 67619.18696470  3302.52124769
0.29600001 66652.91006070  3266.32601214
0.29700001 65700.58874718  4405.22468403
0.29800001 64761.87093741  4066.39806866
0.29900001 63836.57822928  3734.44000320
0.30000001 62923.18806838  3125.08028336
0.30100001 62023.73207548  3371.61023524
0.30200001 61135.66292821  3890.06241628
0.30300001 60261.03082461  3572.27407640
0.30400001 59398.25717011  3532.71151244
0.30500001 58548.27538822  3493.57575781
0.30600001 57708.93675088  2923.24632951
0.30700001 56882.32854719  2890.76007363
0.30800001 56067.18261303  3898.07105572
0.30900001 55263.82122487  3340.69815121
0.31000001 54471.84025666  3049.33376194
0.31100001 53690.80326134  3015.27565392
0.31200001 52921.77658296  3230.08078667
0.31300001 52163.15526958  2456.88472952
0.31400001 51416.84635861  3158.27993711
0.31500001 50679.91073793  3122.89624753
0.31600002 49955.28138878  3325.52323951
0.31700002 49240.46666469  3758.03259378
0.31800002 48536.12124904  2786.94421408
0.31900002 47843.02406966  2755.75831690
0.32000002 47160.53275049  2270.77975946
0.32100002 46487.84093504  2694.43538818
0.32200002 45826.57194036  2664.35701877
0.32300002 45173.87760298  2634.54066655
0.32400002 44532.50239699  2170.95959465
0.32500002 43900.95761911  2361.43262215
0.32600002 43279.64766875  2547.44018241
0.32700002 42668.46209974  2309.21727819
0.32800002 42067.92161121  3114.07804473
0.32900002 41475.40955120  2463.63944400
0.33000002 40894.11341023  2030.39282696
0.33100002 40321.52883307  2409.61467717
0.33200002 39760.12448233  2383.22197433
0.33300002 39207.62767158  2553.59291118
0.33400002 38665.28429705  3108.68900470
0.33500002 38132.27598998  2306.24016109
0.33600002 37608.27160195  2851.64732926
0.33700002 37093.81347484  2444.85336191
0.33800002 36589.71990929  2046.64608005
0.33900002 36094.05482935  2945.27501356
0.34000002 35607.97598506  1821.34805789
0.34100002 35131.23048180  2523.12509269
0.34200002 34664.51773136  3031.93218696
0.34300002 34206.29547361  2118.05391604
0.34400002 33758.05838141  2096.37552477
0.34500002 33318.42031335  1902.14870578
0.34600002 32888.53984372  2225.40315392
0.34700002 32466.59976530  2033.70790562
0.34800002 32054.63276084  2181.47813586
0.34900002 31651.06069142  1827.84884150
0.35000002 31256.90080316  2139.37867680
0.35100002 30872.33800528  1793.06547627
0.35200002 30495.03652676  2099.12593874
0.35300002 30127.89850791  1759.77063520
0.35400002 29768.77187550  1585.18717745
0.35500002 29419.03228747  1885.17167827
0.35600002 29077.31660177  2024.21749111
0.35700002 28744.28071744  1852.28153717
0.35800002 28420.17060372  1836.51151140
0.35900002 28105.06971275  1517.67383637
0.36000002 27798.17783932  1956.85282169
0.36100002 27499.12588612  1493.20260634
0.36200002 27210.09460647  1481.58972150
0.36300002 26927.80298882  1617.28392411
0.36400002 26654.51820132  1459.33494065
0.36500002 26388.57986790  1593.60641371
0.36600002 26131.82667280  2157.83568972
0.36700002 25882.53574857  1857.33085330
0.36800002 25642.30343689  1703.16187495
0.36900002 25409.68895983  2397.40426692
0.37000002 25184.49301334  1821.97223336
0.37100002 24967.00596030  1532.47489844
0.37200002 24758.15834442  1385.21902499
0.37300002 24556.73649612  1928.68617577
0.37400002 24362.80650755  1918.57110335
0.37500002 24176.67032117  2045.34640606
0.37600002 23998.11776417  1492.80298624
0.37700002 23826.97020512  1756.28605702
0.37800002 23663.04454133  1614.29297508
0.37900002 23507.40397850  1741.89871732
0.38000002 23358.18563186  1601.90444652
0.38100002 23215.41275738  2128.38914242
0.38200002 23080.90177473  1325.99786978
0.38300002 22952.63781142  1718.69360074
0.38400002 22831.62914948  1582.23197502
0.38500002 22716.85394778  1578.36708707
0.38600002 22609.88156209  1837.50516160
0.38700002 22508.47817048  1702.99153906
0.38800002 22413.79926411  1569.41429882
0.38900002 22325.61674756  1306.04864161
0.39000002 22244.23933439  1435.08716865
0.39100002 22168.35120826  1694.54884664
0.39200002 22099.41493367  1302.76057206
0.39300002 22035.73494970  1693.00559639
0.39400002 21979.40886533  1302.28003697
0.39500002 21927.56668247  1693.24677944
0.39600002 21881.75508453  1954.58786553
0.39700002 21841.07730220  2477.43351576
0.39800002 21807.01793683  1827.21011950
0.39900002 21777.47769330  1829.30821291
0.40000002 21753.54636924  2224.40898938
0.40100002 21734.62548629  1834.83717049
0.40200002 21721.20312981  1706.96082883
0.40300002 21712.51140432  1447.35607879
0.40400002 21708.72329713  1714.44650362
0.40500002 21709.25603349  1322.09375508
0.40600002 21715.44500301  1590.87357630
0.40700002 21725.41914378  1462.55528606
0.40800002 21739.83111415  2000.60805307
0.40900002 21758.26697815  1739.57352733
0.41000002 21781.52208864  1879.96326055
0.41100002 21808.50446878  2291.20158805
0.41200002 21838.61399705  1894.06308171
0.41300002 21874.02292287  1630.05226545
0.41400002 21912.17322013  1909.64598662
0.41500002 21953.95483055  2191.88295414
0.41600002 21998.39311977  2063.99933226
0.41700002 22047.51288649  1935.33077288
0.41800002 22100.17912715  2083.49448594
0.41900002 22154.16322233  1674.85481897
0.42000002 22211.76716010  1963.74242768
0.42100002 22272.85774563  1409.87196210
0.42200002 22336.39811715  1984.14233877
0.42300002 22402.11857964  1424.77480918
0.42400002 22470.31028595  2005.47528805
0.42500002 22541.41110194  2016.55473274
0.42600002 22613.48890796  1738.07283983
0.42700002 22688.97047946  1602.29517119
0.42800002 22765.64788562  1757.96341303
0.42900002 22845.07178190  2210.26079964
0.43000002 22926.12292027  2223.26087555
0.43100002 23007.32017147  2087.22418486
0.43200002 23091.37327337  2249.67714776
0.43300002 23176.09707924  1810.51678963
0.43400002 23262.67827384  1669.67881223
0.43500002 23349.78913961  1679.78391031
0.43600002 23438.80533358  1536.41376243
0.43700002 23527.91528395  2009.51933963
0.43800002 23617.49612606  1866.25463232
0.43900002 23708.79859581  2190.69309407
0.44000002 23800.06445444  1731.81177210
0.44100002 23892.21569811  1742.45937344
0.44200002 23984.53980402  2071.90456916
0.44300002 24077.24473942  1763.89903320
0.44400002 24169.99194056  2581.35526158
0.44500002 24262.26732611  1785.46033714
0.44600002 24354.48972394  2286.15605873
0.44700002 24447.59856500  2135.74231185
0.44800002 24539.34656335  2313.81509711
0.44900002 24631.38647187  1995.14239877
0.45000002 24723.17563560  1839.77520211
0.45100002 24813.56467923  2691.77562397
0.45200002 24903.86254624  1692.21754022
0.45300002 24992.98598311  2042.42691134
0.45400002 25081.54116161  1882.99679195
0.45500002 25169.57742633  2582.39876633
0.45600002 25256.02305107  2423.82064708
0.45700002 25341.83581139  2089.18104330
0.45800002 25425.97070703  2100.69379938
0.45900002 25508.94712380  2112.14092195
0.46000002 25591.07495557  1769.62291705
0.46100002 25670.89470615  2312.69101369
0.46200002 25749.93926197  2146.00003980
0.46300002 25827.31357642  1977.33922113
0.46400002 25902.50518650  2348.70976910
0.46500002 25977.10205929  1997.37947201
0.46600002 26048.89646561  2189.67034068
0.46700002 26118.88264067  2200.25477793
0.46800002 26187.67381191  1842.30293999
0.46900002 26253.77259323  2406.15837221
0.47000002 26318.05954297  2417.18229329
0.47100002 26380.49949486  2428.06128859
0.47200002 26440.81902885  2063.57381891
0.47300002 26498.88365423  2826.10607567
0.47400002 26554.12593243  2648.77418731
0.47500002 26607.60820519  2089.76164749
0.47600002 26659.36125214  2479.72060440
0.47700002 26707.56257123  2489.41202526
