# SAXS profile: number of points = 501, q_min = 0, q_max = 0.5, delta_q = 0.001
#    q    intensity    error
0.00000000 1628779.37420969 342.04366858
0.00100000 1628699.35779797 586.33178273
0.00200000 1628459.24463533 732.80668329
0.00300000 1628059.25734642 976.83558921
0.00400000 1627499.26918909 1342.68694810
0.00500000 1626779.76530037 2488.97313943
0.00600000 1625900.68117507 2048.63494168
0.00700000 1624862.53904666 1949.83512789
0.00800000 1623665.18350071 3287.92213540
0.00900000 1622309.79408317 3893.54367224
0.01000000 1620795.80952543 2674.31320119
0.01100000 1619124.46434256 3497.30899525
0.01200000 1617295.63784098 4099.84462168
0.01300000 1615310.54148958 4409.79797276
0.01400000 1613169.06973034 4718.51973814
0.01500000 1610872.83514454 4252.70447415
0.01600000 1608421.04317462 5742.06338082
0.01700000 1605816.00254490 6069.98476191
0.01800000 1603057.61724791 5482.45729769
0.01900000 1600146.50961577 5280.48372000
0.02000000 1597084.04696469 6036.97797061
0.02100000 1593871.91192744 7363.68856696
0.02200000 1590508.73934633 5487.25540004
0.02300000 1586998.02092516 6855.83176246
0.02400000 1583338.78839652 7125.02487267
0.02500000 1579533.92498260 8624.25562428
0.02600000 1575583.25159798 7019.22370692
0.02700000 1571488.96742637 7920.30475859
0.02800000 1567250.85571484 8181.04984201
0.02900000 1562871.19016342 7032.92067865
0.03000000 1558351.80787023 8695.60348761
0.03100000 1553692.48330429 9695.04154192
0.03200000 1548894.86928858 9200.43594733
0.03300000 1543962.85644370 7874.21093087
0.03400000 1538894.62490977 12926.71544569
0.03500000 1533692.99338097 9938.33105604
0.03600000 1528359.42150879 10178.87421765
0.03700000 1522895.51642319 11284.65629858
0.03800000 1517302.98200088 15089.57885434
0.03900000 1511583.69152288 9069.50256915
0.04000000 1505737.69204919 10186.31595874
0.04100000 1499768.78951586 10393.39819325
0.04200000 1493677.57450179 12524.48704324
0.04300000 1487465.12658447 10798.99732027
0.04400000 1481135.08420218 12996.96096748
0.04500000 1474688.65459714 12210.42262742
0.04600000 1468125.53832903 11385.31407901
0.04700000 1461450.51230963 10522.44417801
0.04800000 1454663.44117356 17106.84286415
0.04900000 1447768.02835091 11944.08678986
0.05000000 1440764.15073043 16532.76939950
0.05100000 1433656.24674892 14537.27501924
0.05200000 1426442.83169684 12474.24314450
0.05300000 1419129.29032228 17242.42168122
0.05400000 1411716.10374504 15140.65591873
0.05500000 1404205.31162696 12974.85768470
0.05600000 1396598.16252949 13135.00633152
0.05700000 1388899.88350292 19333.48728082
0.05800000 1381109.38424857 14667.38234558
0.05900000 1373228.48271334 13594.96261383
0.06000000 1365261.94583698 18738.22108204
0.06100000 1357210.67786255 13884.26588336
0.06200000 1349076.47601323 17848.28261195
0.06300000 1340863.27411110 14159.51683665
0.06400000 1332569.08875561 18189.56891218
0.06500000 1324199.78334065 17042.45200880
0.06600000 1315757.19688549 13223.36044740
0.06700000 1307241.67176333 17334.02537880
0.06800000 1298657.35911088 14785.21472556
0.06900000 1290006.67647774 14899.57781090
0.07000000 1281289.77425641 17739.45775529
0.07100000 1272510.19272554 17866.04394267
0.07200000 1263670.18628139 16604.62702561
0.07300000 1254771.87343713 16713.56213731
0.07400000 1245818.20322148 16818.54653168
0.07500000 1236810.64415911 14099.64200430
0.07600000 1227750.27598962 21270.77452871
0.07700000 1218641.95545195 15683.92270206
0.07800000 1209486.15540454 18632.13509778
0.07900000 1200284.54028720 24485.80577033
0.08000000 1191042.23604208 17365.39661612
0.08100000 1181758.93939594 18896.32632752
0.08200000 1172436.76621292 27733.99300619
0.08300000 1163079.70597114 16120.28548132
0.08400000 1153688.43890859 22064.29242980
0.08500000 1144265.98654069 22141.54787900
0.08600000 1134814.03185917 19252.12095441
0.08700000 1125336.06163345 20796.21139553
0.08800000 1115831.73558235 28303.07330227
0.08900000 1106306.55418775 20909.19485625
0.09000000 1096759.98589621 16467.85196182
0.09100000 1087194.85507675 16503.61867542
0.09200000 1077612.87777132 18039.24042150
0.09300000 1068019.73453401 22588.61844688
0.09400000 1058411.57112653 18098.83871686
0.09500000 1048794.06348073 16612.89874639
0.09600000 1039168.24882090 18143.87847732
0.09700000 1029538.47705103 15134.21632415
0.09800000 1019905.06223667 15145.59088633
0.09900000 1010270.74491909 16669.46807500
0.10000000 1000635.29313156 15159.62540386
0.10100000 991002.31638937 16678.56976926
0.10200000 981373.96503540 18194.67416757
0.10300000 971751.16120879 19707.11447635
0.10400000 962137.64392971 16669.03546528
0.10500000 952535.57523199 21203.44290227
0.10600001 942942.61803313 18161.07567786
0.10700001 933365.40600143 19656.67637539
0.10800001 923803.38350354 18125.02323733
0.10900001 914259.70130834 21119.40009422
0.11000001 904734.28211862 18076.59180759
0.11100001 895230.52164201 24063.79755450
0.11200001 885749.31874941 18016.14199151
0.11300001 876292.65566150 19479.98665249
0.11400001 866862.62359325 19439.39524937
0.11500001 857460.61922794 16411.79702482
0.11600001 848088.13129038 17860.73688606
0.11700001 838747.66092652 17815.00115708
0.11800001 829438.42272384 17766.57185152
0.11900001 820163.42928252 22144.41363367
0.12000001 810922.84668997 16190.07539680
0.12100001 801722.35420312 14671.51977306
0.12200001 792559.49161077 16084.99564003
0.12300001 783437.20670640 18943.51255067
0.12400001 774355.92169678 20326.84390229
0.12500001 765316.20614441 20250.26776878
0.12600001 756323.20400210 20171.14080127
0.12700001 747374.53038238 14349.59165959
0.12800001 738472.57261229 21434.16743025
0.12900001 729619.04710444 18495.84371585
0.13000001 720815.24668898 19829.62837108
0.13100001 712061.13377989 14098.81111343
0.13200001 703358.38773785 15435.20054653
0.13300001 694709.06276959 22341.84451193
0.13400001 686112.79778717 13893.78481022
0.13500001 677572.13732718 15204.71947850
0.13600001 669087.00589140 17874.66020519
0.13700001 660659.10233486 17778.33728214
0.13800001 652287.44685658 19040.27147160
0.13900001 643975.99903262 16228.19594091
0.14000001 635722.96782250 14790.09554390
0.14100001 627531.76126354 18712.99800344
0.14200001 619401.34541507 17272.00733154
0.14300001 611333.58479054 15845.76726518
0.14400001 603326.14120186 26244.68838024
0.14500001 595384.83057570 16950.60692609
0.14600001 587507.39784775 14249.99260703
0.14700001 579695.47899371 19303.86036118
0.14800001 571946.70850135 15339.61144571
0.14900001 564265.46461641 16504.76561874
0.15000001 556650.89483635 13868.95769923
0.15100001 549103.19563717 13771.50879639
0.15200001 541624.45493985 13673.31001016
0.15300001 534213.70079325 13574.37077772
0.15400001 526870.06298286 14699.67545091
0.15500001 519597.12663179 20669.57467287
0.15600001 512392.05448184 16893.56683356
0.15700001 505259.56516498 15567.04793745
0.15800001 498194.37517159 13070.13004952
0.15900001 491201.62006971 16504.37521336
0.16000001 484276.99342946 14034.34793204
0.16100001 477426.31817187 16242.04411090
0.16200001 470646.01395755 14959.48425982
0.16300001 463936.55662234 13695.40779802
0.16400001 457299.00239618 15845.41118108
0.16500001 450732.55242820 13467.88930239
0.16600001 444238.15261745 12240.98287331
0.16700001 437815.34283051 17652.71545639
0.16800001 431464.41817726 15312.67292412
0.16900001 425186.32415260 17347.60284455
0.17000001 418978.58981636 12896.16160350
0.17100001 412843.73955126 11716.50588173
0.17200001 406780.56918056 15833.93440308
0.17300001 400788.45564328 12552.69502354
0.17400001 394869.67558939 11401.86242111
0.17500001 389020.65049391 10270.14565807
0.17600001 383242.19444628 11192.58881742
0.17700001 377537.69158900 13104.33389398
0.17800001 371902.32991675 10984.13583289
0.17900001 366337.83909954 10880.23433517
0.18000001 360844.75842037 13715.70991542
0.18100001 355422.72045906 9703.04072687
0.18200001 350068.69571306 15375.01784200
0.18300001 344784.80235165 9516.06099444
0.18400001 339571.06140580 13192.33635883
0.18500001 334426.32128738 11196.59376565
0.18600001 329350.52910660 11085.93933347
0.18700001 324342.87456227 10061.11644426
0.18800001 319401.54669125 12677.04798712
0.18900001 314531.40231163 9860.55992836
0.19000001 309724.16616477 9760.95755788
0.19100001 304986.76419923 12297.06691355
0.19200001 300314.38066367 13041.15259653
0.19300001 295709.27877720 11186.68254474
0.19400001 291167.69552896 10219.98659600
0.19500001 286692.07879583 10114.49701788
0.19600001 282279.95667623 10843.78504816
0.19700001 277933.29004331 9905.54292526
0.19800001 273648.74242272 8985.25688208
0.19900001 269427.42332105 8891.10538979
0.20000001 265267.31940966 10397.15307564
0.20100001 261170.31796964 8704.80710934
0.20200001 257133.20023527 8612.67694895
0.20300001 253157.28920513 10845.25878214
0.20400001 249242.12394164 11496.29351019
0.20500001 245385.18918554 8340.64297465
0.20600001 241586.59148138 9751.64322609
0.20700001 237847.13539139 10389.16336498
0.20800001 234164.31221650 11011.57730250
0.20900001 230541.19436414 8714.45755891
0.21000001 226971.16286716 7902.00140877
0.21100001 223458.24145024 8527.16689685
0.21200001 219999.25523889 9137.66949833
0.21300001 216594.80894986 7647.96306558
0.21400001 213244.39900282 8940.27185086
0.21500001 209947.92083889 7482.54425245
0.21600001 206702.31721258 7400.97681770
0.21700001 203509.11490840 7985.69804657
0.21800001 200367.05498231 7240.26387411
0.21900001 197274.90432783 7161.07936569
0.22000001 194231.78258095 9014.29745580
0.22100001 191239.49647839 8278.75819400
0.22200001 188294.62923000 6298.45564556
0.22300001 185397.13140859 6852.27830087
0.22400001 182546.53921160 6160.94598972
0.22500001 179743.98625269 6093.32142210
0.22600001 176985.34710373 6628.98648924
0.22700001 174272.64172832 6556.13709185
0.22800001 171604.12961066 7073.52255706
0.22900001 168978.21828596 6995.69856787
0.23000001 166396.12843538 8648.43918443
0.23100001 163857.80977953 6272.47725500
0.23200001 161359.00444432 6767.39696645
0.23300001 158902.57311764 7808.47281230
0.23400001 156485.90465870 7722.57976015
0.23500001 154108.32453842 7637.60892535
0.23600001 151770.35333460 5934.97994786
0.23700001 149471.12312256 6403.34321744
0.23800001 147209.27618581 6860.68864114
0.23900001 144984.70289645 6263.33946138
0.24000001 142796.12520834 5678.28818749
0.24100001 140644.58147582 6637.01811378
0.24200001 138528.36619736 5554.29510541
0.24300001 136446.02372618 6492.10211599
0.24400001 134398.19845919 5433.04742972
0.24500001 132383.08905511 5373.42983893
0.24600001 130401.55944898 5314.51580675
0.24700001 128452.40907723 6211.95879684
0.24800001 126534.67828431 5671.28454899
0.24900001 124647.23425740 7011.40725867
0.25000001 122791.50427630 6472.34049660
0.25100001 120964.82192121 5029.71753343
0.25200001 119169.47524103 6331.47451910
0.25300001 117401.49604756 5367.59665324
0.25400001 115663.20194948 5308.94122065
0.25500001 113950.94770342 4813.28825872
0.25600001 112267.14519281 4327.89865195
0.25700001 110609.40749623 5992.81798169
0.25800001 108978.20326369 5080.56407654
0.25900001 107373.45578705 5443.83446598
0.26000001 105793.34949834 7455.25769190
0.26100001 104237.48044268 4915.83981028
0.26200001 102707.70436057 4051.81912874
0.26300001 101199.67002939 4809.00854735
0.26400001 99716.83147682  4756.49308651
0.26500001 98256.33116713  3920.42779908
0.26600001 96818.17959183  4265.32510375
0.26700001 95402.22348408  4602.20347865
0.26800001 94008.41371559  5310.53554209
0.26900001 92635.18432432  4126.89765694
0.27000001 91283.61073716  4452.81474248
0.27100001 89951.84096037  4037.03881335
0.27200001 88641.07584077  4355.82267295
0.27300001 87349.56310926  4667.08737779
0.27400001 86076.40169815  5325.97760712
0.27500001 84824.01209118  3862.88569344
0.27600001 83588.02391275  4515.00732532
0.27700001 82372.30660205  5152.38802180
0.27800001 81173.50424635  3397.11131349
0.27900001 79992.63985793  4031.62923965
0.28000001 78828.76573500  3654.89589628
0.28100001 77682.15540218  3285.95532903
0.28200001 76552.52874738  3899.58599896
0.28300001 75439.03054953  3856.44342422
0.28400001 74341.06390002  3813.69675858
0.28500001 73259.43466483  3457.11288546
0.28600001 72193.36354374  3729.50933719
0.28700001 71143.14497703  3995.39921102
0.28800001 70106.36004347  3950.84410726
0.28900001 69086.02561992  3305.76648239
0.29000001 68079.53568495  3268.83906064
0.29100001 67087.87885358  4113.82892603
0.29200001 66109.88470887  3777.18844164
0.29300001 65146.02188574  2872.93970115
0.29400001 64195.16454817  2840.63616572
0.29500001 63259.08937911  3089.57407153
0.29600001 62334.84400485  4165.52614781
0.29700001 61424.36781105  4118.50405669
0.29800001 60526.93297761  3529.02299432
0.29900001 59642.25472555  2683.90158970
0.30000001 58769.57356767  2653.44637219
0.30100001 57910.05173695  2885.65801466
0.30200001 57061.75121060  3371.49372989
0.30300001 56226.40746807  3333.10159250
0.30400001 55402.63643202  3041.60488411
0.30500001 54591.18458694  2756.30904028
0.30600001 53790.21529945  2972.44743817
0.30700001 53001.50977738  2693.53685441
0.30800001 52223.92554791  2420.57906375
0.30900001 51457.78491339  3349.90195646
0.31000001 50702.62025129  2838.33281605
0.31100001 49958.14857604  2571.84561046
0.31200001 49225.49629208  2542.25087637
0.31300001 48502.81448780  3426.72400581
0.31400001 47792.24140456  2935.63856727
0.31500001 47091.07678615  2455.32885988
0.31600002 46401.34211283  2868.29909851
0.31700002 45721.33413477  2180.90774149
0.31800002 45051.54577428  3018.00319432
0.31900002 44392.72400648  2770.10610917
0.32000002 43744.09770109  2106.27840404
0.32100002 43105.36722251  3747.58080377
0.32200002 42477.46625416  3087.05000619
0.32300002 41857.91622051  2644.58327203
0.32400002 41249.46752758  2212.00280091
0.32500002 40650.81219956  1987.82481069
0.32600002 40062.10643486  2947.56962052
0.32700002 39483.06951672  2913.85066831
0.32800002 38914.68348050  2304.52766484
0.32900002 38353.86265213  1898.51629118
0.33000002 37804.24038055  2440.07481091
0.33100002 37263.03829587  2412.40921351
0.33200002 36732.92256565  2201.77148285
0.33300002 36211.39219016  1995.60991810
0.33400002 35700.06699249  2332.10698672
0.33500002 35197.30615027  2128.73317678
0.33600002 34703.78941513  2806.84262082
0.33700002 34219.63598154  2428.90987700
0.33800002 33745.42240280  2059.14577253
0.33900002 33279.67517851  1866.98986593
0.34000002 32823.30111978  2014.69431814
0.34100002 32375.93185264  2159.15099751
0.34200002 31938.58070111  1643.24005489
0.34300002 31509.69291699  1788.49025467
0.34400002 31090.28741849  2091.59918514
0.34500002 30679.49598723  2229.17228401
0.34600002 30278.07192506  1575.97371834
0.34700002 29884.62766144  1715.97540159
0.34800002 29500.97260246  1853.25118666
0.34900002 29125.62639809  1987.82409582
0.35000002 28759.37236583  2876.94395087
0.35100002 28402.77226038  1799.59973565
0.35200002 28053.06218491  1782.49165565
0.35300002 27713.44275806  2207.37582023
0.35400002 27381.96897377  1603.89890861
0.35500002 27059.48775329  2456.46041459
0.35600002 26744.69311251  2005.04973761
0.35700002 26438.70249972  1561.73423063
0.35800002 26141.34911097  2393.10991771
0.35900002 25853.04557040  1535.67097962
0.36000002 25572.72418624  1384.76308028
0.36100002 25299.95770072  1785.92409869
0.36200002 25037.13310351  1363.27196206
0.36300002 24781.16902732  1623.66227158
0.36400002 24533.87807122  1880.52184323
0.36500002 24293.76501165  1600.47331478
0.36600002 24062.82788367  1589.59048529
0.36700002 23839.16284437  1315.92185134
0.36800002 23624.28671839  1699.88563134
0.36900002 23417.10846802  1559.57949785
0.37000002 23217.19203772  1421.24047791
0.37100002 23024.81592021  1798.69870489
0.37200002 22841.00195485  1661.34035588
0.37300002 22664.33966071  1652.91036975
0.37400002 22495.07218953  1644.95223178
0.37500002 22333.62050267  1385.57788162
0.37600002 22179.63241990  1505.10992731
0.37700002 22032.66144189  1624.02755181
0.37800002 21893.07972646  1866.93246211
0.37900002 21761.52942199  1364.44795940
0.38000002 21636.15239748  1607.45801852
0.38100002 21517.27052913  1356.23362570
0.38200002 21406.58670782  1844.71269694
0.38300002 21301.62352458  1595.06564508
0.38400002 21204.25456956  1469.45491128
0.38500002 21112.80416634  1344.67456106
0.38600002 21028.99011630  1586.95281431
0.38700002 20950.68244273  1707.06168631
0.38800002 20879.03279558  1340.12078347
0.38900002 20813.57425656  1582.87239720
0.39000002 20755.02048799  1582.46661208
0.39100002 20701.68295478  1582.43672003
0.39200002 20654.87965275  1339.36573454
0.39300002 20613.67431555  1583.74867270
0.39400002 20579.37462173  1219.32800411
0.39500002 20549.59019378  1342.71028688
0.39600002 20525.77780364  1711.23417656
0.39700002 20506.79113580  1469.10658657
0.39800002 20494.35736639  1717.22228509
0.39900002 20486.34209716  1597.93475929
0.40000002 20483.79134335  1601.73013998
0.40100002 20486.04068993  1482.36997456
0.40200002 20493.72770221  1238.84589829
0.40300002 20505.89477370  1491.18873860
0.40400002 20522.88485819  1496.11837705
0.40500002 20544.15548235  1376.25304097
0.40600002 20570.83093019  1758.18900291
0.40700002 20601.32018358  1639.04111147
0.40800002 20635.95478932  1266.01588631
0.40900002 20674.28457575  1398.61541782
0.41000002 20717.52066602  1660.40577245
0.41100002 20764.26221409  1924.84719845
0.41200002 20814.10534344  1676.26405326
0.41300002 20868.92964245  1425.55665142
0.41400002 20926.44912097  1432.93867146
0.41500002 20987.46301292  1571.54130487
0.41600002 21051.03230540  2106.78741295
0.41700002 21119.18808374  1456.59047115
0.41800002 21190.45800632  1465.00238368
0.41900002 21263.06991477  1473.53081492
0.42000002 21339.03911974  1617.07246112
0.42100002 21418.45555989  1898.10362166
0.42200002 21500.20430134  1637.02563307
0.42300002 21583.94251277  1784.56045152
0.42400002 21670.07009811  1934.05384790
0.42500002 21758.69864919  1668.45709148
0.42600002 21848.32939455  1399.38556403
0.42700002 21941.15359125  1408.62212731
0.42800002 22035.06618875  1417.95657644
0.42900002 22131.76033682  1855.74819218
0.43000002 22229.56689114  2155.71235142
0.43100002 22327.50307357  2025.55117482
0.43200002 22428.18588566  1893.72396500
0.43300002 22529.36434902  1613.32785749
0.43400002 22632.09258746  1919.76734471
0.43500002 22735.40074601  1784.27433510
0.43600002 22840.24830760  2245.76752127
0.43700002 22945.14643346  1808.99543054
0.43800002 23050.36365009  1973.22647378
0.43900002 23157.13217585  1986.88203485
0.44000002 23263.72155892  1538.89525405
0.44100002 23370.96366136  1549.49496418
0.44200002 23478.29519184  2340.19918415
0.44300002 23585.87063084  1884.98287015
0.44400002 23693.23074264  1739.67554972
0.44500002 23800.05695724  2229.11344026
0.44600002 23906.57512229  2244.11031308
0.44700002 24013.81170316  1775.10104522
0.44800002 24119.57718003  2111.78968008
0.44900002 24225.34291778  2125.77394178
0.45000002 24330.87446450  2304.37722974
0.45100002 24434.75998207  2153.67984689
0.45200002 24538.38284799  2501.07479031
0.45300002 24640.85207813  2013.65052726
0.45400002 24742.31176725  1857.52914396
0.45500002 24843.07993436  2209.04677246
0.45600002 24942.31367829  2222.73438878
0.45700002 25040.59357879  1892.31774643
0.45800002 25137.10453779  2076.82767534
0.45900002 25232.36467161  1741.03324486
0.46000002 25326.50240416  2276.72604153
0.46100002 25418.27057928  2289.93210502
0.46200002 25509.09798784  2125.92832706
0.46300002 25597.96611171  1959.78037840
0.46400002 25684.55394581  2508.09681168
0.46500002 25770.41367582  2161.62240158
0.46600002 25853.27101645  2173.22606464
0.46700002 25934.26856203  2366.76146115
0.46800002 26013.82634787  2013.08004734
0.46900002 26090.67290898  2023.33177999
0.47000002 26165.36264551  2218.29955023
0.47100002 26238.19416686  2414.96350558
0.47200002 26308.63176673  1866.59751232
0.47300002 26376.62268232  2062.91575776
0.47400002 26441.88504042  2072.38283827
0.47500002 26505.08384967  2081.70938422
0.47600002 26566.34268738  2661.15067313
0.47700002 26624.10895645  2099.84357292
