# SAXS profile: number of points = 501, q_min = 0, q_max = 0.5, delta_q = 0.001
#    q    intensity    error
0.00000000 1646666.22097351 296.39991978
0.00100000 1646585.76206943 592.77088842
0.00200000 1646344.33141383 889.02596711
0.00300000 1645942.13812775 1185.07838167
0.00400000 1645379.05885303 2097.85837975
0.00500000 1644655.59584881 1480.19009485
0.00600000 1643771.67703164 1898.55636427
0.00700000 1642727.80364977 2168.40079094
0.00800000 1641523.84550401 2437.66301349
0.00900000 1640160.97968663 2952.28988964
0.01000000 1638638.64261432 3785.25542788
0.01100000 1636958.04993702 3535.82954181
0.01200000 1635119.12028747 3507.33066679
0.01300000 1633123.06919180 5144.33789484
0.01400000 1630969.74647785 3669.68209226
0.01500000 1628660.77199802 4690.54323222
0.01600000 1626195.38831823 4146.79842559
0.01700000 1623575.90271018 4383.65513396
0.01800000 1620802.20946872 5081.21515533
0.01900000 1617874.92949321 5824.35000899
0.02000000 1614795.40801858 5595.26634189
0.02100000 1611565.38006003 5849.98259485
0.02200000 1608183.49570812 7212.70330594
0.02300000 1604653.13837158 6932.10187330
0.02400000 1600973.45121997 6604.01578741
0.02500000 1597147.28624644 6228.87470084
0.02600000 1593174.46408959 6452.35687468
0.02700000 1589057.17150464 7341.44446860
0.02800000 1584795.21638606 8962.01735966
0.02900000 1580390.93724202 9245.28740736
0.03000000 1575846.03851726 11724.29506548
0.03100000 1571160.40348652 8295.72731212
0.03200000 1566335.70903227 9304.03454018
0.03300000 1561375.73661708 14333.42992292
0.03400000 1556278.58340706 8987.50923386
0.03500000 1551047.33510213 10050.78719559
0.03600000 1545683.39271487 12009.96051642
0.03700000 1540188.30950378 11412.79590124
0.03800000 1534563.71132395 8977.19812671
0.03900000 1528811.68776256 11007.44466165
0.04000000 1522931.98930037 10302.63538503
0.04100000 1516928.66963843 10512.31616801
0.04200000 1510802.34246541 13642.54578538
0.04300000 1504553.94556664 12909.07345217
0.04400000 1498187.18732068 12135.31678089
0.04500000 1491703.17983468 14409.85338676
0.04600000 1485101.84257442 12563.96217224
0.04700000 1478387.77795490 10644.39249632
0.04800000 1471560.90522877 11897.57047235
0.04900000 1464624.98797054 13181.62550531
0.05000000 1457579.91853527 15610.68165444
0.05100000 1450429.98791528 16970.03164914
0.05200000 1443173.69248406 17209.84708487
0.05300000 1435816.75714880 12793.12790258
0.05400000 1428359.31036930 12962.36134609
0.05500000 1420803.64032068 16708.65158962
0.05600000 1413150.88035215 16915.41682716
0.05700000 1405406.28784001 17117.84938493
0.05800000 1397568.61540069 13605.33110619
0.05900000 1389640.14438285 18760.14282538
0.06000000 1381625.15240211 15170.24488211
0.06100000 1373524.78965433 16605.91548294
0.06200000 1365340.90892745 14192.71941172
0.06300000 1357077.19723303 15633.53004307
0.06400000 1348731.84427879 13150.13609671
0.06500000 1340310.86529067 14595.98600578
0.06600000 1331815.90110652 16061.70051885
0.06700000 1323247.46702456 14846.83727483
0.06800000 1314609.48204403 16327.45053126
0.06900000 1305904.41726403 17825.59613023
0.07000000 1297132.67459330 19340.24908386
0.07100000 1288297.60535071 13913.61478947
0.07200000 1279401.39641618 14009.44594705
0.07300000 1270446.51973884 15512.15273284
0.07400000 1261435.45428694 19867.60933610
0.07500000 1252369.93977572 17132.42157917
0.07600000 1243251.07923510 14359.55063835
0.07700000 1234083.72823296 23102.04847574
0.07800000 1224868.34203725 23223.50485412
0.07900000 1215606.66710759 18963.46489634
0.08000000 1206303.56956155 16122.24796350
0.08100000 1196959.02431140 25028.41437264
0.08200000 1187575.20881398 16263.84324789
0.08300000 1178155.74116561 19298.19194600
0.08400000 1168701.62649334 16391.04108094
0.08500000 1159215.83768859 22430.82751229
0.08600000 1149700.16982445 18004.30550478
0.08700000 1140157.85235674 15050.08435783
0.08800000 1130588.68001472 22640.03938056
0.08900000 1120998.31133779 18160.17349665
0.09000000 1111386.01616502 16687.46181662
0.09100000 1101754.77887959 15204.21666285
0.09200000 1092106.19307844 16758.37032021
0.09300000 1082445.87491093 16788.73630881
0.09400000 1072770.09615108 18344.36950632
0.09500000 1063084.52972499 21431.78512661
0.09600000 1053390.47436541 19924.88175925
0.09700000 1043692.05622905 21479.18352699
0.09800000 1033989.47838943 24567.59116164
0.09900000 1024285.53986365 16900.71220246
0.10000000 1014579.95589662 21519.24187656
0.10100000 1004876.73908391 15374.61483108
0.10200000 995177.59605875 19988.14295701
0.10300000 985483.86383019 16910.90389883
0.10400000 975798.94359049 18442.60090149
0.10500000 966125.07174991 16897.52829992
0.10600001 956459.87916416 21491.65449608
0.10700001 946810.43939247 16872.16282394
0.10800001 937175.64291245 21451.95147583
0.10900001 927558.73810287 16835.19188893
0.11000001 917960.15317426 15284.03726976
0.11100001 908382.80279685 16786.91498590
0.11200001 898827.67597990 15235.12982509
0.11300001 889296.81051666 18248.37141095
0.11400001 879792.23532688 16694.05845136
0.11500001 870315.70668214 18172.19281121
0.11600001 860868.16862819 18129.88448507
0.11700001 851452.54819334 15070.71081278
0.11800001 842067.81808382 24049.45801716
0.11900001 832717.04836787 16487.79833429
0.12000001 823400.66468439 16439.19504479
0.12100001 814124.10863913 20857.86064591
0.12200001 804884.94984387 17820.15362907
0.12300001 795686.32067107 17759.71951412
0.12400001 786528.18139581 19171.62532484
0.12500001 777411.80916997 22039.62582849
0.12600001 768341.73652811 17564.29292472
0.12700001 759315.99036632 17494.64124250
0.12800001 750336.83219255 17422.82206464
0.12900001 741405.82083643 20240.37986281
0.13000001 732524.47931170 18712.33870602
0.13100001 723692.44624152 15762.02222212
0.13200001 714912.14219816 14262.49790919
0.13300001 706184.92467687 14194.31765517
0.13400001 697510.67408751 15537.05099780
0.13500001 688891.88158079 18269.41356089
0.13600001 680328.69241896 19573.05740378
0.13700001 671822.52227973 18078.74492702
0.13800001 663372.51190923 17980.71278319
0.13900001 654982.80064571 15130.10340842
0.14000001 646651.48646300 16412.01550043
0.14100001 638381.71901338 21756.05001006
0.14200001 630172.75122684 14868.92676649
0.14300001 622026.77032716 14779.35676008
0.14400001 613940.69329802 18694.49499274
0.14500001 605921.01034055 17250.57197814
0.14600001 597964.82887107 21096.20015777
0.14700001 590074.49360568 15719.58525125
0.14800001 582247.35242517 16917.19762284
0.14900001 574487.76142562 20681.56038709
0.15000001 566794.61994296 12837.89874744
0.15100001 559168.76882685 14023.95338390
0.15200001 551611.68728368 17723.28434873
0.15300001 544122.80086564 12569.23729313
0.15400001 536700.96384474 16221.78739773
0.15500001 529349.94774940 14864.14723429
0.15600001 522066.74714787 17212.54146581
0.15700001 514856.37491627 14642.51599370
0.15800001 507713.08202934 15741.64485131
0.15900001 500642.73526163 18023.13932012
0.16000001 493640.48283080 14305.70186770
0.16100001 486712.17622308 14192.52772861
0.16200001 479854.45704641 14078.93043435
0.16300001 473067.72621600 15128.70659858
0.16400001 466353.22859893 13850.69154327
0.16500001 459709.71127054 14880.80405637
0.16600001 453138.61009487 13621.34726256
0.16700001 446638.91556682 12380.83132407
0.16800001 440211.48052225 14507.17002559
0.16900001 433857.06840917 11063.35576682
0.17000001 427573.31745440 13160.70733269
0.17100001 421362.44674267 11958.26680324
0.17200001 415223.34617020 10775.04634195
0.17300001 409155.84861452 11746.86496846
0.17400001 403161.52601805 11641.28961354
0.17500001 397237.41972449 13633.18888881
0.17600001 391384.14577888 12469.49947344
0.17700001 385604.83176187 12354.77939317
0.17800001 379894.99219030 11220.19912429
0.17900001 374256.19011761 14146.88465465
0.18000001 368689.17878443 11010.90284450
0.18100001 363193.36774494 11898.21528935
0.18200001 357765.75113222 12766.87143223
0.18300001 352408.78490206 12644.42779960
0.18400001 347121.74511420 12522.41754656
0.18500001 341904.32730258 12400.87053711
0.18600001 336756.16901454 11335.21318454
0.18700001 331676.29347700 15900.56226051
0.18800001 326663.06547489 9260.89834375
0.18900001 321721.32346086 11919.77559740
0.19000001 316842.89590060 10893.05927575
0.19100001 312034.44160039 8986.59234271
0.19200001 307291.18351119 18681.76838430
0.19300001 302615.90390459 9686.73554171
0.19400001 298004.21273791 11331.61072482
0.19500001 293458.91707557 10353.23108367
0.19600001 288977.28104378 11101.06277589
0.19700001 284561.53213110 10986.92127480
0.19800001 280208.29733895 12546.32710628
0.19900001 275918.57901861 11588.58086646
0.20000001 271690.47351778 11468.05542918
0.20100001 267525.65219832 8106.02764472
0.20200001 263421.29504690 12031.76821993
0.20300001 259378.42746986 7936.98025572
0.20400001 255396.31416880 10209.46814146
0.20500001 251473.19713460 10101.67880637
0.20600001 247608.82347050 9225.90519860
0.20700001 243803.68448806 9888.67791026
0.20800001 240055.69895952 8278.32116994
0.20900001 236367.76557616 8934.70196113
0.21000001 232733.27318383 10312.41182227
0.21100001 229156.36108938 8015.88988984
0.21200001 225633.81823752 9371.70108354
0.21300001 222166.10477851 7131.53230054
0.21400001 218752.68824719 9171.20688835
0.21500001 215393.84428162 8374.51306160
0.21600001 212086.23839750 8974.42960209
0.21700001 208831.43905089 8877.42489377
0.21800001 205628.12470606 9456.83790236
0.21900001 202475.11544790 7349.84703827
0.22000001 199371.46957138 7270.08098167
0.22100001 196319.18912085 7191.17223752
0.22200001 193314.80420641 10346.20881034
0.22300001 190358.18000698 8954.44921094
0.22400001 187448.70836133 10122.23073015
0.22500001 184587.84141886 6883.28093200
0.22600001 181771.33180757 6808.24555480
0.22700001 179001.27141782 10407.13441238
0.22800001 176275.52946829 8477.09061301
0.22900001 173593.04392908 7186.75235853
0.23000001 170954.87384233 6515.94532465
0.23100001 168360.68124896 7616.63757991
0.23200001 165806.76577050 6374.44141152
0.23300001 163295.47031757 6304.83840715
0.23400001 160824.17781551 7936.67355056
0.23500001 158392.68229183 7289.23158382
0.23600001 156001.27816673 6655.01484136
0.23700001 153648.86785559 6033.79132607
0.23800001 151334.33407578 5967.86974655
0.23900001 149057.55266090 8585.71543937
0.24000001 146817.20131591 5307.44207861
0.24100001 144614.34873727 6824.35143971
0.24200001 142447.25215658 5711.42284538
0.24300001 140314.55787099 6676.16697930
0.24400001 138216.64394679 7111.24666745
0.24500001 136152.05910431 6531.21458419
0.24600001 134121.34289788 4969.19598944
0.24700001 132123.63782114 5406.49951540
0.24800001 130157.80217758 6805.95179783
0.24900001 128222.44386896 5770.01024707
0.25000001 126319.45133861 7133.89135184
0.25100001 124446.00604282 6585.68295135
0.25200001 122604.30135053 5118.11680201
0.25300001 120790.32186781 4602.11148089
0.25400001 119006.51592395 5917.59928429
0.25500001 117249.17155066 5853.07892073
0.25600001 115520.94788345 5789.33257709
0.25700001 113819.04638693 4845.27703394
0.25800001 112144.11715832 4356.79915774
0.25900001 110496.19292942 4309.35172814
0.26000001 108873.20713481 4262.38626100
0.26100001 107275.10373451 5480.68530912
0.26200001 105703.27371269 4169.99434528
0.26300001 104153.95569652 4536.94652482
0.26400001 102629.90505469 6119.30837844
0.26500001 101128.92944394 6456.07116120
0.26600001 99650.58679744  6784.71052315
0.26700001 98195.12031678  5526.42163294
0.26800001 96762.03847953  3904.34843741
0.26900001 95349.95065812  3861.67318439
0.27000001 93959.98232049  3819.47346207
0.27100001 92590.33609661  4155.45448066
0.27200001 91241.98260641  4109.99530101
0.27300001 89913.52211380  3695.44593376
0.27400001 88603.62103152  4751.36940267
0.27500001 87315.05093882  4699.29626392
0.27600001 86043.27095473  4647.62750057
0.27700001 84792.25139948  3889.42075577
0.27800001 83558.48309371  4545.99948786
0.27900001 82343.16784047  3804.25453428
0.28000001 81145.17783356  4788.37717058
0.28100001 79964.86738649  4397.26826570
0.28200001 78802.00135669  4683.20316228
0.28300001 77655.69467003  4631.38584933
0.28400001 76525.26337022  3925.74619670
0.28500001 75411.72093746  4529.22817388
0.28600001 74313.96325496  3519.13789651
0.28700001 73232.57943668  3480.01233955
0.28800001 72164.95383582  4692.52634529
0.28900001 71114.32747880  4949.55742681
0.29000001 70077.71814143  3976.56030416
0.29100001 69056.54024788  3327.14426663
0.29200001 68049.28626681  3289.84290029
0.29300001 67056.71499857  3844.36165284
0.29400001 66077.39632040  2923.92492559
0.29500001 65113.20916043  4914.74526008
0.29600001 64161.37720540  3715.90633675
0.29700001 63223.60994120  3391.31459778
0.29800001 62299.24690567  2794.12135599
0.29900001 61388.18021086  2762.46824026
0.30000001 60489.19658012  4369.73976781
0.30100001 59604.00043374  3240.07361696
0.30200001 58730.29520273  3470.07965633
0.30300001 57869.91838366  2638.86840322
0.30400001 57021.50945415  3652.22785344
0.30500001 56185.66878715  2836.81455136
0.30600001 55360.74972385  3314.17143912
0.30700001 54548.41051907  3024.16402235
0.30800001 53747.59340854  2740.32117967
0.30900001 52958.55485770  2708.83020922
0.31000001 52180.89918350  3164.51078081
0.31100001 51414.15662987  3128.03743746
0.31200001 50659.60459543  3092.00911288
0.31300001 49915.33707600  2821.21498511
0.31400001 49183.52272003  2788.70587026
0.31500001 48461.28638198  3445.59762490
0.31600002 47751.06260999  2497.61944807
0.31700002 47050.72956617  2244.31990657
0.31800002 46361.06001174  2883.88987458
0.31900002 45682.66456731  2850.59840397
0.32000002 45014.76930240  3034.44574235
0.32100002 44356.87614453  2570.92466307
0.32200002 43710.39605908  2329.54566827
0.32300002 43072.48679163  2721.31984435
0.32400002 42445.99410136  2483.09077251
0.32500002 41829.46977992  2250.00728600
0.32600002 41223.19341682  2021.99773284
0.32700002 40626.98226834  2198.73238448
0.32800002 40041.66662961  2568.87324427
0.32900002 39464.16838458  2734.86699856
0.33000002 38898.10538807  2510.67833116
0.33100002 38340.82870286  2864.06003973
0.33200002 37794.86712232  2265.42444259
0.33300002 37257.77432511  2799.92187312
0.33400002 36731.07517373  2214.88393786
0.33500002 36213.31791277  2372.69670201
0.33600002 35705.00368391  2165.86562603
0.33700002 35206.31260214  1963.45614680
0.33800002 34717.87195945  2648.10580911
0.33900002 34238.00080453  1920.75193610
0.34000002 33767.84124220  1899.94767747
0.34100002 33307.00021032  2392.10886839
0.34200002 32856.25846223  2535.68186691
0.34300002 32414.18524759  1839.82924179
0.34400002 31981.98291006  2151.58800217
0.34500002 31558.54606796  1801.67748035
0.34600002 31144.80388745  1945.30454294
0.34700002 30739.15063620  1604.58373920
0.34800002 30343.46230094  1747.32835936
0.34900002 29956.36705888  1887.25121409
0.35000002 29578.61725749  1557.31427236
0.35100002 29210.60761664  2159.24821729
0.35200002 28849.85416631  1680.35983550
0.35300002 28499.24298227  1513.30987403
0.35400002 28156.95360281  1799.22942044
0.35500002 27823.84647261  1782.95216641
0.35600002 27498.74450697  1472.55783809
0.35700002 27182.56976150  1605.67447186
0.35800002 26875.24738831  1447.23214041
0.35900002 26577.10581388  1865.71291650
0.36000002 26287.15178449  1992.82907117
0.36100002 26004.94850513  1553.27564778
0.36200002 25732.83065640  1401.15269561
0.36300002 25467.72727592  1807.69936767
0.36400002 25211.44115038  1794.42440888
0.36500002 24962.56300990  1370.44477416
0.36600002 24722.95855608  1769.29861287
0.36700002 24490.81669183  1351.89314543
0.36800002 24267.60217570  2014.81776608
0.36900002 24052.22570311  1468.38844873
0.37000002 23844.20061623  1459.62280986
0.37100002 23643.95791778  1847.06608003
0.37200002 23452.32982574  1574.58949909
0.37300002 23268.09414550  1696.94218642
0.37400002 23091.29963903  1688.55136609
0.37500002 22922.40151623  1809.95290946
0.37600002 22761.21575070  1544.57617401
0.37700002 22607.17837482  1410.00978203
0.37800002 22460.57972585  1404.57241969
0.37900002 22322.12371750  1654.06944582
0.38000002 22189.97910843  1268.15736612
0.38100002 22064.45084222  1643.58102110
0.38200002 21947.19721679  1891.29980975
0.38300002 21835.91438724  1509.29847395
0.38400002 21732.15701341  1757.04497777
0.38500002 21634.48704148  1503.16423085
0.38600002 21544.55748353  1625.86010752
0.38700002 21460.17982922  1623.67728280
0.38800002 21382.59365405  1746.74415835
0.38900002 21311.32489465  2119.41136118
0.39000002 21246.98092768  1370.74903949
0.39100002 21187.95047047  1370.43670136
0.39200002 21135.69140774  1370.54397427
0.39300002 21088.92093125  2118.80398635
0.39400002 21049.27634820  1621.32058753
0.39500002 21014.09748759  1997.17991984
0.39600002 20984.96678223  1374.62031420
0.39700002 20960.83417789  1501.63423165
0.39800002 20943.27783271  1880.18285651
0.39900002 20930.21757210  1506.97573659
0.40000002 20922.64905512  1384.34714032
0.40100002 20919.98627606  1513.77027866
0.40200002 20922.81689030  1517.74120913
0.40300002 20930.19892755  1775.71816115
0.40400002 20942.46173908  2035.60737749
0.40500002 20959.00881454  1914.60554592
0.40600002 20981.06444599  1537.07285414
0.40700002 21006.94101250  1285.62485088
0.40800002 21037.06949068  1806.87398417
0.40900002 21070.99177566  1814.21247784
0.41000002 21109.75105130  1691.84107817
0.41100002 21152.15183626  1830.08426359
0.41200002 21197.65238215  1444.51409003
0.41300002 21248.17874447  2507.07272885
0.41400002 21301.42552176  1989.02070234
0.41500002 21358.23915891  1599.30502400
0.41600002 21417.52224186  1473.63268768
0.41700002 21481.47762205  1481.57758180
0.41800002 21548.71377215  1489.77039723
0.41900002 21617.22573195  1498.07381421
0.42000002 21689.16182562  2191.47301470
0.42100002 21764.56516578  1928.77585639
0.42200002 21842.22844055  1385.88946022
0.42300002 21922.03069312  1812.51358359
0.42400002 22004.12636835  1963.86837143
0.42500002 22088.90932615  1976.07392196
0.42600002 22174.63139274  1704.34224961
0.42700002 22263.56266468  1715.18494896
0.42800002 22353.57924225  1438.45289240
0.42900002 22446.38795973  2026.90892881
0.43000002 22540.43506041  1457.23919571
0.43100002 22634.53635219  1760.06163015
0.43200002 22731.41438113  1771.68652082
0.43300002 22828.77986032  1634.76900327
0.43400002 22927.77070392  2393.65937492
0.43500002 23027.29814281  1656.58390690
0.43600002 23128.44588007  1516.06969928
0.43700002 23229.60227301  1526.18494166
0.43800002 23331.08715440  1689.98737812
0.43900002 23434.09530988  1701.31540012
0.44000002 23536.95770976  2179.75775680
0.44100002 23640.51657923  2037.57622052
0.44200002 23744.09741988  1893.35441799
0.44300002 23847.96391455  2064.75681357
0.44400002 23951.66289540  1918.52828884
0.44500002 24054.77104831  1770.19068534
0.44600002 24157.61083610  1781.74467166
0.44700002 24261.17258943  1630.35087527
0.44800002 24363.25197497  1804.95160811
0.44900002 24465.38106358  2146.83729007
0.45000002 24567.13227342  1661.96657706
0.45100002 24667.40254974  2174.18496377
0.45200002 24767.37451965  1682.94317837
0.45300002 24866.10689568  2032.05835182
0.45400002 24963.93328348  2726.06164375
0.45500002 25061.05738996  2399.84696940
0.45600002 25156.59393870  2241.82997510
0.45700002 25251.18141383  1908.23186988
0.45800002 25344.05884664  1919.43238772
0.45900002 25435.55858588  3159.09652609
0.46000002 25526.04952011  2118.15168957
0.46100002 25614.09974952  2307.57435580
0.46200002 25701.20007498  2498.92780173
0.46300002 25786.42488414  1974.20878270
0.46400002 25869.30075760  2526.13733871
0.46500002 25951.46961119  1814.00781180
0.46600002 26030.63293026  2188.13510783
0.46700002 26107.88004066  2199.32791886
0.46800002 26183.78082545  2394.63778889
0.46900002 26256.85235819  2221.32981479
0.47000002 26327.82097771  2418.07883231
0.47100002 26396.94202454  2616.46501748
0.47200002 26463.66971236  2253.11694610
0.47300002 26527.98447416  1886.13978551
0.47400002 26589.46718386  2083.94958931
0.47500002 26648.93186143  2093.00720760
0.47600002 26706.45510170  3057.35512496
0.47700002 26760.50397340  1918.72822584
