# SAXS profile: number of points = 501, q_min = 0, q_max = 0.5, delta_q = 0.001
#    q    intensity    error
0.00000000 1628779.37420969 317.61197797
0.00100000 1628699.36014300 635.19276554
0.00200000 1628459.25374676 879.36802487
0.00300000 1628059.27966010 1172.20272311
0.00400000 1627499.31073627 1220.62452943
0.00500000 1626779.83356484 2928.20381632
0.00600000 1625900.77704610 1877.91547394
0.00700000 1624862.66660001 2144.81880905
0.00800000 1623665.35154882 2630.33798056
0.00900000 1622310.01796937 4380.23723576
0.01000000 1620796.07733550 3476.60773600
0.01100000 1619124.78101138 3497.30967926
0.01200000 1617296.01849800 5676.70927382
0.01300000 1615310.99561707 3392.15324041
0.01400000 1613169.59301595 5081.48444327
0.01500000 1610873.43233578 3866.09640976
0.01600000 1608421.73265216 6562.36096258
0.01700000 1605816.75798474 5636.41707337
0.01800000 1603058.48072341 5025.58856321
0.01900000 1600147.47360205 4800.44263741
0.02000000 1597085.08729280 6540.06372831
0.02100000 1593873.06563128 7889.67203258
0.02200000 1590510.03827534 8779.61581016
0.02300000 1586999.38461523 7998.47726254
0.02400000 1583340.29925756 5937.52639295
0.02500000 1579535.54443257 6776.20779509
0.02600000 1575585.01771865 7019.23157498
0.02700000 1571490.82926316 8580.34032077
0.02800000 1567252.85460357 9544.57032225
0.02900000 1562873.35414393 8439.51649987
0.03000000 1558354.10511392 8695.61630623
0.03100000 1553694.96721661 7457.73618579
0.03200000 1548897.50851604 9967.15592637
0.03300000 1543965.64035078 13386.18271895
0.03400000 1538897.53862345 11310.89743077
0.03500000 1533696.06385146 10766.54686542
0.03600000 1528362.64713531 11027.13700869
0.03700000 1522898.99042748 11284.68204096
0.03800000 1517306.56821171 10651.49260179
0.03900000 1511587.48229086 10883.43037651
0.04000000 1505741.62672324 15742.52943688
0.04100000 1499772.88283124 12283.14047991
0.04200000 1493681.91871487 10597.67370494
0.04300000 1487469.61701333 14725.94989198
0.04400000 1481139.82912970 12997.00260422
0.04500000 1474693.58866238 12210.46348148
0.04600000 1468130.65899692 13455.41811521
0.04700000 1461455.79956314 12626.97869548
0.04800000 1454668.88528214 13899.36184558
0.04900000 1447773.63852851 13029.96335327
0.05000000 1440770.06114797 14328.45892534
0.05100000 1433662.33938891 12300.82344498
0.05200000 1426449.08666597 13608.32492096
0.05300000 1419135.79613032 14943.50062989
0.05400000 1411722.81157639 11646.71373864
0.05500000 1404212.26658091 11795.38358953
0.05600000 1396605.33572803 13135.07379546
0.05700000 1388907.18601631 13291.84239062
0.05800000 1381116.90536587 14667.46221984
0.05900000 1373236.31125784 13595.04011642
0.06000000 1365269.83542553 14990.66349332
0.06100000 1357218.79763900 15146.56248947
0.06200000 1349084.86136512 15298.62304299
0.06300000 1340871.88398992 16734.08189460
0.06400000 1332577.87418393 14291.89836901
0.06500000 1324208.71142805 13109.66685638
0.06600000 1315766.47191975 17190.48975995
0.06700000 1307251.10590244 13333.96190422
0.06800000 1298667.05536633 16129.44558265
0.06900000 1290016.52342132 14899.69154310
0.07000000 1281299.80330355 16375.01225304
0.07100000 1272520.43168595 17866.18769768
0.07200000 1263680.65554958 17988.49497445
0.07300000 1254782.53717992 20892.13022296
0.07400000 1245829.05768325 15417.13531134
0.07500000 1236821.63309609 16919.72073382
0.07600000 1227761.48047917 17016.77491720
0.07700000 1218653.41599084 21387.36845346
0.07800000 1209497.81127480 17199.05968290
0.07900000 1200296.44034511 15843.91375569
0.08000000 1191054.26877182 17365.57205333
0.08100000 1181771.12658463 18896.52120068
0.08200000 1172449.11603622 14596.99217962
0.08300000 1163092.32273850 17585.95674515
0.08400000 1153701.11902736 19122.59694547
0.08500000 1144278.83824528 16237.31747696
0.08600000 1134827.14863828 19252.34348057
0.08700000 1125349.29421944 14854.61138124
0.08800000 1115845.03489891 22344.79787325
0.08900000 1106320.16495241 20909.45209971
0.09000000 1096773.68018996 19462.24986922
0.09100000 1087208.71127050 19504.52519654
0.09200000 1077626.93532241 24052.63432655
0.09300000 1068033.99337777 15059.28001429
0.09400000 1058425.87904777 18099.08338233
0.09500000 1048808.44882047 18123.41084747
0.09600000 1039182.81901265 19656.14394562
0.09700000 1029553.23859118 18161.31998256
0.09800000 1019919.94857593 16660.39314332
0.09900000 1010285.64050541 25762.28504429
0.10000000 1000650.30441789 16675.83810734
0.10100000 991017.40919563 16678.82378120
0.10200000 981389.18175207 18194.95628551
0.10300000 971766.56036757 24255.29448776
0.10400000 962153.10855391 25761.65069349
0.10500000 952551.05466347 16660.11872991
0.10600001 942958.15744929 19674.82288095
0.10700001 933381.15560940 21169.08560539
0.10800001 923819.01373217 24167.10653658
0.10900001 914275.46421811 19611.20963049
0.11000001 904750.14028631 15064.09054483
0.11100001 895246.45057286 16544.15518538
0.11200001 885765.30703479 16515.09492715
0.11300001 876308.53999580 17981.85208731
0.11400001 866878.66715721 17944.38925506
0.11500001 857476.63187302 19396.12232629
0.11600001 848104.16269916 19349.49738318
0.11700001 838763.70673359 14846.11830836
0.11800001 829454.47223903 14805.76302679
0.11900001 820179.37110378 20668.52112534
0.12000001 810938.93631887 16190.39662625
0.12100001 801738.37981984 20540.53825861
0.12200001 792575.53948735 16085.32133170
0.12300001 783453.15416528 18943.89816025
0.12400001 774371.82750902 24683.10316486
0.12500001 765332.15682497 15911.25629014
0.12600001 756339.03990418 15849.08532806
0.12700001 747390.39001952 15784.88578110
0.12800001 738488.36446581 17147.70063105
0.12900001 729634.73041468 19919.02907915
0.13000001 720830.86696969 19830.05808502
0.13100001 712076.59571284 23968.49934151
0.13200001 703373.86252185 15435.54014068
0.13300001 694724.29439538 15360.35487321
0.13400001 686128.12008468 16672.91410411
0.13500001 677587.26683271 19351.89325315
0.13600001 669102.05464144 19250.06701969
0.13700001 660674.00992414 13675.95265030
0.13800001 652302.32699850 17680.65540704
0.13900001 643990.61006748 14876.18379409
0.14000001 635737.46450781 16135.01761015
0.14100001 627546.16943606 18713.42765516
0.14200001 619415.53652758 14615.11027369
0.14300001 611347.61513999 15846.13093185
0.14400001 603340.09863419 15747.17731714
0.14500001 595398.62335046 13039.23046646
0.14600001 587520.88412759 16841.28693799
0.14700001 579708.75512214 16730.39546211
0.14800001 571959.87024598 14061.63407341
0.14900001 564278.40767726 15235.51772611
0.15000001 556663.62427302 16390.96119009
0.15100001 549115.77687005 13771.82433372
0.15200001 541636.75661361 19888.90264135
0.15300001 534225.79840252 13574.67817798
0.15400001 526881.90411091 17150.00678814
0.15500001 519608.81901470 18238.27040813
0.15600001 512403.45866022 14480.52242514
0.15700001 505270.70303311 14369.89947248
0.15800001 498205.23215847 11882.19534780
0.15900001 491212.18197983 15325.82080116
0.16000001 484287.36146098 12865.09436447
0.16100001 477436.46120555 11601.70655494
0.16200001 470655.91578596 14959.79898945
0.16300001 463946.12258379 14836.99770065
0.16400001 457308.37241715 13582.05930199
0.16500001 450741.60545395 14590.50645738
0.16600001 444246.80780905 14466.89797933
0.16700001 437823.65742178 11033.15668796
0.16800001 431472.58177916 13125.39655746
0.16900001 425194.14698362 14095.18663805
0.17000001 418986.15844383 12896.39456586
0.17100001 412850.89305507 13847.01960694
0.17200001 406787.47044725 15834.20303490
0.17300001 400795.01238422 14645.05044412
0.17400001 394875.86337889 12438.59028386
0.17500001 389026.56229723 14378.42242156
0.17600001 383247.77124853 15262.84321082
0.17700001 377542.96529809 12096.47717947
0.17800001 371907.23038113 11982.85152886
0.17900001 366342.45289553 12858.62070399
0.18000001 360848.98814550 14695.57573637
0.18100001 355426.58766649 11643.77556197
0.18200001 350072.21584652 9609.48277892
0.18300001 344788.01004007 13322.60933730
0.18400001 339573.80851689 10365.49099465
0.18500001 334428.80640806 9330.56413958
0.18600001 329352.62182713 11086.00977444
0.18700001 324344.55080297 10975.82011772
0.18800001 319403.02789258 9055.07626857
0.18900001 314532.46012981 16135.51596702
0.19000001 309724.89746320 9760.98060475
0.19100001 304987.08525834 14932.16839979
0.19200001 300314.26829205 10432.91817344
0.19300001 295708.80836564 9465.63940306
0.19400001 291166.87438968 10219.95777401
0.19500001 286690.93142711 9271.58516048
0.19600001 282278.40932532 8341.32738974
0.19700001 277931.33812053 10730.92947195
0.19800001 273646.40592466 8168.34560288
0.19900001 269424.83802766 13740.66738879
0.20000001 265264.29985714 11196.80662614
0.20100001 261166.91361196 9496.02942774
0.20200001 257129.40338452 8612.54977342
0.20300001 253153.14730696 7746.48667373
0.20400001 249237.65401788 9196.86986796
0.20500001 245380.36947736 7582.25377524
0.20600001 241581.43058631 8251.21415169
0.20700001 237841.52018306 8904.78693657
0.20800001 234158.35625039 9543.12426009
0.20900001 230534.89653232 8714.21950085
0.21000001 226964.42639233 7901.76687838
0.21100001 223451.13061118 9948.04480509
0.21200001 219991.97193305 7731.61821910
0.21300001 216587.11579229 8342.93609474
0.21400001 213236.29155763 8252.24487342
0.21500001 209939.43010910 8162.44542854
0.21600001 206693.60700288 10764.60356165
0.21700001 203499.99511001 8650.78520113
0.21800001 200357.58267695 9214.44566298
0.21900001 197265.13371290 10415.59955251
0.22000001 194221.69596299 7726.13943072
0.22100001 191229.11701561 8278.30886703
0.22200001 188283.85199884 6927.90466188
0.22300001 185386.09981878 6851.87057330
0.22400001 182535.14061754 6160.56128715
0.22500001 179732.29139014 6702.21746287
0.22600001 176973.33984036 7231.13100782
0.22700001 174260.37032505 8939.55742042
0.22800001 171591.47072868 8841.25094740
0.22900001 168965.28018828 6995.16293060
0.23000001 166382.96460299 6341.68699575
0.23100001 163844.36520100 5701.78417865
0.23200001 161345.29899854 5639.01846669
0.23300001 158888.52091983 7250.08355246
0.23400001 156471.55457515 7721.87158349
0.23500001 154093.70071148 7636.88416846
0.23600001 151755.52135689 7552.87265516
0.23700001 149456.07933939 6402.69874173
0.23800001 147193.99273656 6332.28586704
0.23900001 144969.12358028 5218.88869574
0.24000001 142780.36306413 6709.96347958
0.24100001 140628.54094301 8167.70604431
0.24200001 138512.11000688 5048.76664857
0.24300001 136429.54794986 5492.65386028
0.24400001 134381.53143267 6913.93011926
0.24500001 132366.18399354 5372.74366245
0.24600001 130384.39283085 6279.96457777
0.24700001 128435.11259865 6211.12233909
0.24800001 126517.23004760 6143.04439557
0.24900001 124629.66906692 6075.69665444
0.25000001 122773.68561664 6471.40127500
0.25100001 120946.87389415 5028.97125443
0.25200001 119151.38597428 8139.23156097
0.25300001 117383.21927913 7602.91147241
0.25400001 115644.73131301 5750.43453660
0.25500001 113932.40058162 4812.50482826
0.25600001 112248.54278257 5192.61783480
0.25700001 110590.64073310 5135.82959864
0.25800001 108959.34532429 4656.37784275
0.25900001 107354.45948870 4186.82411816
0.26000001 105774.29201551 6625.70196535
0.26100001 104218.29645505 5324.51301782
0.26200001 102688.43679639 6076.58853495
0.26300001 101180.31878714 6811.45938305
0.26400001 99697.40720070  6737.05261037
0.26500001 98236.84221078  5487.51026556
0.26600001 96798.68515561  5427.50253350
0.26700001 95382.71227969  4984.70077961
0.26800001 93988.83319978  4930.18447880
0.26900001 92615.58547831  6376.58336193
0.27000001 91263.96577813  5193.83253822
0.27100001 89932.20198047  5503.85102166
0.27200001 88621.37985537  4354.85481218
0.27300001 87329.98214704  5024.96741054
0.27400001 86056.71195488  3549.83953613
0.27500001 84804.45740557  7021.80940549
0.27600001 83568.40914163  3819.49432058
0.27700001 82352.73117803  3777.51995791
0.27800001 81153.94055451  3735.92183024
0.27900001 79973.17983989  4366.53582592
0.28000001 78809.37369923  3321.81525864
0.28100001 77662.75021956  3613.64793875
0.28200001 76533.25287868  3573.72041231
0.28300001 75419.81843214  3855.46130073
0.28400001 74321.94740752  4765.89510308
0.28500001 73240.44688609  3770.41838416
0.28600001 72174.43109026  4039.24222715
0.28700001 71124.27471972  4916.11010132
0.28800001 70087.62369303  3645.95835709
0.28900001 69067.35347952  3304.87302043
0.29000001 68061.03848327  4456.29670563
0.29100001 67069.54248879  3525.17532007
0.29200001 66091.69962157  4938.04157097
0.29300001 65127.98742767  3159.35881967
0.29400001 64177.24140367  2839.84306654
0.29500001 63241.36236851  3369.49994650
0.29600001 62317.25047344  3331.48036801
0.29700001 61407.03441216  2744.89456816
0.29800001 60509.72320047  2985.24733541
0.29900001 59625.27825432  3219.76517815
0.30000001 58752.69096857  3183.22094737
0.30100001 57893.45828778  3147.08854151
0.30200001 57045.31586674  3111.25167466
0.30300001 56210.21677817  4357.41621093
0.30400001 55386.70523415  2787.33607287
0.30500001 54575.46682868  2755.51545063
0.30600001 53774.68644841  2723.95687100
0.30700001 52986.16855278  3182.34943394
0.30800001 52208.84569424  2419.88011249
0.30900001 51442.94395671  3348.93581013
0.31000001 50688.07307996  2837.51846536
0.31100001 49943.84188108  3038.58348391
0.31200001 49211.47921376  2541.52696433
0.31300001 48489.07350850  2740.60256446
0.31400001 47778.71727880  2709.05339797
0.31500001 47077.85464764  3347.23562393
0.31600002 46388.38864770  2867.49838003
0.31700002 45708.64348898  3270.45359649
0.31800002 45039.09152116  2801.65682073
0.31900002 44380.58748058  3195.40244990
0.32000002 43732.32338944  2526.85376509
0.32100002 43093.83912358  2289.57578105
0.32200002 42466.23796555  2468.98719222
0.32300002 41847.06470578  2237.14418510
0.32400002 41238.86284754  2613.51305672
0.32500002 40640.48458436  3974.63958056
0.32600002 40052.11541933  2357.46762521
0.32700002 39473.39612979  1942.09118155
0.32800002 38905.34527602  2111.97676832
0.32900002 38344.80510998  3416.52229708
0.33000002 37795.52016640  2251.85719815
0.33100002 37254.66617300  2040.81070960
0.33200002 36724.87756455  3118.49312607
0.33300002 36203.63477806  2720.70328241
0.33400002 35692.67232518  2152.26824313
0.33500002 35190.22198639  1950.94599931
0.33600002 34697.03323891  2104.72213594
0.33700002 34213.17221497  1908.06870479
0.33800002 33739.38393173  2058.77730501
0.33900002 33273.96754663  1866.66966777
0.34000002 32817.90220119  1678.63577709
0.34100002 32370.86643326  1826.68807934
0.34200002 31933.84304497  2135.89519322
0.34300002 31505.29510171  2601.07728678
0.34400002 31086.26328506  2091.32846155
0.34500002 30675.74792249  2388.10708887
0.34600002 30274.70609156  1890.95823204
0.34700002 29881.61415226  2651.69456546
0.34800002 29498.26413241  1853.08104056
0.34900002 29123.24620154  1834.76459759
0.35000002 28757.33396307  1968.29581633
0.35100002 28401.09005788  1799.49315130
0.35200002 28051.72970667  2079.47482165
0.35300002 27712.37124843  1912.98507788
0.35400002 27381.24132773  2187.07675464
0.35500002 27059.09362250  2022.93793503
0.35600002 26744.70421222  1718.61477408
0.35700002 26439.01191032  2413.61751161
0.35800002 26141.98191652  2252.39326861
0.35900002 25853.96571657  1535.72563630
0.36000002 25573.92579860  1938.75940662
0.36100002 25301.53079064  1511.26050571
0.36200002 25038.95464740  1772.38248867
0.36300002 24783.36595663  1623.80621439
0.36400002 24536.32731114  1746.37317909
0.36500002 24296.56576256  1734.04598061
0.36600002 24065.88816119  1589.79264723
0.36700002 23842.55153087  1447.71979753
0.36800002 23627.96184795  2092.49240037
0.36900002 23421.07700206  1299.86983519
0.37000002 23221.45832422  1679.95648204
0.37100002 23029.33139672  1670.54777865
0.37200002 22845.74652070  1406.04153622
0.37300002 22669.40829191  1653.28002505
0.37400002 22500.43598305  1392.21454240
0.37500002 22339.20516341  1763.90372326
0.37600002 22185.49100416  1756.42540600
0.37700002 22038.78381207  1374.55901147
0.37800002 21899.47807512  1493.98246506
0.37900002 21768.12999228  2109.33189618
0.38000002 21643.02746726  1731.65870969
0.38100002 21524.35743313  1726.68403508
0.38200002 21413.93947788  1599.30014567
0.38300002 21309.19829646  1350.15086803
0.38400002 21211.99650048  1347.49214153
0.38500002 21120.85122536  2078.92548460
0.38600002 21037.16962273  1221.20775445
0.38700002 20959.10894827  1585.76625815
0.38800002 20887.61729316  1340.67177948
0.38900002 20822.38069383  1705.35305962
0.39000002 20763.98320109  1461.36920693
0.39100002 20710.89790553  1704.92119636
0.39200002 20664.24516221  1461.78877203
0.39300002 20623.16923783  1340.71229567
0.39400002 20589.05712641  1219.90169254
0.39500002 20559.43185425  1465.47637200
0.39600002 20535.79613301  1834.36007649
0.39700002 20516.91051778  1837.28942391
0.39800002 20504.60478362  1595.36085078
0.39900002 20496.74572409  1352.78528188
0.40000002 20494.29211911  1356.00490231
0.40100002 20496.71429660  1977.52308903
0.40200002 20504.52265320  1859.24767967
0.40300002 20516.78346593  1864.97570542
0.40400002 20533.83989439  1621.66008249
0.40500002 20555.16089816  1627.35216541
0.40600002 20581.94837214  1507.83360919
0.40700002 20612.57204682  1513.78736284
0.40800002 20647.25097728  1646.72157972
0.40900002 20685.65414120  1781.03490595
0.41000002 20728.95627620  1789.11630097
0.41100002 20775.74121117  1540.72904122
0.41200002 20825.63154987  1290.14793565
0.41300002 20880.50353785  1685.68313048
0.41400002 20938.04634718  1433.73279156
0.41500002 20999.07778987  1441.37676779
0.41600002 21062.70759981  1712.71414963
0.41700002 21130.84270175  1987.35585027
0.41800002 21202.16432608  1865.57852745
0.41900002 21274.77231049  1474.34179098
0.42000002 21350.74722767  1483.12972645
0.42100002 21430.15592595  2034.79340159
0.42200002 21511.82363241  1637.91032898
0.42300002 21595.57361617  1510.82640178
0.42400002 21681.66052107  2073.30888557
0.42500002 21770.25190413  1530.23107885
0.42600002 21859.81469075  1540.13331702
0.42700002 21952.62214313  1832.16593089
0.42800002 22046.47595937  1702.42895426
0.42900002 22143.10104148  1713.87610183
0.43000002 22240.84822096  2013.01926787
0.43100002 22338.71685492  1447.54892079
0.43200002 22439.33179398  1894.66506981
0.43300002 22540.41523980  1760.85732198
0.43400002 22643.04789863  2068.44252356
0.43500002 22746.28200449  2082.64967902
0.43600002 22850.99808079  1947.24789373
0.43700002 22955.84086121  2262.29822408
0.43800002 23060.91203894  2277.84169459
0.43900002 23167.56163687  1529.05914049
0.44000002 23273.99924913  2309.36268494
0.44100002 23381.14029480  2635.28844751
0.44200002 23488.33080867  2185.11951868
0.44300002 23595.73451869  1728.62359276
0.44400002 23702.97575238  2689.69530097
0.44500002 23809.63338195  2230.01036824
0.44600002 23916.02802666  2726.06858381
0.44700002 24023.05584662  2582.95908704
0.44800002 24128.72263116  2925.12518320
0.44900002 24234.34031216  2290.14526803
0.45000002 24339.66089133  1646.57813733
0.45100002 24443.34561691  2485.88836705
0.45200002 24546.79972898  1834.75063270
0.45300002 24649.08257576  1846.46286326
0.45400002 24750.32794483  2027.05195475
0.45500002 24850.94016543  2039.76526545
0.45600002 24949.97772659  2394.44947590
0.45700002 25048.03846415  2409.12045366
0.45800002 25144.37503205  2077.42836361
0.45900002 25239.40711363  2089.82300805
0.46000002 25333.38519235  2102.16440289
0.46100002 25424.95755215  1938.14460606
0.46200002 25515.52812096  2480.87491678
0.46300002 25604.18580464  1782.05141646
0.46400002 25690.51552593  2329.48760572
0.46500002 25776.21260448  2882.81175432
0.46600002 25858.77299771  2898.25141495
0.46700002 25939.57601643  3095.62914852
0.46800002 26018.89605152  2379.55825117
0.46900002 26095.47501655  2207.67729104
0.47000002 26169.96789291  2218.68998312
0.47100002 26242.57679161  2601.16433487
0.47200002 26312.75059657  1866.88974331
0.47300002 26380.53148826  2438.35264103
0.47400002 26445.55712968  1884.24603480
0.47500002 26508.51258893  2460.52025513
0.47600002 26569.48102354  2281.25574881
0.47700002 26627.05183193  2672.82358958
