# SAXS profile: number of points = 501, q_min = 0, q_max = 0.5, delta_q = 0.001
#    q    intensity    error
0.00000000 1646666.22097350 246.99993315
0.00100000 1646585.69612088 592.77086468
0.00200000 1646344.06329616 889.02582233
0.00300000 1645941.53657016 1283.83444426
0.00400000 1645377.98867308 1604.24359991
0.00500000 1644653.91363340 2072.26401320
0.00600000 1643769.25419003 1725.95778717
0.00700000 1642724.50916710 1971.26949293
0.00800000 1641519.55477602 2437.65664176
0.00900000 1640155.55000589 2952.28011621
0.01000000 1638631.94474774 3244.49139070
0.01100000 1636949.95935630 3241.16106064
0.01200000 1635109.49949969 3188.46366382
0.01300000 1633111.74673785 4458.39526523
0.01400000 1630956.65332683 3669.65263266
0.01500000 1628645.74762044 5081.37495884
0.01600000 1626178.31461379 4976.10586517
0.01700000 1623556.65121066 5698.68410138
0.01800000 1620780.66009669 5081.14759804
0.01900000 1617850.97592621 4853.55314678
0.02000000 1614768.88124386 6103.82664721
0.02100000 1611536.19720608 7445.29756865
0.02200000 1608151.48365641 8322.18430602
0.02300000 1604618.26458589 9820.26422627
0.02400000 1600935.49257265 7204.21004507
0.02500000 1597106.22763896 8720.20040117
0.02600000 1593130.10904553 9033.04813144
0.02700000 1589009.43872723 7341.22394316
0.02800000 1584743.98639168 7583.00032264
0.02900000 1580336.10067222 8533.81533545
0.03000000 1575787.47673318 10258.37694506
0.03100000 1571097.95043678 7541.27050909
0.03200000 1566269.33092330 7753.03354516
0.03300000 1561305.34284067 12740.25218491
0.03400000 1556204.06703890 8170.07172892
0.03500000 1550968.59097563 11725.32308923
0.03600000 1545600.29035482 12867.12301184
0.03700000 1540100.71906649 12290.00430653
0.03800000 1534471.58856030 10771.99105022
0.03900000 1528714.85338691 12841.20536313
0.04000000 1522830.56684203 15921.19431411
0.04100000 1516822.41590509 16245.16882758
0.04200000 1510691.09854309 14615.93705648
0.04300000 1504437.81184743 9929.29001909
0.04400000 1498065.90432453 13145.52892095
0.04500000 1491576.73253024 11321.06792594
0.04600000 1484970.13957260 10469.03997066
0.04700000 1478250.77264411 11707.74666384
0.04800000 1471418.63909596 11896.42025061
0.04900000 1464477.20813772 14278.65344398
0.05000000 1457426.53985313 17838.90167849
0.05100000 1450271.00226322 12443.32577908
0.05200000 1443009.12408511 11471.92307108
0.05300000 1435646.42453383 13954.48389700
0.05400000 1428183.20717263 17673.76801296
0.05500000 1420621.67992199 13126.54493482
0.05600000 1412963.08370340 14497.00191529
0.05700000 1405212.56069713 13447.88483360
0.05800000 1397368.86647093 12366.71504570
0.05900000 1389434.31875118 16256.38228866
0.06000000 1381413.22123199 13903.92472127
0.06100000 1373306.87033513 15326.10538915
0.06200000 1365116.71981637 15480.42432633
0.06300000 1356846.84680972 14328.30337223
0.06400000 1348495.24820647 15777.39514187
0.06500000 1340068.14528157 15920.01031065
0.06600000 1331566.66473369 17396.91928872
0.06700000 1322991.98512375 14843.97076777
0.06800000 1314347.70651193 13603.49939917
0.06900000 1305636.35256696 15080.10057818
0.07000000 1296858.13768747 13811.53981314
0.07100000 1288016.71264083 20865.87172209
0.07200000 1279114.08785001 19608.81988535
0.07300000 1270152.77806203 18328.30544622
0.07400000 1261135.38540060 19862.88325092
0.07500000 1252063.53506088 15700.87746560
0.07600000 1242938.23546358 14355.93729262
0.07700000 1233764.38939614 15878.54843605
0.07800000 1224542.68292201 14510.83147313
0.07900000 1215274.48049455 16041.62389494
0.08000000 1205965.12828268 19048.22009480
0.08100000 1196614.22460418 23549.36904510
0.08200000 1187224.06642670 14780.94032061
0.08300000 1177798.12005444 17808.30841100
0.08400000 1168337.91824965 16385.94007259
0.08500000 1158845.75694873 17938.93315971
0.08600000 1149323.90101769 17998.41313499
0.08700000 1139775.42222289 16549.53990780
0.08800000 1130200.12867279 15088.17242638
0.08900000 1120603.41155328 19666.59079649
0.09000000 1110985.19548666 19714.43322001
0.09100000 1101347.84805699 18238.32122068
0.09200000 1091693.23156571 16752.03342550
0.09300000 1082026.91934283 22884.87041951
0.09400000 1072345.28359244 18337.10521123
0.09500000 1062654.01341114 26013.77147102
0.09600000 1052954.01901048 18384.57803614
0.09700000 1043249.86243681 23003.66054820
0.09800000 1033541.52591294 19952.52009587
0.09900000 1023832.12226221 16893.23081169
0.10000000 1014121.13782059 18436.72315261
0.10100000 1004412.32355977 18441.01112787
0.10200000 994707.87647640 19978.70863875
0.10300000 985008.62027217 21512.58927871
0.10400000 975318.61839023 29186.41102840
0.10500000 965639.53582329 16889.03627617
0.10600001 955969.32377799 15343.30836859
0.10700001 946314.83934041 19929.39145434
0.10800001 936675.17849488 18377.56786695
0.10900001 927053.46458430 22944.57432836
0.11000001 917450.09184162 16803.09922299
0.11100001 907868.18782724 19827.84215551
0.11200001 898308.48450039 15226.32952909
0.11300001 888773.34680004 16717.82744040
0.11400001 879264.22929511 21234.23213728
0.11500001 869783.67396541 21187.93129549
0.11600001 860332.00091987 19628.47552532
0.11700001 850912.29610424 21085.60769049
0.11800001 841523.61654581 15021.19726282
0.11900001 832169.01645869 19472.75590233
0.12000001 822849.11468848 23895.53941615
0.12100001 813568.98352141 20843.63833972
0.12200001 804326.38464102 22259.73374363
0.12300001 795124.42944334 16268.24659288
0.12400001 785963.00851870 19157.84923531
0.12500001 776843.47263824 16150.57655717
0.12600001 767770.53833674 21939.04416682
0.12700001 758741.99058787 20394.98566814
0.12800001 749760.01837922 15958.64274332
0.12900001 740826.49552949 18779.95254681
0.13000001 731942.63969529 15820.94090273
0.13100001 723108.43200470 20044.56668002
0.13200001 714325.80036811 22801.28062261
0.13300001 705596.74998278 21273.74301489
0.13400001 696920.38154533 18346.42990913
0.13500001 688299.83014696 18253.71235613
0.13600001 679734.81584442 15365.40623665
0.13700001 671227.23035486 15283.84475586
0.13800001 662775.78491201 19346.42607388
0.13900001 654384.99615883 17864.71123760
0.14000001 646052.52792525 21862.41857603
0.14100001 637781.78861621 14943.22801204
0.14200001 629572.07084554 14854.75371223
0.14300001 621425.32532246 16107.34519210
0.14400001 613338.81095136 16008.14372093
0.14500001 605318.77495636 15907.77815626
0.14600001 597362.35983345 13171.84065570
0.14700001 589471.96610174 15703.53391779
0.14800001 581644.85411076 15599.71572322
0.14900001 573885.40503181 16786.14888916
0.15000001 566192.60033804 14106.68930302
0.15100001 558567.24914455 16555.93404584
0.15200001 551010.98661182 13910.27301340
0.15300001 543522.81496605 16321.99090365
0.15400001 536101.95830069 17450.11956618
0.15500001 528751.92416488 13610.07517030
0.15600001 521470.03166810 13508.68180790
0.15700001 514261.03764204 12187.98716735
0.15800001 507119.35351869 12094.79715228
0.15900001 500050.60731921 15601.57968476
0.16000001 493050.29367844 16670.03121613
0.16100001 486123.85916855 12994.09136895
0.16200001 479268.22015059 11718.10853585
0.16300001 472483.83512588 18596.96462848
0.16400001 465771.59964177 14986.20192597
0.16500001 459130.67289391 11432.35429479
0.16600001 452562.47642120 11336.69056959
0.16700001 446065.59665873 11240.85356653
0.16800001 439641.06388530 12259.39164529
0.16900001 433289.83874537 12153.78055069
0.17000001 427009.30514769 14238.62595249
0.17100001 420801.88833141 11942.35815478
0.17200001 414666.21439230 15064.82428028
0.17300001 408602.46928110 11730.97744705
0.17400001 402612.07803866 11625.42430239
0.17500001 396691.90598340 11519.93349382
0.17600001 390842.67233365 14527.62281677
0.17700001 385067.67521990 11309.43815536
0.17800001 379362.18400307 15278.81268237
0.17900001 373727.81344648 14126.91201554
0.18000001 368165.55053189 10995.26468600
0.18100001 362674.48173949 9901.01381918
0.18200001 357251.76958293 12748.52999978
0.18300001 351899.84345104 10683.67975186
0.18400001 346618.03658038 11542.38116340
0.18500001 341405.85847088 15240.35824213
0.18600001 336263.16981706 10375.40059488
0.18700001 331188.68659303 10273.47354348
0.18800001 326181.06812991 10171.95709022
0.18900001 321244.99272225 11902.12754270
0.19000001 316372.57993003 10876.88981191
0.19100001 311570.06543446 10767.86197020
0.19200001 306832.87812049 13324.21836197
0.19300001 302163.85200093 12310.15591220
0.19400001 297558.53079715 11314.66366822
0.19500001 293019.67890412 8614.77896687
0.19600001 288544.57460491 8526.49258251
0.19700001 284135.38194982 9282.70336698
0.19800001 279788.88236379 10022.03823990
0.19900001 275505.97609981 10744.73357569
0.20000001 271284.73999127 8997.15882703
0.20100001 267127.06769809 8903.34558717
0.20200001 263029.80053080 11212.96092659
0.20300001 258994.11040248 9510.26418348
0.20400001 255019.32904849 10194.39816056
0.20500001 251103.52977623 10086.82926788
0.20600001 247246.59144028 9212.40843252
0.20700001 243449.09729789 9874.29585315
0.20800001 239708.64094081 11272.29937309
0.20900001 236028.36704113 8178.38330458
0.21000001 232401.66145934 11033.26939935
0.21100001 228832.52785006 10187.62462149
0.21200001 225317.94951851 8638.69059293
0.21300001 221858.13824002 9258.14054644
0.21400001 218452.75108354 7045.10155551
0.21500001 215101.99781880 7666.23556470
0.21600001 211802.62419294 9651.84604080
0.21700001 208555.89839513 8183.73383995
0.21800001 205360.88133842 10119.15790639
0.21900001 202216.21619650 9342.38963000
0.22000001 199120.94997173 9241.20372514
0.22100001 196076.97234069 7835.23618521
0.22200001 193081.03698055 10979.55368706
0.22300001 190132.79903706 8305.00105464
0.22400001 187231.89999450 6319.07692362
0.22500001 184379.60672659 6875.51585996
0.22600001 181571.73542705 6182.51788365
0.22700001 178810.12205793 6726.83710993
0.22800001 176093.07393371 7863.43658837
0.22900001 173419.25317832 7777.85387287
0.23000001 170789.81152918 10060.37432390
0.23100001 168204.26333173 5853.50864077
0.23200001 165659.01052053 8105.69576812
0.23300001 163156.46941101 8017.50928604
0.23400001 160693.82493859 6230.90335669
0.23500001 158271.15359679 9524.75847394
0.23600001 155888.37131801 9421.11416619
0.23700001 153544.70339381 5481.54617042
0.23800001 151238.98593747 5964.10969254
0.23900001 148970.87208218 5362.95164862
0.24000001 146739.23215503 6365.54819198
0.24100001 144545.11141587 5771.68657184
0.24200001 142386.73546326 6227.99610376
0.24300001 140262.71903661 5646.97733553
0.24400001 138173.40777178 6601.23486856
0.24500001 136117.51875813 8538.65235561
0.24600001 134095.38741208 5465.05777250
0.24700001 132106.23068813 6880.09281971
0.24800001 130148.96370374 5347.17042673
0.24900001 128222.17120505 5289.16481243
0.25000001 126327.64750816 8085.60146128
0.25100001 124462.69384839 4704.69005004
0.25200001 122629.40357676 7911.43634604
0.25300001 120823.76519922 5984.40137344
0.25400001 119048.20266250 4553.59396728
0.25500001 117299.16829802 9008.57655150
0.25600001 115579.19499995 5792.25163147
0.25700001 113885.49807256 5288.84278072
0.25800001 112218.70767764 5231.63639946
0.25900001 110578.89178034 7331.38087192
0.26000001 108963.86866235 5545.71635797
0.26100001 107373.66716648 4641.76385124
0.26200001 105809.74034585 5843.87223582
0.26300001 104268.32256626 7019.34380730
0.26400001 102751.95151457 4492.82929257
0.26500001 101258.60957317 6060.32806972
0.26600001 99787.94246955  4795.80874202
0.26700001 98339.97104238  4348.59372527
0.26800001 96914.39552765  6256.79367134
0.26900001 95509.63295678  4254.95434958
0.27000001 94126.92088044  5739.38927229
0.27100001 92764.40093518  5677.18160589
0.27200001 91423.26689437  4866.91784344
0.27300001 90101.77389433  4814.13800700
0.27400001 88798.85936975  3662.95312235
0.27500001 87517.02285452  5072.48688471
0.27600001 86252.08923396  5375.66171591
0.27700001 85007.69394060  5317.23150763
0.27800001 83780.45149039  4908.69688514
0.27900001 82571.56478207  4161.60706198
0.28000001 81379.93049127  5145.24634883
0.28100001 80205.92220335  3731.98173675
0.28200001 79049.17734112  4362.32905804
0.28300001 77908.91239969  4646.48775544
0.28400001 76784.43712336  3939.04181087
0.28500001 75676.68912241  4220.48915212
0.28600001 74584.68616005  4495.21924763
0.28700001 73508.78751834  3810.69572532
0.28800001 72446.67360079  3140.56344925
0.28900001 71401.48385921  4037.75410336
0.29000001 70370.07366239  4300.31540506
0.29100001 69354.01645544  3645.24727744
0.29200001 68351.76947228  3004.06041051
0.29300001 67364.06421568  4159.05752155
0.29400001 66389.53070755  3819.05793473
0.29500001 65430.06466561  3195.60450954
0.29600001 64482.75489005  3447.24823961
0.29700001 63549.23740601  3124.71615117
0.29800001 62629.15530233  3089.80952311
0.29900001 61722.31897432  3610.75583093
0.30000001 60827.29960593  3020.98797794
0.30100001 59945.93011316  3801.77106775
0.30200001 59076.01016051  2953.50526780
0.30300001 58219.27066878  4513.15807590
0.30400001 57374.25962238  3674.82150279
0.30500001 56541.90218243  3114.32811965
0.30600001 55720.20170754  4875.23927921
0.30700001 54910.87599126  3044.25910908
0.30800001 54113.05298399  2758.95413701
0.30900001 53326.85666030  3223.60863773
0.31000001 52551.87437327  2451.54505558
0.31100001 51787.64931487  3393.12694376
0.31200001 51035.55283785  3114.95511494
0.31300001 50293.56696370  2368.82711615
0.31400001 49563.88337285  3044.46168032
0.31500001 48843.73570170  2778.23181825
0.31600002 48135.38048858  2517.72119566
0.31700002 47436.81649041  2489.00987910
0.31800002 46748.64577605  2684.30736756
0.31900002 46071.65423410  2653.72740954
0.32000002 45405.13881965  2404.88329145
0.32100002 44748.48095779  2593.62207912
0.32200002 44103.03521940  2350.47137331
0.32300002 43466.06505066  2746.18611993
0.32400002 42840.37903690  2506.16229233
0.32500002 42224.37078182  3510.11210930
0.32600002 41618.68952257  2857.95554485
0.32700002 41022.89492732  2421.99183120
0.32800002 40437.76588677  2594.28499331
0.32900002 39860.44458004  2367.71052017
0.33000002 39294.42638000  2341.16203458
0.33100002 38736.94792756  1929.10009814
0.33200002 38190.65529781  2289.14798695
0.33300002 37653.12308110  2263.70586683
0.33400002 37125.90455568  2238.69215072
0.33500002 36607.57483681  2214.02623098
0.33600002 36098.41141011  2007.25226152
0.33700002 35598.71797772  1985.34059564
0.33800002 35109.19463736  2499.42368460
0.33900002 34628.15128287  2119.24295887
0.34000002 34156.63281774  2620.66777705
0.34100002 33694.40868195  2247.08022142
0.34200002 33242.09028493  2223.39731401
0.34300002 32798.31086265  2200.11079686
0.34400002 32364.29895079  1842.33780503
0.34500002 31938.92364521  1657.63021569
0.34600002 31523.15697855  2133.01451797
0.34700002 31115.27968653  1786.63944422
0.34800002 30717.43160760  1608.05762082
0.34900002 30327.84553915  3025.20273581
0.35000002 29947.53681712  1734.41167691
0.35100002 29576.91706764  2030.15968368
0.35200002 29213.42758737  1701.53617042
0.35300002 28859.99566900  2605.19193243
0.35400002 28514.70172663  1822.08952663
0.35500002 28178.54883034  1956.15495245
0.35600002 27850.32330029  2535.35430173
0.35700002 27530.91034981  1774.09194697
0.35800002 27220.12396461  1612.38411941
0.35900002 26918.48652342  1889.67784345
0.36000002 26624.94404856  2306.78526163
0.36100002 26339.08383220  1430.21231983
0.36200002 26063.20233915  2128.71215188
0.36300002 25794.18369122  1971.70749475
0.36400002 25533.92923287  1677.57923006
0.36500002 25280.94860854  2637.05587427
0.36600002 25037.19313551  1516.12730214
0.36700002 24800.81642582  1369.00513155
0.36800002 24573.32312988  1768.17354957
0.36900002 24353.54313715  1757.10822058
0.37000002 24141.02224748  2015.17192757
0.37100002 23936.18531676  1736.33096513
0.37200002 23739.87326001  1593.89516618
0.37300002 23550.93955936  1453.32854905
0.37400002 23369.36954807  1445.97980928
0.37500002 23195.62971967  1700.70365161
0.37600002 23029.43657492  1823.24058001
0.37700002 22870.35285693  2204.47341631
0.37800002 22718.67192319  2066.49049603
0.37900002 22575.03158327  1672.80991957
0.38000002 22437.73446703  1667.01156120
0.38100002 22306.93226879  1406.00600751
0.38200002 22184.35904191  1911.73723100
0.38300002 22067.63981687  1271.09611367
0.38400002 21958.40778477  2028.95697543
0.38500002 21855.23482982  1645.04360357
0.38600002 21759.71420446  1389.46661635
0.38700002 21669.78459270  1513.41782765
0.38800002 21586.55606778  2015.32096996
0.38900002 21509.57676532  1509.97236046
0.39000002 21439.48115448  1760.39588100
0.39100002 21374.63391324  1633.87709373
0.39200002 21316.59295097  1633.59717819
0.39300002 21263.94228852  1382.36895367
0.39400002 21218.39506503  1760.06595403
0.39500002 21177.34707314  1383.72792332
0.39600002 21142.24162607  1259.02054848
0.39700002 21112.10939536  1512.47158874
0.39800002 21088.54287924  1388.36428623
0.39900002 21069.43815285  1769.83288869
0.40000002 21055.81942928  1519.80911841
0.40100002 21047.04073002  1522.96393938
0.40200002 21043.78836774  1526.51648052
0.40300002 21045.06948303  1402.86439821
0.40400002 21051.22141640  1790.40646629
0.40500002 21061.62037222  1539.18328973
0.40600002 21077.49544401  1415.45927361
0.40700002 21097.20138468  2324.06781465
0.40800002 21121.15985725  1425.36154050
0.40900002 21148.94274290  1560.79204838
0.41000002 21181.56389344  1436.42782349
0.41100002 21217.76866246  1573.50979856
0.41200002 21257.06776359  1316.87541035
0.41300002 21301.46701019  1719.66751322
0.41400002 21348.58021763  1860.52885412
0.41500002 21399.18049262  1335.30892601
0.41600002 21452.42934575  1476.03447107
0.41700002 21510.17296272  1888.16307214
0.41800002 21571.34380258  1626.91082668
0.41900002 21633.72846866  1771.80244554
0.42000002 21699.62564594  1370.33142447
0.42100002 21768.96510659  1515.77311220
0.42200002 21840.56339209  1801.51895676
0.42300002 21914.37252974  1393.75415894
0.42400002 21990.48137914  1401.89325435
0.42500002 22069.28423166  1410.22732923
0.42600002 22149.08007867  1986.10810477
0.42700002 22232.13274522  1570.03328887
0.42800002 22316.27359626  1866.86795616
0.42900002 22403.19125482  1734.00708529
0.43000002 22491.43534576  1744.88563681
0.43100002 22579.74796424  1609.48451116
0.43200002 22670.91906103  1472.47626279
0.43300002 22762.58535375  1630.02881443
0.43400002 22855.94281549  1789.62040726
0.43500002 22949.88488590  1651.01479693
0.43600002 23045.50708088  1963.82297896
0.43700002 23141.08583444  1824.44329365
0.43800002 23237.12012583  1836.19731936
0.43900002 23334.74250888  1848.11169428
0.44000002 23432.19648912  2170.05581970
0.44100002 23530.45886270  1560.06949653
0.44200002 23628.85377139  1727.15114827
0.44300002 23727.46586219  1738.27423144
0.44400002 23826.03272793  1749.42653595
0.44500002 23924.00522500  2080.67083302
0.44600002 24021.83436156  1932.79688433
0.44700002 24120.44182543  1620.89376749
0.44800002 24217.59913821  1631.05537926
0.44900002 24314.92401783  2133.63468368
0.45000002 24411.94282936  1981.76161281
0.45100002 24507.40222115  1661.60194934
0.45200002 24602.73668543  1838.93164070
0.45300002 24696.85116892  1850.04120874
0.45400002 24790.15437151  1691.92811604
0.45500002 24882.88246269  2042.38708933
0.45600002 24974.04143292  1883.16768350
0.45700002 25064.32482888  1894.11111709
0.45800002 25152.94922763  2770.84901824
0.45900002 25240.30573760  1915.73929628
0.46000002 25326.73007491  2276.74650799
0.46100002 25410.75967950  2465.35202095
0.46200002 25493.90200855  1947.60673625
0.46300002 25575.28953415  1958.04425954
0.46400002 25654.35930605  1789.39164641
0.46500002 25732.81076247  1978.59591330
0.46600002 25808.37969738  1988.66479184
0.46700002 25882.08940094  2543.69186689
0.46800002 25954.50936329  2921.43971240
0.46900002 26024.17851732  1834.70467243
0.47000002 26091.87021954  2212.06886206
0.47100002 26157.75072680  2407.55949101
0.47200002 26221.35908315  2046.44606664
0.47300002 26282.53697400  1868.68846742
0.47400002 26341.10251365  3002.88582889
0.47500002 26397.65593032  2073.27199504
0.47600002 26452.36666646  2460.46700210
0.47700002 26503.65358313  2090.34325718
