# SAXS profile: number of points = 501, q_min = 0, q_max = 0.5, delta_q = 0.001
#    q    intensity    error
0.00000000 1664650.74656091 274.66737318
0.00100000 1664569.76154059 848.93059855
0.00200000 1664326.75818890 973.63118437
0.00300000 1663921.93565344 1397.69447574
0.00400000 1663355.16470154 1372.26806302
0.00500000 1662626.97774604 2543.81937664
0.00600000 1661737.28421923 1919.30664141
0.00700000 1660686.57398994 2192.10636877
0.00800000 1659474.74242770 4480.58199372
0.00900000 1658102.96274345 2735.87000548
0.01000000 1656570.65419318 3553.34420668
0.01100000 1654879.06025585 3574.53892579
0.01200000 1653028.06751406 3868.08584757
0.01300000 1651018.91853123 3813.85387002
0.01400000 1648851.50710576 4080.90766100
0.01500000 1646527.34004932 3951.66579208
0.01600000 1644045.75020019 4611.54853546
0.01700000 1641409.06744824 5761.34608519
0.01800000 1638617.13237570 7472.09445986
0.01900000 1635670.62323494 6379.11571846
0.02000000 1632570.79945113 7713.89737635
0.02100000 1629319.47477645 5914.42996159
0.02200000 1625915.30334182 7292.23046679
0.02300000 1622361.59661709 9928.85342324
0.02400000 1618657.61546855 8497.95286870
0.02500000 1614806.17245942 10706.16541236
0.02600000 1610806.98834189 7176.14546129
0.02700000 1606662.42197935 11471.57021834
0.02800000 1602372.16752558 7667.35117323
0.02900000 1597938.64728481 7190.72424294
0.03000000 1593363.46979063 11854.62476014
0.03100000 1588646.64102971 11438.25634172
0.03200000 1583789.81231678 10975.66390487
0.03300000 1578796.77994666 8051.86394892
0.03400000 1573665.42917957 9087.91827283
0.03500000 1568399.12497172 9316.29123254
0.03600000 1562999.27211605 12144.50490558
0.03700000 1557467.25871215 12428.58929931
0.03800000 1551804.87053311 10893.67069530
0.03900000 1546014.02674253 10203.69304903
0.04000000 1540094.72646169 15154.53281063
0.04100000 1534050.82814454 11597.42479851
0.04200000 1527882.99786904 12811.29953148
0.04300000 1521592.32820695 14059.51376525
0.04400000 1515182.25050552 14318.47293225
0.04500000 1508654.07050387 12491.65628420
0.04600000 1502007.70836294 10589.15483622
0.04700000 1495247.84011453 11842.36344447
0.04800000 1488374.21981366 13127.46122955
0.04900000 1481390.75575680 17776.68989654
0.05000000 1474297.38738489 12406.21309255
0.05100000 1467098.16797789 14876.37611630
0.05200000 1459791.82628103 13926.41467171
0.05300000 1452383.92936712 12940.74141393
0.05400000 1444874.81317552 13112.23954104
0.05500000 1437266.68647511 12073.04072959
0.05600000 1429560.72969696 17111.84273298
0.05700000 1421762.15996544 12369.33136908
0.05800000 1413869.54699879 15015.29529023
0.05900000 1405885.63341827 17714.15980842
0.06000000 1397814.30694945 12790.00150612
0.06100000 1389656.87087382 18093.33330430
0.06200000 1381415.28239848 13054.37502887
0.06300000 1373092.90002870 13181.69245659
0.06400000 1364688.24823631 14636.28214683
0.06500000 1356207.61176141 18797.03837830
0.06600000 1347651.79436421 13543.90116706
0.06700000 1339022.23635448 16389.63294000
0.06800000 1330322.23825496 20653.25371567
0.06900000 1321554.62748335 16651.58908590
0.07000000 1312719.48454164 23766.78738059
0.07100000 1303820.54827148 22530.02012939
0.07200000 1294859.69281435 21268.07145082
0.07300000 1285839.79938042 14272.82244188
0.07400000 1276762.89372957 15799.94155035
0.07500000 1267631.07201478 18786.29336782
0.07600000 1258445.13951716 14535.04204283
0.07700000 1249210.33644217 19000.49010819
0.07800000 1239926.81461482 16162.44678646
0.07900000 1230596.46199225 19197.30570750
0.08000000 1221224.13034201 17805.44865566
0.08100000 1211809.98948356 17886.31628397
0.08200000 1202355.97282643 19460.13233337
0.08300000 1192865.60161148 18036.12874284
0.08400000 1183340.29243055 16596.34838035
0.08500000 1173782.72259531 19684.33718201
0.08600000 1164194.81073391 18231.29159208
0.08700000 1154579.88591366 16764.50073069
0.08800000 1144937.57963990 15284.91740603
0.08900000 1135273.46411941 16858.81173403
0.09000000 1125587.19325030 16900.69250057
0.09100000 1115881.66554334 16939.08447877
0.09200000 1106158.34169823 18517.09151009
0.09300000 1096422.61733199 18551.47155703
0.09400000 1086671.16014082 24776.10361562
0.09500000 1076909.70849238 23261.25079678
0.09600000 1067139.30323163 21737.62862867
0.09700000 1057364.28696281 21760.55804872
0.09800000 1047584.71372584 18667.96047632
0.09900000 1037803.34744897 20237.16622686
0.10000000 1028020.20197217 15574.50679230
0.10100000 1018238.84845509 18694.86613689
0.10200000 1008461.52178981 18696.87749342
0.10300000 998689.21796123 18695.46303968
0.10400000 988925.58357868 18690.69440894
0.10500000 979172.60055930 24910.15213024
0.10600001 969428.05488624 20227.11731696
0.10700001 959699.23853349 15547.12839585
0.10800001 949984.72762965 17085.47613049
0.10900001 940287.82759745 18617.69986268
0.11000001 930609.15336402 17044.10744612
0.11100001 920951.49121224 17019.18435875
0.11200001 911315.73456379 20080.84315646
0.11300001 901704.37552541 20044.88921166
0.11400001 892118.76965994 21544.66930171
0.11500001 882561.54443587 19963.54307518
0.11600001 873032.82602868 18386.07218199
0.11700001 863536.03593730 21398.42397828
0.11800001 854069.97508880 21343.20968270
0.11900001 844637.76967426 24325.56891239
0.12000001 835239.93556164 19707.48720790
0.12100001 825881.96982146 24181.82521553
0.12200001 816560.98777208 22598.32640123
0.12300001 807280.90644550 18018.51068080
0.12400001 798040.78370357 16459.59193942
0.12500001 788842.88658476 23854.61001436
0.12600001 779690.98427755 16338.42534546
0.12700001 770583.60692279 17754.24714019
0.12800001 761522.77306498 19156.10625926
0.12900001 752510.06494599 17608.73634967
0.13000001 743546.74950074 14610.69431636
0.13100001 734633.07368651 16000.30909911
0.13200001 725771.23183672 15927.05043346
0.13300001 716962.60575551 14410.94905506
0.13400001 708206.61531331 17209.42156346
0.13500001 699506.43940152 17123.91844391
0.13600001 690861.97260232 15616.93562703
0.13700001 682274.49847908 21184.62417670
0.13800001 673743.27758940 18261.81240021
0.13900001 665272.75304114 13970.72847270
0.14000001 656860.58569558 18060.38265544
0.14100001 648510.04669622 15194.59111071
0.14200001 640220.39158978 21972.36487569
0.14300001 631993.99973578 16381.28524582
0.14400001 623827.61779227 14925.07645969
0.14500001 615728.00219050 18878.22143769
0.14600001 607691.71410635 16079.52351379
0.14700001 599721.75253607 15976.58824128
0.14800001 591815.20026053 21163.31255977
0.14900001 583976.21572245 18395.25166316
0.15000001 576203.91436929 14356.12120387
0.15100001 568499.30024180 14257.96312283
0.15200001 560863.70964478 14159.00501810
0.15300001 553296.46875222 15337.37883757
0.15400001 545796.52244884 13958.74672036
0.15500001 538367.50415232 15117.36023003
0.15600001 531006.79687811 17507.29491933
0.15700001 523719.11696988 14894.57238960
0.15800001 516498.70777658 18477.74214283
0.15900001 509351.66762311 19559.10495993
0.16000001 502273.01101843 16981.85130412
0.16100001 495268.43305796 14442.02818970
0.16200001 488334.78148237 14327.74316505
0.16300001 481472.60390567 13028.64927674
0.16400001 474683.04393445 17622.60883802
0.16500001 467964.66885541 17478.48120693
0.16600001 461319.27351031 12711.65318173
0.16700001 454745.33608412 13751.49961246
0.16800001 448243.92710345 13635.58090631
0.16900001 441816.21711684 14646.20828899
0.17000001 435459.39950522 13403.44094968
0.17100001 429175.93785598 12180.01369151
0.17200001 422964.32923176 10975.92486188
0.17300001 416825.16657107 18494.53351415
0.17400001 410759.15037082 16173.64230967
0.17500001 404764.04168514 12822.92544618
0.17600001 398839.97068454 11648.12189397
0.17700001 392990.35355865 11542.12722916
0.17800001 387210.60416582 14555.24729807
0.17900001 381502.12565264 10300.55787915
0.18000001 375866.27139956 12245.72370062
0.18100001 370301.82427124 12131.08833616
0.18200001 364805.88866054 12016.70654012
0.18300001 359381.25273168 10910.81534835
0.18400001 354026.83837979 12771.51879789
0.18500001 348742.53846668 11675.90073946
0.18600001 343528.08542328 12526.75222677
0.18700001 338381.96934328 9542.37198631
0.18800001 333303.16694502 14173.71784399
0.18900001 328296.26972139 9356.44412913
0.19000001 323353.40937517 13896.11342447
0.19100001 318480.79586120 17427.26997296
0.19200001 313673.69087916 11805.10991404
0.19300001 308935.22049313 8990.01534115
0.19400001 304260.85550938 9789.59348861
0.19500001 299653.31212686 11452.75013069
0.19600001 295109.81982982 11336.64426449
0.19700001 290632.78580399 11221.33239018
0.19800001 286218.79439070 11106.72084122
0.19900001 281868.76549376 10992.88237378
0.20000001 277580.78114993 11716.68532608
0.20100001 273356.70892447 9110.97953906
0.20200001 269193.46019995 9016.63537555
0.20300001 265092.24572396 9734.18772307
0.20400001 261052.07232224 8830.08676366
0.20500001 257071.60782887 9532.21566885
0.20600001 253150.44002081 8646.35368761
0.20700001 249288.87420787 10888.93854011
0.20800001 245485.06763103 10774.34012763
0.20900001 241741.69276700 8376.35005034
0.21000001 238052.26895592 9041.22560235
0.21100001 234421.06009598 9690.96708249
0.21200001 230844.66246691 8113.03604594
0.21300001 227323.51569855 9486.21075857
0.21400001 223857.20750013 8663.27433982
0.21500001 220445.97877492 7856.69505498
0.21600001 217086.52411450 9186.01670221
0.21700001 213780.48482806 9087.80883971
0.21800001 210526.25776703 10373.68184194
0.21900001 207322.71864704 9578.31005437
0.22000001 204169.31006308 8121.85553833
0.22100001 201067.58404473 11382.43647097
0.22200001 198014.45269817 9273.01725832
0.22300001 195009.39623824 9173.24243281
0.22400001 192052.06567691 7129.93327540
0.22500001 189143.83484796 8335.56919592
0.22600001 186280.45537206 8245.70474697
0.22700001 183464.01983753 7529.36373019
0.22800001 180692.19880247 6206.77732238
0.22900001 177964.48770827 7367.73013955
0.23000001 175281.39635470 8502.90093928
0.23100001 172642.75000642 7209.56158123
0.23200001 170044.96233416 8320.30040051
0.23300001 167490.22558399 7054.68863525
0.23400001 164975.80698218 7560.01671251
0.23500001 162501.93521390 8628.85316797
0.23600001 160068.54102139 5690.43690245
0.23700001 157674.50419170 9006.36810541
0.23800001 155318.82266418 7238.63407264
0.23900001 153001.48166318 5508.05360040
0.24000001 150721.05705161 7083.13641118
0.24100001 148478.44600885 7545.67498309
0.24200001 146272.21480667 7464.27147466
0.24300001 144100.75723838 9493.35833593
0.24400001 141964.43048695 5738.91237391
0.24500001 139862.09308671 5160.91147903
0.24600001 137793.83046994 5615.78782646
0.24700001 135759.22440016 5555.26772525
0.24800001 133756.92257332 4995.82129445
0.24900001 131785.43304639 4941.95397303
0.25000001 129846.72356189 5377.60231072
0.25100001 127938.05197923 4836.05859360
0.25200001 126061.59228552 7176.05648035
0.25300001 124213.26648256 7098.78851533
0.25400001 122395.38150637 4681.62356411
0.25500001 120604.50176295 6020.57701285
0.25600001 118843.25487970 5039.54846161
0.25700001 117108.63396560 4985.31478379
0.25800001 115401.30929819 5380.00929403
0.25900001 113721.63460113 4435.14395929
0.26000001 112067.06599397 4387.42584126
0.26100001 110437.92243527 6076.29477990
0.26200001 108835.22967852 6010.97001957
0.26300001 107255.69367900 4672.05823773
0.26400001 105701.52910290 5041.96317678
0.26500001 104171.00048319 4156.42311596
0.26600001 102663.47487984 5345.17407255
0.26700001 101179.11735095 5287.62092297
0.26800001 99717.64892252  4425.96805687
0.26900001 98277.39495351  5174.30508916
0.27000001 96859.51634210  5118.54138332
0.27100001 95462.46000822  4673.84226318
0.27200001 94087.14111632  5394.01605546
0.27300001 92731.89814053  3811.28119394
0.27400001 91395.48503669  5278.08951065
0.27500001 90080.80424297  5221.08366101
0.27600001 88783.44808020  6271.21915194
0.27700001 87506.92204516  4743.75046857
0.27800001 86248.01920822  3970.42775216
0.27900001 85007.87381166  3927.36395597
0.28000001 83785.41349969  4237.86641539
0.28100001 82580.91843005  4890.44222089
0.28200001 81394.11451232  3800.69835704
0.28300001 80224.22810984  5809.83887470
0.28400001 79070.47822597  4056.31572498
0.28500001 77933.93284315  3343.36587722
0.28600001 76813.43537492  3637.50040435
0.28700001 75709.48958567  3924.78012589
0.28800001 74619.70107028  3558.24061396
0.28900001 73547.16839605  4159.09256966
0.29000001 72488.75196926  6011.85492914
0.29100001 71446.18535398  4068.14598662
0.29200001 70417.80160757  4642.29379072
0.29300001 69404.27501541  3672.87440767
0.29400001 68404.25456284  4237.64377076
0.29500001 67419.65434397  5388.17903023
0.29600001 66447.57235776  3256.26343754
0.29700001 65489.66776281  4098.34360260
0.29800001 64545.61213004  3473.84500929
0.29900001 63615.04595191  4294.01580503
0.30000001 62696.56060317  4246.12476786
0.30100001 61792.25793880  3079.10835886
0.30200001 60899.56139619  5258.98187333
0.30300001 60020.44276879  3284.31878379
0.30400001 59153.48793892  3247.52664159
0.30500001 58299.38664076  2675.94197350
0.30600001 57456.18620793  3439.61475018
0.30700001 56625.89339248  2877.72803845
0.30800001 55807.26085236  3362.66666186
0.30900001 55000.59550576  3580.53893694
0.31000001 54205.56683131  3034.42777488
0.31100001 53421.49427969  4500.22689119
0.31200001 52649.75529784  2966.28735392
0.31300001 51888.46590267  2932.73623167
0.31400001 51139.78514707  2899.62595513
0.31500001 50400.75604717  3105.69473467
0.31600002 49673.99920530  3070.59840626
0.31700002 48957.38150257  3269.37409154
0.31800002 48251.31548505  2308.82555528
0.31900002 47556.75054442  2510.99654764
0.32000002 46872.86401692  2708.31421113
0.32100002 46199.07861904  2454.55716325
0.32200002 45536.84468990  2868.13829860
0.32300002 44883.37548830  2181.33215202
0.32400002 44241.40177949  2803.79897054
0.32500002 43609.26013260  3198.73938219
0.32600002 42987.61638345  2319.39695180
0.32700002 42376.25424174  2710.38534965
0.32800002 41775.81003886  2886.29085226
0.32900002 41183.30001501  3057.86017091
0.33000002 40602.31239230  2620.67637746
0.33100002 40030.05236609  3189.59472357
0.33200002 39469.37750900  2365.79459992
0.33300002 38917.59243829  2729.68006289
0.33400002 38376.22757257  1928.40552684
0.33500002 37844.03245070  2479.54112359
0.33600002 37321.22441689  2075.24678198
0.33700002 36808.06553608  2799.25351658
0.33800002 36305.24050260  2399.95803708
0.33900002 35811.17852278  1826.37019115
0.34000002 35326.72807799  2349.05089479
0.34100002 34851.86778197  1966.69099208
0.34200002 34386.91141525  2123.04801132
0.34300002 33930.81155993  1925.91295535
0.34400002 33484.54668675  1906.10791042
0.34500002 33047.23836821  2058.18210305
0.34600002 32619.64117548  1867.63764395
0.34700002 32200.05706665  2689.34889358
0.34800002 31790.63497764  1997.08778388
0.34900002 31389.71801281  1647.96027372
0.35000002 30998.25799060  1632.05836050
0.35100002 30616.52598193  1616.55264841
0.35200002 30242.05827296  2081.71217981
0.35300002 29877.88228228  2221.12187406
0.35400002 29521.87288141  1729.24378593
0.35500002 29175.16177193  2648.52131110
0.35600002 28836.61609817  1698.62095172
0.35700002 28506.85373440  1683.89992985
0.35800002 28186.08642629  1821.38499114
0.35900002 27874.41497140  1505.21847975
0.36000002 27570.96119249  2090.15466700
0.36100002 27275.37115874  1925.36854129
0.36200002 26989.83838352  2057.43547743
0.36300002 26711.21413431  1458.43236081
0.36400002 26441.54578681  2171.51205060
0.36500002 26179.35297154  2012.14516470
0.36600002 25926.30991301  1712.69211398
0.36700002 25680.85594999  2126.37497338
0.36800002 25444.30965120  1830.84538768
0.36900002 25215.54151526  1539.40888243
0.37000002 24994.14665151  1530.01675975
0.37100002 24780.57259186  1521.03161774
0.37200002 24575.64203073  1512.50796043
0.37300002 24378.12300311  1504.37404179
0.37400002 24187.97944462  1768.74608067
0.37500002 24005.80232166  1489.32004659
0.37600002 23831.25918201  1617.18932470
0.37700002 23664.02016167  1744.27500875
0.37800002 23504.06587444  1737.06807074
0.37900002 23352.31538441  1597.29844796
0.38000002 23206.96671979  1989.41731630
0.38100002 23068.11684048  2379.24568364
0.38200002 22937.52835425  1581.31327965
0.38300002 22813.07815466  1576.84003675
0.38400002 22696.03448864  1310.69605381
0.38500002 22585.05410081  1961.51204158
0.38600002 22481.85552187  1435.57895236
0.38700002 22384.30800092  1433.04346611
0.38800002 22293.40012702  1560.98395085
0.38900002 22208.89266995  1299.22028274
0.39000002 22131.26390572  1557.59842748
0.39100002 22058.99014221  1556.48241817
0.39200002 21993.65610543  1555.83130661
0.39300002 21933.58544829  2333.29493053
0.39400002 21880.72723467  1296.43315008
0.39500002 21832.36417703  1556.21099227
0.39600002 21790.00589693  2076.15186022
0.39700002 21752.72674604  1688.22920275
0.39800002 21721.99666619  1690.08003069
0.39900002 21695.76240456  1822.44412833
0.40000002 21675.03269121  1434.12860596
0.40100002 21659.15326837  2220.27990674
0.40200002 21648.86515927  1439.54135697
0.40300002 21643.17554294  2098.52240007
0.40400002 21642.36199633  1709.20561964
0.40500002 21645.85401094  1450.05582890
0.40600002 21654.78679017  1322.02479618
0.40700002 21667.58018504  1591.26716419
0.40800002 21684.63116058  1729.45784016
0.40900002 21705.65042388  2269.32585934
0.41000002 21731.40554140  1473.71533662
0.41100002 21760.87845174  1479.30458724
0.41200002 21793.36793336  1620.11904893
0.41300002 21831.06580032  2169.13480070
0.41400002 21871.35523188  1633.79031324
0.41500002 21915.32310444  2051.27433977
0.41600002 21961.75494053  1648.44940395
0.41700002 22012.90227557  1656.25084569
0.41800002 22067.39583292  2357.79101949
0.41900002 22123.11435197  2508.76128639
0.42000002 22182.35520036  1821.06053646
0.42100002 22245.19999080  1548.93334876
0.42200002 22310.14922415  1698.69484242
0.42300002 22377.35326938  1565.51970891
0.42400002 22446.93222774  1574.09119706
0.42500002 22519.23434475  1726.77497138
0.42600002 22592.48342282  2170.57294770
0.42700002 22668.98153420  1746.41842015
0.42800002 22746.56669901  2488.36078195
0.42900002 22827.05104088  1766.81383429
0.43000002 22908.81406203  1629.16038922
0.43100002 22990.72889075  1638.77923299
0.43200002 23075.39544797  2098.24580751
0.43300002 23160.66741099  1809.31142389
0.43400002 23247.60435976  1971.97813326
0.43500002 23335.18172578  1678.73305290
0.43600002 23424.38463267  1996.10903107
0.43700002 23513.62005058  2317.26736580
0.43800002 23603.30625084  1554.27779027
0.43900002 23694.54008214  1720.22369148
0.44000002 23785.70950676  1888.10971012
0.44100002 23877.64371892  1741.39663895
0.44200002 23969.68573934  1911.34283143
0.44300002 24062.03562167  1762.78481318
0.44400002 24154.28432401  2257.21797705
0.44500002 24246.09579094  2108.68305087
0.44600002 24337.61461705  1958.20456489
0.44700002 24430.04375986  2298.37862585
0.44800002 24520.97918575  2642.38084228
0.44900002 24612.14804239  1661.32007159
0.45000002 24702.96119845  1838.27094470
0.45100002 24792.35796929  2185.19853498
0.45200002 24881.54787301  2366.98176134
0.45300002 24969.53333043  1870.46783043
0.45400002 25056.75794701  2565.18571640
0.45500002 25143.45136884  1891.79337065
0.45600002 25228.52563605  2594.12327147
0.45700002 25312.79969624  1912.88836370
0.45800002 25395.38868911  2098.16711293
0.45900002 25476.78684030  2461.05772541
0.46000002 25557.19498390  2827.64818703
0.46100002 25635.33537417  2131.83459075
0.46200002 25712.50125465  2321.45328580
0.46300002 25788.02305962  1794.84649002
0.46400002 25861.28760972  2705.73734441
0.46500002 25933.85607614  1812.77662564
0.46600002 26003.59667967  2003.70723712
0.46700002 26071.51780885  2013.24270062
0.46800002 26138.21887665  3126.00043471
0.46900002 26202.11676980  2586.14904775
0.47000002 26264.08843710  2226.66952323
0.47100002 26324.29334301  2050.13606272
0.47200002 26382.23857448  2059.00190714
0.47300002 26437.90498333  2255.68216009
0.47400002 26490.78587354  2264.96229954
0.47500002 26541.73629990  2842.62009245
0.47600002 26590.94912056  2853.87374963
0.47700002 26636.79441354  2291.82989997
