# SAXS profile: number of points = 501, q_min = 0, q_max = 0.5, delta_q = 0.001
#    q    intensity    error
0.00000000 1646666.22097351 246.99993315
0.00100000 1646585.68084411 592.77085918
0.00200000 1646344.00402311 1037.19675538
0.00300000 1645941.39746258 1283.83433575
0.00400000 1645377.74274838 1234.03335395
0.00500000 1644653.54372503 1776.22589753
0.00600000 1643768.71984987 2243.74439394
0.00700000 1642723.77385028 3548.28349898
0.00800000 1641518.59095434 3324.07528702
0.00900000 1640154.34716885 2952.27795111
0.01000000 1638630.44775581 3514.86246221
0.01100000 1636948.15038712 4419.76019848
0.01200000 1635107.33485427 3188.45944276
0.01300000 1633109.21655624 5830.20016025
0.01400000 1630953.73826252 4403.57528852
0.01500000 1628642.39439224 4299.61611265
0.01600000 1626174.50026409 6220.11774157
0.01700000 1623552.33678415 5260.30980715
0.01800000 1620775.83061329 6004.97472263
0.01900000 1617845.61594603 6309.59818689
0.02000000 1614762.91856150 5086.50342356
0.02100000 1611529.61684801 6913.46236972
0.02200000 1608144.31343164 7767.33738676
0.02300000 1604610.35433609 6931.91704626
0.02400000 1600926.96131634 7204.17165442
0.02500000 1597096.95426953 8097.28192795
0.02600000 1593120.08385647 7742.56396167
0.02700000 1588998.62483793 8008.55343598
0.02800000 1584732.37699108 11029.73784968
0.02900000 1580323.62534133 7111.45664055
0.03000000 1575774.15428594 8060.08516966
0.03100000 1571083.85998345 9049.44344990
0.03200000 1566254.26498799 7752.95896878
0.03300000 1561289.35423530 8758.83368105
0.03400000 1556187.04632984 8986.98060722
0.03500000 1550950.56668703 9212.64679154
0.03600000 1545581.27288047 11151.36939918
0.03700000 1540080.70089406 13167.69060162
0.03800000 1534450.49244025 8976.53579621
0.03900000 1528692.63288076 10089.37184425
0.04000000 1522807.19865898 9365.26470573
0.04100000 1516797.86498798 12422.57509024
0.04200000 1510665.45095787 11692.55113286
0.04300000 1504410.90629902 11914.93493096
0.04400000 1498037.83397281 16178.80935828
0.04500000 1491547.43949008 17495.85227816
0.04600000 1484939.52072151 12562.58892930
0.04700000 1478218.87597669 12771.81168243
0.04800000 1471385.27058056 11896.15046615
0.04900000 1464442.52595917 10983.31945594
0.05000000 1457390.66224857 17838.46253659
0.05100000 1450233.69601217 12443.00569143
0.05200000 1442970.39182870 13765.93817956
0.05300000 1435606.16922314 15116.93366664
0.05400000 1428141.58728641 11782.16864456
0.05500000 1420578.61196431 13126.14698688
0.05600000 1412918.48653890 16912.63507308
0.05700000 1405166.41363033 12224.94836923
0.05800000 1397321.22070994 17312.81073297
0.05900000 1389385.23750836 18756.70158241
0.06000000 1381362.46256973 17695.25397222
0.06100000 1373254.42092046 14048.39338252
0.06200000 1365062.79433770 15479.81281137
0.06300000 1356791.17113307 20840.31336300
0.06400000 1348437.86592686 14461.99678841
0.06500000 1340009.12853391 18572.52739026
0.06600000 1331506.05238148 17396.12738830
0.06700000 1322929.63820312 21590.21270587
0.06800000 1314283.64914778 24485.10552975
0.06900000 1305570.56278129 17821.03901633
0.07000000 1296790.51064448 15191.90154361
0.07100000 1287947.31107978 15300.81477228
0.07200000 1279042.95136689 15406.07307094
0.07300000 1270079.84164741 15507.67559314
0.07400000 1261060.56577960 19861.70484183
0.07500000 1251986.89915925 14272.65131941
0.07600000 1242859.75389995 21532.54624578
0.07700000 1233684.21181604 20207.74833706
0.07800000 1224460.53974381 15960.84388406
0.07900000 1215190.59403253 18956.97415606
0.08000000 1205879.18950827 19046.86269179
0.08100000 1196526.50781322 19132.45975759
0.08200000 1187134.38514390 25125.70044060
0.08300000 1177706.66358739 14839.10465763
0.08400000 1168244.37325027 17874.13974972
0.08500000 1158750.35783731 16442.66834961
0.08600000 1149226.49941372 17996.88782580
0.08700000 1139676.03779322 15043.72440529
0.08800000 1130098.71615930 18104.18228311
0.08900000 1120500.14119658 19664.77840165
0.09000000 1110879.83964095 16679.86157575
0.09100000 1101240.57884458 25835.10519346
0.09200000 1091584.12664068 16750.35921035
0.09300000 1081915.85923573 22882.52149813
0.09400000 1072232.17220679 21391.03284085
0.09500000 1062538.80098693 18360.67134405
0.09600000 1052836.92379951 19914.41134980
0.09700000 1043130.81050017 21467.63308935
0.09800000 1033420.62027378 19950.18601240
0.09900000 1023708.92337073 21497.88840167
0.10000000 1013996.03780204 23043.06104270
0.10100000 1004285.12124333 21511.78830877
0.10200000 994578.76402807 18439.49115241
0.10300000 984877.70148563 21509.73001228
0.10400000 975185.51640941 16895.08986662
0.10500000 965504.48314771 19956.97860563
0.10600001 955832.25623547 15341.10843443
0.10700001 946175.95972073 16860.85639566
0.10800001 936534.13458440 16843.56720319
0.10900001 926910.65905815 18352.83191314
0.11000001 917305.35326135 29018.95621633
0.11100001 907721.45678344 19824.63754936
0.11200001 898159.75460953 16746.18941306
0.11300001 888622.51240736 24312.71308413
0.11400001 879111.70407768 15164.67760936
0.11500001 869629.08235407 22697.32011821
0.11600001 860175.50386919 22644.12120570
0.11700001 850753.92715533 16564.17974180
0.11800001 841363.47404229 16520.17259089
0.11900001 832006.99413767 22464.18989982
0.12000001 822685.20466570 25383.95318567
0.12100001 813403.25260419 16373.80824626
0.12200001 804158.71632921 17804.07481830
0.12300001 794954.88342489 19222.00998685
0.12400001 785791.74166189 19153.67460548
0.12500001 776670.54611276 14679.07401322
0.12600001 767595.68183998 16084.96827094
0.12700001 758565.52785649 23303.13411394
0.12800001 749581.87896122 15954.85104563
0.12900001 740646.68443308 15886.87212987
0.13000001 731760.91039670 14379.10256705
0.13100001 722925.11386176 14313.91792919
0.13200001 714140.91107205 15671.82303225
0.13300001 705410.08463145 25521.73806514
0.13400001 696732.16698459 15519.70975127
0.13500001 688109.99125136 15441.18893170
0.13600001 679543.69247483 16757.54824656
0.13700001 671034.37323312 15279.45339899
0.13800001 662581.57709230 19340.75714735
0.13900001 654189.14053389 19233.16163870
0.14000001 645855.28419948 16391.80788603
0.14100001 637583.28429099 14938.57705549
0.14200001 629372.04841583 14850.03418278
0.14300001 621223.81253495 13418.43498367
0.14400001 613136.01475774 17336.42163503
0.14500001 605114.75090737 17227.61777100
0.14600001 597156.96009936 17117.50506876
0.14700001 589265.27564571 14389.85871013
0.14800001 581437.13088715 15594.14458610
0.14900001 573676.37824643 16780.03485540
0.15000001 565982.53728042 15383.40608912
0.15100001 558355.96182074 16549.67148926
0.15200001 550798.57259227 12640.82783748
0.15300001 543309.37909647 16315.58142418
0.15400001 535887.51210989 19935.01639124
0.15500001 528536.64189116 12367.75800392
0.15600001 521253.75153197 15958.18435630
0.15700001 514043.76185729 19492.54036961
0.15800001 506901.25420825 12089.59548348
0.15900001 499831.57240568 15594.74579514
0.16000001 492830.51613840 11901.85752654
0.16100001 485903.43344727 12988.19938914
0.16200001 479047.11329981 12883.97272040
0.16300001 472261.99501342 15102.93931351
0.16400001 465549.33342063 13826.81585535
0.16500001 458907.75204449 12569.48392192
0.16600001 452338.76631071 13597.30395727
0.16700001 445841.50272188 14605.76831878
0.16800001 439416.54015659 15594.89374649
0.16900001 433064.83913749 11043.15391944
0.17000001 426783.91538250 15325.81112507
0.17100001 420576.22374997 10850.86708514
0.17200001 414440.38758824 13981.14713552
0.17300001 408376.34359805 12790.34768551
0.17400001 402385.61280842 11618.88511856
0.17500001 396465.43121329 12560.02545402
0.17600001 390616.01966892 14519.19813682
0.17700001 384841.07382923 13357.83430351
0.17800001 379135.50632942 12215.74659091
0.17900001 373501.17776072 11092.98550345
0.18000001 367938.91965224 11987.45056850
0.18100001 362448.01950450 10884.31453986
0.18200001 357025.48728519 13720.49012450
0.18300001 351673.72386252 10676.81476083
0.18400001 346392.23903980 9612.38508745
0.18500001 341180.44136324 15230.29562197
0.18600001 336038.11267178 12253.63035748
0.18700001 330963.89112038 11199.81860465
0.18800001 325956.90705125 16633.58175270
0.18900001 321021.39606157 10978.93226403
0.19000001 316149.47448053 9963.45115901
0.19100001 311347.62744767 8966.81209418
0.19200001 306611.08839652 10651.66971420
0.19300001 301942.63114882 13179.79647243
0.19400001 297338.14563912 12175.99763928
0.19500001 292800.09237511 12912.48468392
0.19600001 288325.76403063 11076.03474865
0.19700001 283917.47458283 10118.81927232
0.19800001 279571.98452686 9179.74654576
0.19900001 275290.21956725 13213.93116372
0.20000001 271069.99162589 8990.03669715
0.20100001 266913.39273335 10513.71903667
0.20200001 262817.23261682 9603.34213371
0.20300001 258782.75655024 11086.25381460
0.20400001 254809.23265612 8618.92270197
0.20500001 250894.80943722 10853.70996928
0.20600001 247039.24070806 8437.62566521
0.20700001 243242.99182203 12142.69072573
0.20800001 239504.16878807 9010.14725572
0.20900001 235825.34699411 8171.34865962
0.21000001 232200.06302643 10288.78527908
0.21100001 228632.63364267 9451.67352160
0.21200001 225119.81604599 7911.83630896
0.21300001 221661.63604407 9249.94050941
0.21400001 218257.98280165 7742.70230594
0.21500001 214908.97434677 9051.96642744
0.21600001 211611.37953778 7576.74580257
0.21700001 208366.65288983 10220.38480746
0.21800001 205173.54994500 7413.94657780
0.21900001 202030.71051761 8667.11789100
0.22000001 198937.59555952 7913.73792554
0.22100001 195895.72373715 7175.66069978
0.22200001 192901.77974788 9678.84725651
0.22300001 189955.81267309 8935.52185066
0.22400001 187057.11941154 6944.49588653
0.22500001 184207.07650091 8118.00624527
0.22600001 181401.39441887 6794.38954925
0.22700001 178642.19347204 7942.43229736
0.22800001 175927.42160063 9064.66082664
0.22900001 173256.09172192 6575.06899179
0.23000001 170629.09768757 6503.52836593
0.23100001 168046.02363203 7017.60227876
0.23200001 165503.27652750 8098.07570348
0.23300001 163003.21722815 5721.41319530
0.23400001 160543.32262867 7356.89810741
0.23500001 158123.17946502 5597.56081781
0.23600001 155743.19237173 6090.33782575
0.23700001 153402.28607431 6571.75424625
0.23800001 151099.20228544 5958.59732396
0.23900001 148833.92160327 6429.62571738
0.24000001 146605.12916870 7419.68593818
0.24100001 144413.81826151 7339.11059120
0.24200001 142258.37657883 6740.91349305
0.24300001 140137.24488318 6667.73042694
0.24400001 138050.94286153 5073.37239015
0.24500001 135998.03426135 5520.16047180
0.24600001 133978.82896880 7942.26535698
0.24700001 131992.78120598 4910.13169314
0.24800001 130038.59581082 8256.80103161
0.24900001 128115.02092202 5284.74486304
0.25000001 126223.51192695 5702.77853865
0.25100001 124361.73050749 5641.04836269
0.25200001 122531.56834410 5115.08056252
0.25300001 120729.16049371 6439.69372540
0.25400001 118956.74534620 5915.12444219
0.25500001 117211.04872529 4500.90448400
0.25600001 115494.31519636 5342.76727376
0.25700001 113803.86477041 6165.89368499
0.25800001 112140.31635646 6099.31209521
0.25900001 110503.89937331 5602.54796331
0.26000001 108892.26332971 4689.44554218
0.26100001 107305.36244885 5060.52113253
0.26200001 105744.85379915 4588.79814774
0.26300001 104206.74107513 6602.53942694
0.26400001 102693.78390239 4898.49372393
0.26500001 101203.85991780 4441.83762198
0.26600001 99736.68123947  5192.79055445
0.26700001 98292.00780758  4346.47279093
0.26800001 96869.90187987  4690.44087098
0.26900001 95468.60133102  5799.71780531
0.27000001 94089.28341776  3824.72955193
0.27100001 92730.29449179  4161.73581374
0.27200001 91392.63409313  4491.03425187
0.27300001 90074.58939591  3702.06579937
0.27400001 88775.07997895  4760.56388916
0.27500001 87496.79246610  4346.84085543
0.27600001 86235.22201906  4299.68837336
0.27700001 84994.26299923  3544.26093481
0.27800001 83770.55612406  3505.79793971
0.27900001 82565.13869439  4508.05678607
0.28000001 81376.97381639  4116.04753044
0.28100001 80206.40606750  3392.73113723
0.28200001 79053.11277115  5033.70719395
0.28300001 77916.25297104  4315.00229377
0.28400001 76795.26606421  3611.29755760
0.28500001 75690.90880079  3896.56816949
0.28600001 74602.29467403  3532.79183150
0.28700001 73529.80858620  3494.13666940
0.28800001 72471.12903258  3455.78595149
0.28900001 71429.18943236  4039.32085360
0.29000001 70401.22238888  3380.31485301
0.29100001 69388.46525589  3039.21492207
0.29200001 68389.63653541  4208.01453521
0.29300001 67405.19163500  3269.82600099
0.29400001 66433.91805162  3821.61131682
0.29500001 65477.75952033  2907.21266032
0.29600001 64533.63974137  3449.96854389
0.29700001 63603.38231666  3411.68558897
0.29800001 62686.53728444  3092.64046333
0.29900001 61782.79496007  4170.33885723
0.30000001 60890.88146794  3848.91279979
0.30100001 60012.73994115  4077.86587205
0.30200001 59145.83054158  3494.63156299
0.30300001 58292.10966615  3721.36845726
0.30400001 57450.23226775  3154.01790082
0.30500001 56620.86494297  2598.89782392
0.30600001 55802.04195059  2569.68415348
0.30700001 54995.74950675  3048.96449700
0.30800001 54200.77750746  2763.42677205
0.30900001 53417.44011490  3477.47551612
0.31000001 52645.27236377  3929.44331527
0.31100001 51883.96027450  2913.80334697
0.31200001 51134.56999850  2640.84499261
0.31300001 50395.37731130  2610.98462212
0.31400001 49668.30445233  2346.82749649
0.31500001 48950.77218229  2320.26671130
0.31600002 48244.98499753  3211.66880335
0.31700002 47549.06646252  3175.32680871
0.31800002 46863.39192107  2915.13743248
0.31900002 46188.95007390  3769.01850449
0.32000002 45524.79975933  2192.01921220
0.32100002 44870.52831106  3467.59459207
0.32200002 44227.41824683  2571.38221863
0.32300002 43592.81186151  2542.33290814
0.32400002 42969.30631571  2723.17991670
0.32500002 42355.52910097  2692.54111245
0.32600002 41751.95312889  2867.10675712
0.32700002 41158.26205730  2632.48256584
0.32800002 40575.23440839  3604.29824317
0.32900002 39999.91074439  2177.99524317
0.33000002 39435.86598545  2153.78992279
0.33100002 38880.27094441  2323.48510167
0.33200002 38335.85787385  2297.85142977
0.33300002 37800.10059162  1893.78512932
0.33400002 37274.63881590  2809.57603380
0.33500002 36758.01727121  2778.90623730
0.33600002 36250.46112981  1832.46089689
0.33700002 35752.34308820  3081.49459670
0.33800002 35264.42325751  1972.51560832
0.33900002 34784.88339073  2306.23787802
0.34000002 34314.77027041  1930.72064070
0.34100002 33853.81102379  1736.70058777
0.34200002 33402.83479829  1890.43352494
0.34300002 32960.32949751  2551.12962393
0.34400002 32527.51642870  1851.62896040
0.34500002 32103.21325409  1666.15684680
0.34600002 31688.54046959  1649.38860956
0.34700002 31281.79892479  1959.49197745
0.34800002 30884.82279376  1940.18465979
0.34900002 30496.13245052  1761.15173243
0.35000002 30116.68485887  1744.20788621
0.35100002 29746.89734105  2355.95438100
0.35200002 29384.09360686  2333.83174526
0.35300002 29031.32552148  1541.56345820
0.35400002 28686.61365011  1833.07469906
0.35500002 28351.07412004  2270.92114458
0.35600002 28023.39102033  1950.84845828
0.35700002 27704.34665999  2082.81288055
0.35800002 27393.99479445  1622.68335851
0.35900002 27092.63601748  1901.90313851
0.36000002 26799.29396975  1741.41820464
0.36100002 26513.68072747  1583.66222486
0.36200002 26237.89425192  1857.24943259
0.36300002 25968.95177871  1985.06676799
0.36400002 25708.71285518  1829.81772414
0.36500002 25455.74291024  2096.28052795
0.36600002 25211.87216809  1665.49635432
0.36700002 24975.35098786  2481.55099170
0.36800002 24747.64795016  1643.73885471
0.36900002 24527.57853751  1361.28067331
0.37000002 24314.77388466  1759.05240001
0.37100002 24109.48988855  1479.84055946
0.37200002 23912.74182328  1739.29335891
0.37300002 23723.31244643  1463.96568042
0.37400002 23541.23576203  1721.45294665
0.37500002 23366.86057845  1976.83649858
0.37600002 23199.96422324  1705.54545067
0.37700002 23040.23702955  1698.29595190
0.37800002 22887.74246955  1821.63550945
0.37900002 22743.28639370  1685.27760161
0.38000002 22605.17330337  1937.82857323
0.38100002 22473.36110573  1802.81311331
0.38200002 22349.78271247  1669.19360096
0.38300002 22232.10381839  1408.62616467
0.38400002 22121.73096159  1277.53002355
0.38500002 22017.44790831  1274.81029428
0.38600002 21920.71976317  1654.24719530
0.38700002 21829.59836172  1524.57922181
0.38800002 21745.01199312  1649.46796288
0.38900002 21666.75067234  1394.25547182
0.39000002 21595.19073749  1519.86959611
0.39100002 21529.05241896  1519.09001065
0.39200002 21469.52694040  1392.19154041
0.39300002 21415.28703615  1645.33658094
0.39400002 21368.20149176  1899.09899755
0.39500002 21325.58567194  1266.73984893
0.39600002 21288.82684298  1901.62454784
0.39700002 21256.99848989  1395.94715697
0.39800002 21231.71687308  1524.86197807
0.39900002 21210.81989588  1527.17910486
0.40000002 21195.35236819  1402.39055589
0.40100002 21184.82357095  1405.18941404
0.40200002 21179.66882875  1408.34214549
0.40300002 21179.04203238  1796.83001116
0.40400002 21183.21450755  1544.25641077
0.40500002 21191.56931149  1419.62329544
0.40600002 21205.48439162  2071.35181352
0.40700002 21223.11764214  1688.51131961
0.40800002 21244.95827898  1303.37825217
0.40900002 21270.62019713  1308.14320411
0.41000002 21301.10628972  1707.17724448
0.41100002 21335.11070463  1582.21188482
0.41200002 21372.18232258  1853.60946067
0.41300002 21414.37928796  1861.76622351
0.41400002 21459.21109239  1870.17033532
0.41500002 21507.56587204  2013.10826101
0.41600002 21558.50263904  1348.48440397
0.41700002 21613.91460310  1490.71176081
0.41800002 21672.72214405  2179.40904207
0.41900002 21732.74107655  1642.99530324
0.42000002 21796.25731255  1514.07708596
0.42100002 21863.15450080  1660.72529457
0.42200002 21932.35147002  1530.76854339
0.42300002 22003.63701272  1819.26079442
0.42400002 22077.33605686  1970.40233644
0.42500002 22153.70638742  1840.30847681
0.42600002 22230.94471937  1993.44890745
0.42700002 22311.55230819  1432.40172606
0.42800002 22393.15361102  1440.99950315
0.42900002 22477.49481506  2174.69772641
0.43000002 22563.21195942  1604.58289453
0.43100002 22649.02112554  1614.42230233
0.43200002 22737.64522067  1476.81012707
0.43300002 22826.76778875  1634.62491881
0.43400002 22917.57804493  2093.52085361
0.43500002 23008.93872623  1655.26313041
0.43600002 23101.97229303  2422.93496891
0.43700002 23195.04073740  1981.08852326
0.43800002 23288.46412565  1686.89997888
0.43900002 23383.52222992  1697.64379434
0.44000002 23478.44067987  1708.40881703
0.44100002 23574.15851520  2031.85681871
0.44200002 23669.94111159  2044.72795982
0.44300002 23766.01736544  1741.09851470
0.44400002 23862.01838293  1592.78980254
0.44500002 23957.48086564  1763.03110045
0.44600002 24052.76450222  2096.55931719
0.44700002 24148.80609300  2109.63980026
0.44800002 24243.52382441  2122.64182904
0.44900002 24338.34830298  1807.12244714
0.45000002 24432.85678005  1818.17112345
0.45100002 24525.85216164  1829.13814090
0.45200002 24618.69322173  2007.40834044
0.45300002 24710.36982379  2187.60914418
0.45400002 24801.21084995  1861.95099280
0.45500002 24891.54200383  2043.09786450
0.45600002 24980.29466129  1712.39928019
0.45700002 25068.23003745  2583.28122779
0.45800002 25154.47245757  2251.45116402
0.45900002 25239.49939240  2438.13575686
0.46000002 25323.58882898  2626.68937578
0.46100002 25405.36390322  1936.65098213
0.46200002 25486.24955876  2655.03017362
0.46300002 25565.34632367  2669.02228269
0.46400002 25642.23212913  2146.25493093
0.46500002 25718.48906890  2337.03921246
0.46600002 25791.82835378  2348.73296036
0.46700002 25863.41700497  2360.29554774
0.46800002 25933.68873936  1824.43508929
0.46900002 26001.26020488  2016.39782446
0.47000002 26066.94214856  2209.95546010
0.47100002 26130.78114176  2035.06533178
0.47200002 26192.37205077  1858.34888508
0.47300002 26251.63733522  2053.14065330
0.47400002 26308.18549980  2061.90413628
0.47500002 26362.85004504  2635.23061541
0.47600002 26415.72462913  2079.04970548
0.47700002 26465.14957604  2466.81670890
